cnt,pos,speed,Dir,Force,
1,3.25303,1.005,-1,5
2,3.25402,0.989,-1,5
3,3.25500,0.978,-1,5
4,3.25598,0.986,-1,5
5,3.25699,1.006,-1,5
6,3.25800,1.013,-1,5
7,3.25900,0.995,-1,5
8,3.25998,0.981,-1,5
9,3.26097,0.992,-1,5
10,3.26198,1.013,-1,5
11,3.26300,1.015,-1,5
12,3.26399,0.997,-1,5
13,3.26498,0.985,-1,5
14,3.26598,1.001,-1,5
15,3.26700,1.019,-1,5
16,3.26801,1.014,-1,5
17,3.26901,0.995,-1,5
18,3.27000,0.987,-1,5
19,3.27100,1.007,-1,5
20,3.27203,1.023,-1,5
21,3.27304,1.015,-1,5
22,3.27404,0.995,-1,5
23,3.27503,0.993,-1,5
24,3.27604,1.009,-1,5
25,3.27706,1.024,-1,5
26,3.27807,1.012,-1,5
27,3.27907,0.994,-1,5
28,3.28007,0.998,-1,5
29,3.28108,1.015,-1,5
30,3.28210,1.022,-1,5
31,3.28311,1.011,-1,5
32,3.28411,0.993,-1,5
33,3.28511,0.998,-1,5
34,3.28612,1.012,-1,5
35,3.28713,1.015,-1,5
36,3.28814,1.004,-1,5
37,3.28913,0.994,-1,5
38,3.29013,0.999,-1,5
39,3.29114,1.012,-1,5
40,3.29215,1.007,-1,5
41,3.29314,0.993,-1,5
42,3.29413,0.988,-1,5
43,3.29513,0.996,-1,5
44,3.29613,1.004,-1,5
45,3.29713,0.999,-1,5
46,3.29812,0.988,-1,5
47,3.29911,0.990,-1,5
48,3.30010,0.993,-1,5
49,3.30110,0.995,-1,5
50,3.30208,0.986,-1,5
51,3.30306,0.981,-1,5
52,3.30405,0.989,-1,5
53,3.30505,0.995,-1,5
54,3.30604,0.978,-1,5
55,3.30800,0.977,-1,5
56,3.30898,0.985,-1,5
57,3.30997,0.991,-1,5
58,3.31096,0.985,-1,5
59,3.31193,0.975,-1,5
60,3.31291,0.977,-1,5
61,3.31389,0.985,-1,5
62,3.31488,0.990,-1,5
63,3.31586,0.977,-1,5
64,3.31683,0.968,-1,5
65,3.31780,0.972,-1,5
66,3.31879,0.987,-1,5
67,3.31978,0.986,-1,5
68,3.32075,0.974,-1,5
69,3.32171,0.964,-1,5
70,3.32268,0.971,-1,5
71,3.32367,0.982,-1,5
72,3.32464,0.977,-1,5
73,3.32561,0.966,-1,5
74,3.32657,0.959,-1,5
75,3.32754,0.972,-1,5
76,3.32852,0.980,-1,5
77,3.32950,0.976,-1,5
78,3.33045,0.958,-1,5
79,3.33141,0.955,-1,5
80,3.33237,0.963,-1,5
81,3.33335,0.977,-1,5
82,3.33432,0.967,-1,5
83,3.33527,0.955,-1,5
84,3.33622,0.954,-1,5
85,3.33719,0.967,-1,5
86,3.33816,0.972,-1,5
87,3.33913,0.964,-1,5
88,3.34007,0.947,-1,5
89,3.34102,0.946,-1,5
90,3.34198,0.962,-1,5
91,3.34295,0.972,-1,5
92,3.34392,0.961,-1,5
93,3.34486,0.945,-1,5
94,3.34677,0.960,-1,5
95,3.34774,0.968,-1,5
96,3.34869,0.952,-1,5
97,3.34963,0.939,-1,5
98,3.35057,0.945,-1,5
99,3.35153,0.961,-1,5
100,3.35250,0.965,-1,5
101,3.35345,0.949,-1,5
102,3.35438,0.936,-1,5
103,3.35532,0.941,-1,5
104,3.35628,0.959,-1,5
105,3.35724,0.958,-1,5
106,3.35818,0.944,-1,5
107,3.35911,0.931,-1,5
108,3.36006,0.941,-1,5
109,3.36101,0.959,-1,5
110,3.36197,0.956,-1,5
111,3.36383,0.924,-1,5
112,3.36477,0.937,-1,5
113,3.36573,0.957,-1,5
114,3.36668,0.955,-1,5
115,3.36762,0.937,-1,5
116,3.36854,0.921,-1,5
117,3.36948,0.939,-1,5
118,3.37043,0.953,-1,5
119,3.37138,0.950,-1,5
120,3.37231,0.929,-1,5
121,3.37323,0.918,-1,5
122,3.37417,0.937,-1,5
123,3.37512,0.954,-1,5
124,3.37607,0.949,-1,5
125,3.37791,0.913,-1,5
126,3.37884,0.931,-1,5
127,3.37979,0.950,-1,5
128,3.37979,0.940,-1,5
129,3.38165,0.918,-1,5
130,3.38256,0.912,-1,5
131,3.38349,0.934,-1,5
132,3.38444,0.949,-1,5
133,3.38538,0.936,-1,5
134,3.38629,0.911,-1,5
135,3.38720,0.907,-1,5
136,3.38812,0.927,-1,5
137,3.38907,0.944,-1,5
138,3.39000,0.934,-1,5
139,3.39091,0.909,-1,5
140,3.39182,0.908,-1,5
141,3.39275,0.930,-1,5
142,3.39369,0.941,-1,5
143,3.39462,0.929,-1,5
144,3.39552,0.904,-1,5
145,3.39643,0.901,-1,5
146,3.39735,0.927,-1,5
147,3.39830,0.943,-1,5
148,3.39923,0.930,-1,5
149,3.40013,0.904,-1,5
150,3.40103,0.900,-1,5
151,3.40195,0.919,-1,5
152,3.40289,0.940,-1,5
153,3.40471,0.899,-1,5
154,3.40561,0.897,-1,5
155,3.40653,0.922,-1,5
156,3.40746,0.935,-1,5
157,3.40839,0.922,-1,5
158,3.40928,0.897,-1,5
159,3.41017,0.889,-1,5
160,3.41108,0.911,-1,5
161,3.41202,0.931,-1,5
162,3.41294,0.920,-1,5
163,3.41383,0.895,-1,5
164,3.41472,0.892,-1,5
165,3.41563,0.911,-1,5
166,3.41656,0.927,-1,5
167,3.41748,0.917,-1,5
168,3.41837,0.893,-1,5
169,3.41926,0.886,-1,5
170,3.42016,0.905,-1,5
171,3.42109,0.922,-1,5
172,3.42291,0.897,-1,5
173,3.42380,0.886,-1,5
174,3.42470,0.904,-1,5
175,3.42562,0.921,-1,5
176,3.42654,0.917,-1,5
177,3.42744,0.899,-1,5
178,3.42833,0.890,-1,5
179,3.42923,0.901,-1,5
180,3.43015,0.921,-1,5
181,3.43107,0.920,-1,5
182,3.43197,0.902,-1,5
183,3.43286,0.889,-1,5
184,3.43376,0.898,-1,5
185,3.43467,0.914,-1,5
186,3.43559,0.903,-1,5
187,3.43649,0.894,-1,5
188,3.43739,0.898,-1,5
189,3.43919,0.911,-1,5
190,3.44011,0.916,-1,5
191,3.44102,0.904,-1,5
192,3.44191,0.893,-1,5
193,3.44280,0.893,-1,5
194,3.44371,0.908,-1,5
195,3.44463,0.917,-1,5
196,3.44554,0.910,-1,5
197,3.44643,0.896,-1,5
198,3.44733,0.897,-1,5
199,3.44824,0.906,-1,5
200,3.44915,0.914,-1,5
201,3.45006,0.912,-1,5
202,3.45096,0.900,-1,5
203,3.45186,0.896,-1,5
204,3.45368,0.919,-1,5
205,3.45460,0.916,-1,5
206,3.45550,0.904,-1,5
207,3.45640,0.899,-1,5
208,3.45730,0.904,-1,5
209,3.45822,0.913,-1,5
210,3.45913,0.917,-1,5
211,3.46005,0.911,-1,5
212,3.46095,0.904,-1,5
213,3.46185,0.902,-1,5
214,3.46277,0.914,-1,5
215,3.46369,0.921,-1,5
216,3.46460,0.914,-1,5
217,3.46550,0.902,-1,5
218,3.46640,0.900,-1,5
219,3.46731,0.911,-1,5
220,3.46824,0.922,-1,5
221,3.46916,0.923,-1,5
222,3.47007,0.909,-1,5
223,3.47097,0.901,-1,5
224,3.47188,0.909,-1,5
225,3.47280,0.924,-1,5
226,3.47373,0.924,-1,5
227,3.47464,0.914,-1,5
228,3.47555,0.905,-1,5
229,3.47646,0.928,-1,5
230,3.47832,0.934,-1,5
231,3.47924,0.920,-1,5
232,3.48014,0.906,-1,5
233,3.48106,0.912,-1,5
234,3.48199,0.930,-1,5
235,3.48292,0.936,-1,5
236,3.48385,0.926,-1,5
237,3.48476,0.911,-1,5
238,3.48567,0.914,-1,5
239,3.48661,0.934,-1,5
240,3.48755,0.940,-1,5
241,3.48848,0.931,-1,5
242,3.48939,0.913,-1,5
243,3.49030,0.912,-1,5
244,3.49124,0.933,-1,5
245,3.49218,0.945,-1,5
246,3.49312,0.937,-1,5
247,3.49404,0.918,-1,5
248,3.49495,0.916,-1,5
249,3.49589,0.933,-1,5
250,3.49683,0.948,-1,5
251,3.49777,0.937,-1,5
252,3.49961,0.917,-1,5
253,3.50055,0.934,-1,5
254,3.50150,0.954,-1,5
255,3.50245,0.947,-1,5
256,3.50338,0.927,-1,5
257,3.50430,0.921,-1,5
258,3.50523,0.935,-1,5
259,3.50619,0.960,-1,5
260,3.50714,0.954,-1,5
261,3.50808,0.936,-1,5
262,3.50901,0.925,-1,5
263,3.50995,0.940,-1,5
264,3.51091,0.966,-1,5
265,3.51187,0.962,-1,5
266,3.51281,0.940,-1,5
267,3.51374,0.927,-1,5
268,3.51469,0.945,-1,5
269,3.51566,0.971,-1,5
270,3.51663,0.972,-1,5
271,3.51758,0.948,-1,5
272,3.51851,0.932,-1,5
273,3.51945,0.945,-1,5
274,3.52042,0.970,-1,5
275,3.52140,0.978,-1,5
276,3.52236,0.953,-1,5
277,3.52329,0.937,-1,5
278,3.52424,0.948,-1,5
279,3.52522,0.979,-1,5
280,3.52620,0.985,-1,5
281,3.52717,0.962,-1,5
282,3.52810,0.938,-1,5
283,3.52905,0.949,-1,5
284,3.53003,0.981,-1,5
285,3.53102,0.991,-1,5
286,3.53199,0.969,-1,5
287,3.53294,0.949,-1,5
288,3.53390,0.958,-1,5
289,3.53489,0.988,-1,5
290,3.53589,0.998,-1,5
291,3.53686,0.977,-1,5
292,3.53781,0.951,-1,5
293,3.53878,0.966,-1,5
294,3.53978,0.995,-1,5
295,3.54078,1.009,-1,5
296,3.54177,0.986,-1,5
297,3.54273,0.961,-1,5
298,3.54370,0.969,-1,5
299,3.54470,0.997,-1,5
300,3.54571,0.989,-1,5
301,3.54767,0.971,-1,5
302,3.54865,0.978,-1,5
303,3.54965,1.006,-1,5
304,3.55067,1.015,-1,5
305,3.55166,0.991,-1,5
306,3.55263,0.974,-1,5
307,3.55362,0.986,-1,5
308,3.55463,1.012,-1,5
309,3.55565,1.020,-1,5
310,3.55665,0.996,-1,5
311,3.55763,0.982,-1,5
312,3.55862,0.992,-1,5
313,3.55964,1.015,-1,5
314,3.56065,1.019,-1,5
315,3.56166,1.002,-1,5
316,3.56265,0.992,-1,5
317,3.56365,1.007,-1,5
318,3.56468,1.022,-1,5
319,3.56570,1.019,-1,5
320,3.56670,1.008,-1,5
321,3.56770,0.999,-1,5
322,3.56871,1.011,-1,5
323,3.56974,1.026,-1,5
324,3.57076,1.023,-1,5
325,3.57177,1.012,-1,5
326,3.57279,1.015,-1,5
327,3.57381,1.021,-1,5
328,3.57483,1.024,-1,5
329,3.57585,1.020,-1,5
330,3.57687,1.019,-1,5
331,3.57790,1.025,-1,5
332,3.57893,1.028,-1,5
333,3.57995,1.028,-1,5
334,3.58098,1.025,-1,5
335,3.58201,1.028,-1,5
336,3.58304,1.033,-1,5
337,3.58407,1.030,-1,5
338,3.58510,1.024,-1,5
339,3.58613,1.031,-1,5
340,3.58717,1.045,-1,5
341,3.58822,1.047,-1,5
342,3.58925,1.034,-1,5
343,3.59028,1.025,-1,5
344,3.59131,1.037,-1,5
345,3.59237,1.053,-1,5
346,3.59342,1.053,-1,5
347,3.59446,1.040,-1,5
348,3.59550,1.036,-1,5
349,3.59654,1.047,-1,5
350,3.59760,1.060,-1,5
351,3.59866,1.052,-1,5
352,3.59970,1.043,-1,5
353,3.60180,1.060,-1,5
354,3.60287,1.067,-1,5
355,3.60392,1.055,-1,5
356,3.60497,1.046,-1,5
357,3.60602,1.049,-1,5
358,3.60708,1.062,-1,5
359,3.60814,1.062,-1,5
360,3.60920,1.060,-1,5
361,3.61026,1.059,-1,5
362,3.61133,1.064,-1,5
363,3.61239,1.065,-1,5
364,3.61345,1.060,-1,5
365,3.61451,1.061,-1,5
366,3.61558,1.067,-1,5
367,3.61665,1.072,-1,5
368,3.61772,1.069,-1,5
369,3.61879,1.068,-1,5
370,3.61986,1.075,-1,5
371,3.62094,1.078,-1,5
372,3.62201,1.074,-1,5
373,3.62308,1.066,-1,5
374,3.62415,1.073,-1,5
375,3.62524,1.088,-1,5
376,3.62633,1.090,-1,5
377,3.62741,1.079,-1,5
378,3.62848,1.075,-1,5
379,3.62957,1.093,-1,5
380,3.63175,1.090,-1,5
381,3.63283,1.084,-1,5
382,3.63392,1.088,-1,5
383,3.63502,1.097,-1,5
384,3.63612,1.098,-1,5
385,3.63721,1.090,-1,5
386,3.63830,1.090,-1,5
387,3.63940,1.099,-1,5
388,3.64050,1.104,-1,5
389,3.64160,1.101,-1,5
390,3.64270,1.098,-1,5
391,3.64380,1.102,-1,5
392,3.64491,1.106,-1,5
393,3.64601,1.105,-1,5
394,3.64712,1.103,-1,5
395,3.64822,1.108,-1,5
396,3.64934,1.114,-1,5
397,3.65045,1.113,-1,5
398,3.65156,1.107,-1,5
399,3.65267,1.110,-1,5
400,3.65378,1.117,-1,5
401,3.65601,1.112,-1,5
402,3.65713,1.115,-1,5
403,3.65825,1.124,-1,5
404,3.65937,1.122,-1,5
405,3.66049,1.113,-1,5
406,3.66160,1.111,-1,5
407,3.66272,1.121,-1,5
408,3.66385,1.127,-1,5
409,3.66497,1.121,-1,5
410,3.66608,1.115,-1,5
411,3.66720,1.122,-1,5
412,3.66833,1.126,-1,5
413,3.66945,1.122,-1,5
414,3.67056,1.113,-1,5
415,3.67168,1.119,-1,5
416,3.67281,1.129,-1,5
417,3.67394,1.129,-1,5
418,3.67506,1.120,-1,5
419,3.67618,1.117,-1,5
420,3.67730,1.124,-1,5
421,3.67843,1.126,-1,5
422,3.67955,1.121,-1,5
423,3.68180,1.127,-1,5
424,3.68180,1.128,-1,5
425,3.68293,1.119,-1,5
426,3.68516,1.116,-1,5
427,3.68628,1.122,-1,5
428,3.68741,1.128,-1,5
429,3.68853,1.120,-1,5
430,3.68965,1.115,-1,5
431,3.69077,1.120,-1,5
432,3.69189,1.125,-1,5
433,3.69301,1.118,-1,5
434,3.69412,1.109,-1,5
435,3.69523,1.115,-1,5
436,3.69636,1.124,-1,5
437,3.69748,1.120,-1,5
438,3.69859,1.111,-1,5
439,3.69970,1.110,-1,5
440,3.70082,1.116,-1,5
441,3.70193,1.116,-1,5
442,3.70304,1.109,-1,5
443,3.70415,1.108,-1,5
444,3.70526,1.116,-1,5
445,3.70638,1.116,-1,5
446,3.70749,1.107,-1,5
447,3.70859,1.100,-1,5
448,3.70970,1.108,-1,5
449,3.71081,1.114,-1,5
450,3.71192,1.108,-1,5
451,3.71302,1.103,-1,5
452,3.71523,1.110,-1,5
453,3.71633,1.104,-1,5
454,3.71743,1.093,-1,5
455,3.71852,1.095,-1,5
456,3.71963,1.106,-1,5
457,3.72073,1.104,-1,5
458,3.72183,1.093,-1,5
459,3.72291,1.089,-1,5
460,3.72401,1.098,-1,5
461,3.72511,1.100,-1,5
462,3.72620,1.089,-1,5
463,3.72729,1.084,-1,5
464,3.72838,1.094,-1,5
465,3.72948,1.102,-1,5
466,3.73057,1.091,-1,5
467,3.73165,1.080,-1,5
468,3.73274,1.084,-1,5
469,3.73383,1.094,-1,5
470,3.73492,1.093,-1,5
471,3.73601,1.082,-1,5
472,3.73818,1.091,-1,5
473,3.73927,1.094,-1,5
474,3.74035,1.081,-1,5
475,3.74142,1.072,-1,5
476,3.74251,1.083,-1,5
477,3.74360,1.094,-1,5
478,3.74469,1.090,-1,5
479,3.74577,1.076,-1,5
480,3.74684,1.076,-1,5
481,3.74793,1.087,-1,5
482,3.74902,1.086,-1,5
483,3.75009,1.077,-1,5
484,3.75117,1.076,-1,5
485,3.75226,1.088,-1,5
486,3.75335,1.090,-1,5
487,3.75442,1.076,-1,5
488,3.75549,1.068,-1,5
489,3.75657,1.077,-1,5
490,3.75765,1.087,-1,5
491,3.75874,1.082,-1,5
492,3.76089,1.078,-1,5
493,3.76197,1.088,-1,5
494,3.76306,1.086,-1,5
495,3.76413,1.072,-1,5
496,3.76520,1.070,-1,5
497,3.76629,1.082,-1,5
498,3.76738,1.092,-1,5
499,3.76846,1.083,-1,5
500,3.76953,1.073,-1,5
501,3.77061,1.078,-1,5
502,3.77170,1.090,-1,5
503,3.77279,1.086,-1,5
504,3.77386,1.074,-1,5
505,3.77494,1.074,-1,5
506,3.77602,1.089,-1,5
507,3.77712,1.093,-1,5
508,3.77820,1.081,-1,5
509,3.77927,1.071,-1,5
510,3.78035,1.081,-1,5
511,3.78144,1.090,-1,5
512,3.78360,1.074,-1,5
513,3.78468,1.079,-1,5
514,3.78577,1.090,-1,5
515,3.78685,1.086,-1,5
516,3.78793,1.073,-1,5
517,3.78900,1.073,-1,5
518,3.79009,1.086,-1,5
519,3.79118,1.092,-1,5
520,3.79226,1.080,-1,5
521,3.79333,1.072,-1,5
522,3.79441,1.079,-1,5
523,3.79550,1.087,-1,5
524,3.79658,1.081,-1,5
525,3.79765,1.073,-1,5
526,3.79873,1.080,-1,5
527,3.79982,1.089,-1,5
528,3.80091,1.085,-1,5
529,3.80198,1.070,-1,5
530,3.80305,1.071,-1,5
531,3.80413,1.083,-1,5
532,3.80629,1.076,-1,5
533,3.80736,1.067,-1,5
534,3.80844,1.076,-1,5
535,3.80952,1.087,-1,5
536,3.81060,1.078,-1,5
537,3.81167,1.066,-1,5
538,3.81274,1.069,-1,5
539,3.81382,1.084,-1,5
540,3.81490,1.082,-1,5
541,3.81597,1.069,-1,5
542,3.81703,1.064,-1,5
543,3.81811,1.075,-1,5
544,3.81919,1.081,-1,5
545,3.82026,1.071,-1,5
546,3.82132,1.062,-1,5
547,3.82239,1.070,-1,5
548,3.82348,1.082,-1,5
549,3.82455,1.075,-1,5
550,3.82561,1.060,-1,5
551,3.82667,1.060,-1,5
552,3.82774,1.072,-1,5
553,3.82882,1.064,-1,5
554,3.83094,1.056,-1,5
555,3.83200,1.062,-1,5
556,3.83307,1.072,-1,5
557,3.83414,1.064,-1,5
558,3.83519,1.049,-1,5
559,3.83624,1.055,-1,5
560,3.83731,1.066,-1,5
561,3.83837,1.066,-1,5
562,3.83943,1.052,-1,5
563,3.84047,1.046,-1,5
564,3.84152,1.053,-1,5
565,3.84259,1.062,-1,5
566,3.84364,1.055,-1,5
567,3.84468,1.041,-1,5
568,3.84573,1.046,-1,5
569,3.84679,1.056,-1,5
570,3.84784,1.057,-1,5
571,3.84888,1.041,-1,5
572,3.84992,1.035,-1,5
573,3.85097,1.046,-1,5
574,3.85202,1.053,-1,5
575,3.85306,1.044,-1,5
576,3.85409,1.031,-1,5
577,3.85513,1.033,-1,5
578,3.85617,1.044,-1,5
579,3.85721,1.045,-1,5
580,3.85824,1.030,-1,5
581,3.85927,1.031,-1,5
582,3.86134,1.040,-1,5
583,3.86237,1.030,-1,5
584,3.86338,1.016,-1,5
585,3.86440,1.019,-1,5
586,3.86543,1.031,-1,5
587,3.86646,1.027,-1,5
588,3.86747,1.012,-1,5
589,3.86848,1.007,-1,5
590,3.86949,1.015,-1,5
591,3.87052,1.024,-1,5
592,3.87153,1.016,-1,5
593,3.87253,0.998,-1,5
594,3.87353,0.999,-1,5
595,3.87454,1.013,-1,5
596,3.87556,1.013,-1,5
597,3.87656,0.999,-1,5
598,3.87754,0.988,-1,5
599,3.87854,0.995,-1,5
600,3.87955,1.009,-1,5
601,3.88055,1.002,-1,5
602,3.88153,0.982,-1,5
603,3.88251,0.977,-1,5
604,3.88350,0.990,-1,5
605,3.88450,1.002,-1,5
606,3.88548,0.986,-1,5
607,3.88645,0.968,-1,5
608,3.88742,0.967,-1,5
609,3.88840,0.985,-1,5
610,3.88939,0.968,-1,5
611,3.89131,0.953,-1,5
612,3.89227,0.962,-1,5
613,3.89325,0.980,-1,5
614,3.89423,0.976,-1,5
615,3.89518,0.954,-1,5
616,3.89612,0.940,-1,5
617,3.89708,0.952,-1,5
618,3.89805,0.971,-1,5
619,3.89901,0.962,-1,5
620,3.89995,0.941,-1,5
621,3.90088,0.931,-1,5
622,3.90183,0.950,-1,5
623,3.90279,0.962,-1,5
624,3.90374,0.951,-1,5
625,3.90467,0.928,-1,5
626,3.90559,0.919,-1,5
627,3.90653,0.942,-1,5
628,3.90749,0.952,-1,5
629,3.90843,0.940,-1,5
630,3.90934,0.918,-1,5
631,3.91026,0.913,-1,5
632,3.91119,0.934,-1,5
633,3.91213,0.943,-1,5
634,3.91306,0.923,-1,5
635,3.91396,0.903,-1,5
636,3.91579,0.924,-1,5
637,3.91672,0.931,-1,5
638,3.91763,0.912,-1,5
639,3.91852,0.890,-1,5
640,3.91941,0.894,-1,5
641,3.92033,0.915,-1,5
642,3.92125,0.916,-1,5
643,3.92214,0.894,-1,5
644,3.92302,0.878,-1,5
645,3.92390,0.887,-1,5
646,3.92481,0.905,-1,5
647,3.92571,0.902,-1,5
648,3.92659,0.883,-1,5
649,3.92746,0.871,-1,5
650,3.92834,0.879,-1,5
651,3.92924,0.891,-1,5
652,3.93012,0.886,-1,5
653,3.93099,0.871,-1,5
654,3.93186,0.865,-1,5
655,3.93273,0.876,-1,5
656,3.93361,0.881,-1,5
657,3.93449,0.874,-1,5
658,3.93535,0.863,-1,5
659,3.93708,0.866,-1,5
660,3.93794,0.865,-1,5
661,3.93880,0.859,-1,5
662,3.93966,0.859,-1,5
663,3.94053,0.863,-1,5
664,3.94139,0.861,-1,5
665,3.94224,0.851,-1,5
666,3.94309,0.847,-1,5
667,3.94394,0.854,-1,5
668,3.94480,0.857,-1,5
669,3.94565,0.850,-1,5
670,3.94649,0.840,-1,5
671,3.94733,0.840,-1,5
672,3.94818,0.852,-1,5
673,3.94903,0.854,-1,5
674,3.94988,0.844,-1,5
675,3.95071,0.834,-1,5
676,3.95155,0.836,-1,5
677,3.95239,0.846,-1,5
678,3.95324,0.846,-1,5
679,3.95408,0.838,-1,5
680,3.95491,0.833,-1,5
681,3.95575,0.840,-1,5
682,3.95659,0.844,-1,5
683,3.95743,0.840,-1,5
684,3.95827,0.835,-1,5
685,3.95911,0.837,-1,5
686,3.95994,0.839,-1,5
687,3.96078,0.839,-1,5
688,3.96162,0.836,-1,5
689,3.96330,0.844,-1,5
690,3.96414,0.846,-1,5
691,3.96498,0.839,-1,5
692,3.96582,0.833,-1,5
693,3.96665,0.837,-1,5
694,3.96750,0.847,-1,5
695,3.96834,0.846,-1,5
696,3.96918,0.836,-1,5
697,3.97001,0.833,-1,5
698,3.97085,0.841,-1,5
699,3.97170,0.849,-1,5
700,3.97255,0.847,-1,5
701,3.97339,0.839,-1,5
702,3.97423,0.837,-1,5
703,3.97507,0.842,-1,5
704,3.97591,0.845,-1,5
705,3.97676,0.844,-1,5
706,3.97760,0.842,-1,5
707,3.97844,0.844,-1,5
708,3.97929,0.846,-1,5
709,3.98098,0.846,-1,5
710,3.98183,0.848,-1,5
711,3.98268,0.852,-1,5
712,3.98353,0.850,-1,5
713,3.98438,0.847,-1,5
714,3.98522,0.846,-1,5
715,3.98608,0.853,-1,5
716,3.98694,0.860,-1,5
717,3.98779,0.857,-1,5
718,3.98864,0.849,-1,5
719,3.98950,0.853,-1,5
720,3.99036,0.860,-1,5
721,3.99122,0.866,-1,5
722,3.99208,0.862,-1,5
723,3.99294,0.855,-1,5
724,3.99380,0.858,-1,5
725,3.99466,0.866,-1,5
726,3.99553,0.871,-1,5
727,3.99640,0.868,-1,5
728,3.99727,0.864,-1,5
729,3.99900,0.870,-1,5
730,3.99987,0.871,-1,5
731,4.00075,0.872,-1,5
732,4.00162,0.873,-1,5
733,4.00249,0.873,-1,5
734,4.00337,0.875,-1,5
735,4.00424,0.876,-1,5
736,4.00512,0.880,-1,5
737,4.00601,0.883,-1,5
738,4.00689,0.880,-1,5
739,4.00776,0.877,-1,5
740,4.00864,0.880,-1,5
741,4.00953,0.888,-1,5
742,4.01043,0.897,-1,5
743,4.01132,0.893,-1,5
744,4.01221,0.888,-1,5
745,4.01310,0.889,-1,5
746,4.01400,0.898,-1,5
747,4.01490,0.906,-1,5
748,4.01581,0.903,-1,5
749,4.01671,0.898,-1,5
750,4.01761,0.901,-1,5
751,4.01852,0.910,-1,5
752,4.01944,0.921,-1,5
753,4.02036,0.919,-1,5
754,4.02127,0.909,-1,5
755,4.02218,0.923,-1,5
756,4.02403,0.928,-1,5
757,4.02496,0.929,-1,5
758,4.02589,0.927,-1,5
759,4.02681,0.924,-1,5
760,4.02775,0.937,-1,5
761,4.02869,0.940,-1,5
762,4.02963,0.941,-1,5
763,4.03057,0.938,-1,5
764,4.03150,0.935,-1,5
765,4.03245,0.944,-1,5
766,4.03340,0.952,-1,5
767,4.03436,0.959,-1,5
768,4.03531,0.954,-1,5
769,4.03626,0.950,-1,5
770,4.03721,0.955,-1,5
771,4.03818,0.966,-1,5
772,4.03915,0.971,-1,5
773,4.04012,0.965,-1,5
774,4.04108,0.962,-1,5
775,4.04205,0.971,-1,5
776,4.04304,0.986,-1,5
777,4.04402,0.988,-1,5
778,4.04598,0.976,-1,5
779,4.04696,0.984,-1,5
780,4.04796,1.002,-1,5
781,4.04897,1.003,-1,5
782,4.04996,0.995,-1,5
783,4.05096,0.993,-1,5
784,4.05196,1.005,-1,5
785,4.05298,1.022,-1,5
786,4.05400,1.019,-1,5
787,4.05501,1.005,-1,5
788,4.05601,1.005,-1,5
789,4.05704,1.027,-1,5
790,4.05808,1.042,-1,5
791,4.05911,1.032,-1,5
792,4.06013,1.020,-1,5
793,4.06115,1.022,-1,5
794,4.06220,1.047,-1,5
795,4.06326,1.057,-1,5
796,4.06430,1.045,-1,5
797,4.06533,1.032,-1,5
798,4.06638,1.044,-1,5
799,4.06745,1.070,-1,5
800,4.06852,1.073,-1,5
801,4.06958,1.046,-1,5
802,4.07062,1.068,-1,5
803,4.07169,1.091,-1,5
804,4.07387,1.086,-1,5
805,4.07493,1.065,-1,5
806,4.07600,1.066,-1,5
807,4.07709,1.092,-1,5
808,4.07820,1.091,-1,5
809,4.07929,1.091,-1,5
810,4.08037,1.076,-1,5
811,4.08146,1.091,-1,5
812,4.08257,1.117,-1,5
813,4.08369,1.116,-1,5
814,4.08479,1.098,-1,5
815,4.08588,1.092,-1,5
816,4.08699,1.114,-1,5
817,4.08812,1.128,-1,5
818,4.08924,1.121,-1,5
819,4.09035,1.109,-1,5
820,4.09147,1.118,-1,5
821,4.09260,1.133,-1,5
822,4.09374,1.134,-1,5
823,4.09486,1.123,-1,5
824,4.09712,1.137,-1,5
825,4.09826,1.142,-1,5
826,4.10054,1.137,-1,5
827,4.10168,1.142,-1,5
828,4.10283,1.144,-1,5
829,4.10397,1.147,-1,5
830,4.10512,1.152,-1,5
831,4.10628,1.153,-1,5
832,4.10743,1.150,-1,5
833,4.10858,1.148,-1,5
834,4.10973,1.156,-1,5
835,4.11090,1.164,-1,5
836,4.11205,1.159,-1,5
837,4.11320,1.151,-1,5
838,4.11436,1.154,-1,5
839,4.11553,1.168,-1,5
840,4.11669,1.167,-1,5
841,4.11785,1.156,-1,5
842,4.11900,1.155,-1,5
843,4.12017,1.165,-1,5
844,4.12134,1.173,-1,5
845,4.12251,1.166,-1,5
846,4.12367,1.159,-1,5
847,4.12483,1.163,-1,5
848,4.12600,1.170,-1,5
849,4.12717,1.167,-1,5
850,4.12833,1.167,-1,5
851,4.12950,1.170,-1,5
852,4.13184,1.166,-1,5
853,4.13301,1.167,-1,5
854,4.13418,1.171,-1,5
855,4.13535,1.172,-1,5
856,4.13652,1.168,-1,5
857,4.13769,1.168,-1,5
858,4.13886,1.175,-1,5
859,4.14004,1.174,-1,5
860,4.14120,1.166,-1,5
861,4.14237,1.163,-1,5
862,4.14354,1.172,-1,5
863,4.14471,1.176,-1,5
864,4.14589,1.171,-1,5
865,4.14705,1.166,-1,5
866,4.14822,1.170,-1,5
867,4.14939,1.171,-1,5
868,4.15056,1.168,-1,5
869,4.15173,1.166,-1,5
870,4.15290,1.173,-1,5
871,4.15407,1.174,-1,5
872,4.15524,1.168,-1,5
873,4.15641,1.165,-1,5
