cnt,pos,speed,Dir,Force,
1,3.63064,1.009,-1,5
2,3.63168,1.036,-1,5
3,3.63275,1.070,-1,5
4,3.63384,1.094,-1,5
5,3.63495,1.105,-1,5
6,3.63607,1.122,-1,5
7,3.63722,1.157,-1,5
8,3.63842,1.194,-1,5
9,3.63962,1.206,-1,5
10,3.64084,1.217,-1,5
11,3.64208,1.241,-1,5
12,3.64337,1.284,-1,5
13,3.64468,1.313,-1,5
14,3.64600,1.324,-1,5
15,3.64734,1.338,-1,5
16,3.64871,1.369,-1,5
17,3.65011,1.401,-1,5
18,3.65154,1.431,-1,5
19,3.65299,1.450,-1,5
20,3.65445,1.463,-1,5
21,3.65594,1.487,-1,5
22,3.65747,1.551,-1,5
23,3.65902,1.565,-1,5
24,3.66217,1.586,-1,5
25,3.66378,1.609,-1,5
26,3.66542,1.640,-1,5
27,3.66709,1.671,-1,5
28,3.66878,1.688,-1,5
29,3.67048,1.699,-1,5
30,3.67220,1.722,-1,5
31,3.67395,1.753,-1,5
32,3.67574,1.783,-1,5
33,3.67754,1.805,-1,5
34,3.67935,1.809,-1,5
35,3.68118,1.825,-1,5
36,3.68303,1.855,-1,5
37,3.68492,1.889,-1,5
38,3.68683,1.908,-1,5
39,3.68874,1.909,-1,5
40,3.69066,1.921,-1,5
41,3.69261,1.952,-1,5
42,3.69459,1.981,-1,5
43,3.69659,1.998,-1,5
44,3.69859,1.997,-1,5
45,3.70060,2.011,-1,5
46,3.70263,2.032,-1,5
47,3.70469,2.061,-1,5
48,3.70677,2.076,-1,5
49,3.71093,2.080,-1,5
50,3.71302,2.098,-1,5
51,3.71516,2.133,-1,5
52,3.71730,2.145,-1,5
53,3.71944,2.140,-1,5
54,3.72158,2.138,-1,5
55,3.72374,2.162,-1,5
56,3.72593,2.187,-1,5
57,3.72812,2.194,-1,5
58,3.73031,2.187,-1,5
59,3.73250,2.190,-1,5
60,3.73471,2.208,-1,5
61,3.73693,2.225,-1,5
62,3.73916,2.231,-1,5
63,3.74139,2.223,-1,5
64,3.74362,2.228,-1,5
65,3.74585,2.238,-1,5
66,3.74811,2.252,-1,5
67,3.75036,2.253,-1,5
68,3.75261,2.254,-1,5
69,3.75486,2.251,-1,5
70,3.75712,2.259,-1,5
71,3.75939,2.266,-1,5
72,3.76166,2.272,-1,5
73,3.76393,2.270,-1,5
74,3.76620,2.264,-1,5
75,3.76846,2.264,-1,5
76,3.77074,2.281,-1,5
77,3.77302,2.282,-1,5
78,3.77529,2.270,-1,5
79,3.77756,2.264,-1,5
80,3.77983,2.272,-1,5
81,3.78211,2.279,-1,5
82,3.78439,2.277,-1,5
83,3.78666,2.270,-1,5
84,3.78892,2.261,-1,5
85,3.79118,2.266,-1,5
86,3.79345,2.269,-1,5
87,3.79572,2.268,-1,5
88,3.79798,2.255,-1,5
89,3.80023,2.250,-1,5
90,3.80248,2.253,-1,5
91,3.80473,2.255,-1,5
92,3.80698,2.247,-1,5
93,3.80922,2.239,-1,5
94,3.81146,2.235,-1,5
95,3.81369,2.233,-1,5
96,3.81592,2.229,-1,5
97,3.81815,2.227,-1,5
98,3.82036,2.220,-1,5
99,3.82257,2.207,-1,5
100,3.82478,2.203,-1,5
101,3.82698,2.206,-1,5
102,3.82918,2.202,-1,5
103,3.83137,2.186,-1,5
104,3.83355,2.178,-1,5
105,3.83572,2.176,-1,5
106,3.83790,2.176,-1,5
107,3.84006,2.163,-1,5
108,3.84222,2.155,-1,5
109,3.84436,2.145,-1,5
110,3.84650,2.142,-1,5
111,3.84864,2.136,-1,5
112,3.85077,2.130,-1,5
113,3.85289,2.114,-1,5
114,3.85499,2.104,-1,5
115,3.85710,2.108,-1,5
116,3.85920,2.099,-1,5
117,3.86128,2.084,-1,5
118,3.86335,2.066,-1,5
119,3.86542,2.070,-1,5
120,3.86749,2.069,-1,5
121,3.87157,2.031,-1,5
122,3.87360,2.030,-1,5
123,3.87563,2.033,-1,5
124,3.87765,2.018,-1,5
125,3.87965,2.001,-1,5
126,3.88164,1.989,-1,5
127,3.88363,1.990,-1,5
128,3.88562,1.983,-1,5
129,3.88758,1.966,-1,5
130,3.88954,1.957,-1,5
131,3.89148,1.946,-1,5
132,3.89343,1.943,-1,5
133,3.89536,1.935,-1,5
134,3.89728,1.921,-1,5
135,3.89919,1.908,-1,5
136,3.90109,1.896,-1,5
137,3.90299,1.901,-1,5
138,3.90488,1.894,-1,5
139,3.90675,1.872,-1,5
140,3.90861,1.856,-1,5
141,3.91047,1.855,-1,5
142,3.91233,1.861,-1,5
143,3.91417,1.846,-1,5
144,3.91600,1.823,-1,5
145,3.91781,1.812,-1,5
146,3.91962,1.816,-1,5
147,3.92145,1.822,-1,5
148,3.92503,1.779,-1,5
149,3.92680,1.775,-1,5
150,3.92858,1.782,-1,5
151,3.93036,1.778,-1,5
152,3.93212,1.762,-1,5
153,3.93386,1.741,-1,5
154,3.93560,1.738,-1,5
155,3.93734,1.742,-1,5
156,3.93908,1.739,-1,5
157,3.94081,1.725,-1,5
158,3.94252,1.708,-1,5
159,3.94422,1.704,-1,5
160,3.94593,1.710,-1,5
161,3.94763,1.701,-1,5
162,3.94932,1.692,-1,5
163,3.95100,1.682,-1,5
164,3.95268,1.673,-1,5
165,3.95435,1.674,-1,5
166,3.95602,1.672,-1,5
167,3.95768,1.661,-1,5
168,3.95934,1.655,-1,5
169,3.96098,1.647,-1,5
170,3.96263,1.642,-1,5
171,3.96427,1.643,-1,5
172,3.96591,1.636,-1,5
173,3.96753,1.628,-1,5
174,3.96916,1.625,-1,5
175,3.97078,1.618,-1,5
176,3.97239,1.614,-1,5
177,3.97400,1.613,-1,5
178,3.97561,1.609,-1,5
179,3.97722,1.604,-1,5
180,3.97882,1.601,-1,5
181,3.98041,1.596,-1,5
182,3.98200,1.590,-1,5
183,3.98360,1.594,-1,5
184,3.98518,1.586,-1,5
185,3.98677,1.585,-1,5
186,3.98835,1.582,-1,5
187,3.98993,1.579,-1,5
188,3.99150,1.574,-1,5
189,3.99308,1.574,-1,5
190,3.99465,1.570,-1,5
191,3.99622,1.572,-1,5
192,3.99779,1.575,-1,5
193,3.99936,1.568,-1,5
194,4.00093,1.564,-1,5
195,4.00249,1.566,-1,5
196,4.00406,1.570,-1,5
197,4.00564,1.577,-1,5
198,4.00721,1.573,-1,5
199,4.00878,1.563,-1,5
200,4.01035,1.570,-1,5
201,4.01193,1.580,-1,5
202,4.01351,1.584,-1,5
203,4.01509,1.584,-1,5
204,4.01668,1.582,-1,5
205,4.01826,1.581,-1,5
206,4.01985,1.596,-1,5
207,4.02146,1.610,-1,5
208,4.02307,1.604,-1,5
209,4.02467,1.601,-1,5
210,4.02628,1.612,-1,5
211,4.02791,1.626,-1,5
212,4.02954,1.637,-1,5
213,4.03118,1.640,-1,5
214,4.03282,1.637,-1,5
215,4.03447,1.652,-1,5
216,4.03783,1.683,-1,5
217,4.03951,1.686,-1,5
218,4.04120,1.690,-1,5
219,4.04291,1.709,-1,5
220,4.04465,1.738,-1,5
221,4.04639,1.742,-1,5
222,4.04813,1.742,-1,5
223,4.04989,1.755,-1,5
224,4.05168,1.786,-1,5
225,4.05349,1.815,-1,5
226,4.05531,1.815,-1,5
227,4.05712,1.813,-1,5
228,4.05896,1.845,-1,5
229,4.06085,1.882,-1,5
230,4.06275,1.903,-1,5
231,4.06465,1.899,-1,5
232,4.06656,1.911,-1,5
233,4.06852,1.959,-1,5
234,4.07251,1.999,-1,5
235,4.07451,2.000,-1,5
236,4.07655,2.038,-1,5
237,4.07863,2.085,-1,5
238,4.08074,2.106,-1,5
239,4.08285,2.111,-1,5
240,4.08498,2.134,-1,5
241,4.08717,2.182,-1,5
242,4.08938,2.214,-1,5
243,4.09161,2.230,-1,5
244,4.09386,2.250,-1,5
245,4.09615,2.286,-1,5
246,4.09847,2.325,-1,5
247,4.10083,2.358,-1,5
248,4.10320,2.375,-1,5
249,4.10560,2.400,-1,5
250,4.10804,2.438,-1,5
251,4.11053,2.486,-1,5
252,4.11303,2.506,-1,5
253,4.11556,2.524,-1,5
254,4.11812,2.560,-1,5
255,4.12073,2.610,-1,5
256,4.12337,2.638,-1,5
257,4.12603,2.661,-1,5
258,4.12871,2.685,-1,5
259,4.13145,2.733,-1,5
260,4.13422,2.775,-1,5
261,4.13702,2.796,-1,5
262,4.13984,2.822,-1,5
263,4.14270,2.860,-1,5
264,4.14560,2.906,-1,5
265,4.15150,2.961,-1,5
266,4.15449,2.991,-1,5
267,4.15753,3.037,-1,5
268,4.16060,3.074,-1,5
269,4.16370,3.097,-1,5
270,4.16683,3.126,-1,5
271,4.16999,3.165,-1,5
272,4.17320,3.204,-1,5
273,4.17643,3.233,-1,5
274,4.17969,3.259,-1,5
275,4.18298,3.289,-1,5
276,4.18966,3.359,-1,5
277,4.19305,3.387,-1,5
278,4.19647,3.414,-1,5
279,4.19991,3.444,-1,5
280,4.20339,3.478,-1,5
281,4.20689,3.507,-1,5
282,4.21042,3.528,-1,5
283,4.21398,3.555,-1,5
284,4.21756,3.584,-1,5
285,4.22117,3.611,-1,5
286,4.22480,3.633,-1,5
287,4.22846,3.658,-1,5
288,4.23214,3.679,-1,5
289,4.23585,3.705,-1,5
290,4.23957,3.724,-1,5
291,4.24331,3.744,-1,5
292,4.24708,3.765,-1,5
293,4.25087,3.788,-1,5
294,4.25467,3.806,-1,5
295,4.25850,3.823,-1,5
296,4.26234,3.843,-1,5
297,4.26620,3.857,-1,5
298,4.27007,3.874,-1,5
299,4.27396,3.890,-1,5
300,4.27787,3.907,-1,5
301,4.28179,3.921,-1,5
302,4.28572,3.932,-1,5
303,4.28966,3.944,-1,5
304,4.29362,3.959,-1,5
305,4.29759,3.965,-1,5
306,4.30157,3.978,-1,5
307,4.30954,3.994,-1,5
308,4.31355,4.003,-1,5
309,4.31756,4.011,-1,5
310,4.32157,4.014,-1,5
311,4.32559,4.019,-1,5
312,4.32962,4.027,-1,5
313,4.33365,4.032,-1,5
314,4.33768,4.035,-1,5
315,4.34172,4.040,-1,5
316,4.34577,4.042,-1,5
317,4.34981,4.040,-1,5
318,4.35385,4.046,-1,5
319,4.35790,4.045,-1,5
320,4.36195,4.047,-1,5
321,4.36599,4.045,-1,5
322,4.37003,4.043,-1,5
323,4.37407,4.040,-1,5
324,4.37811,4.040,-1,5
325,4.38618,4.033,-1,5
326,4.39021,4.027,-1,5
327,4.39423,4.023,-1,5
328,4.39825,4.020,-1,5
329,4.40226,4.010,-1,5
330,4.40627,4.009,-1,5
331,4.41027,3.999,-1,5
332,4.41427,3.999,-1,5
333,4.41825,3.988,-1,5
334,4.42223,3.979,-1,5
335,4.42621,3.971,-1,5
336,4.43017,3.964,-1,5
337,4.43413,3.960,-1,5
338,4.43808,3.946,-1,5
339,4.44201,3.936,-1,5
340,4.44594,3.928,-1,5
341,4.44986,3.918,-1,5
342,4.45377,3.910,-1,5
343,4.45767,3.899,-1,5
344,4.46155,3.883,-1,5
345,4.46542,3.875,-1,5
346,4.46929,3.865,-1,5
347,4.47315,3.857,-1,5
348,4.47699,3.843,-1,5
349,4.48082,3.830,-1,5
350,4.48464,3.817,-1,5
351,4.48844,3.810,-1,5
352,4.49224,3.797,-1,5
353,4.49603,3.786,-1,5
354,4.49980,3.767,-1,5
355,4.50355,3.757,-1,5
356,4.51103,3.733,-1,5
357,4.51475,3.722,-1,5
358,4.51846,3.705,-1,5
359,4.52214,3.685,-1,5
360,4.52582,3.674,-1,5
361,4.52948,3.663,-1,5
362,4.53312,3.648,-1,5
363,4.53676,3.634,-1,5
364,4.54038,3.617,-1,5
365,4.54398,3.605,-1,5
366,4.54757,3.589,-1,5
367,4.55115,3.576,-1,5
368,4.55470,3.558,-1,5
369,4.55825,3.546,-1,5
370,4.56178,3.526,-1,5
371,4.56529,3.516,-1,5
372,4.56879,3.483,-1,5
373,4.57574,3.469,-1,5
374,4.57919,3.451,-1,5
375,4.58263,3.434,-1,5
376,4.58605,3.420,-1,5
377,4.58945,3.406,-1,5
378,4.59284,3.389,-1,5
379,4.59622,3.375,-1,5
380,4.59957,3.357,-1,5
381,4.60292,3.344,-1,5
382,4.60625,3.329,-1,5
383,4.60956,3.313,-1,5
384,4.61286,3.298,-1,5
385,4.61614,3.284,-1,5
386,4.61942,3.271,-1,5
387,4.62267,3.258,-1,5
388,4.62592,3.242,-1,5
389,4.62915,3.232,-1,5
390,4.63236,3.215,-1,5
391,4.63556,3.203,-1,5
392,4.63876,3.194,-1,5
393,4.64193,3.175,-1,5
394,4.64510,3.165,-1,5
395,4.64825,3.151,-1,5
396,4.65139,3.143,-1,5
397,4.65452,3.130,-1,5
398,4.65764,3.116,-1,5
399,4.66074,3.101,-1,5
400,4.66383,3.094,-1,5
401,4.66692,3.083,-1,5
402,4.66999,3.074,-1,5
403,4.67305,3.055,-1,5
404,4.67609,3.045,-1,5
405,4.67913,3.039,-1,5
406,4.68216,3.029,-1,5
407,4.68518,3.017,-1,5
408,4.68818,3.000,-1,5
409,4.69117,2.994,-1,5
410,4.69415,2.984,-1,5
411,4.69713,2.976,-1,5
412,4.70010,2.965,-1,5
413,4.70304,2.948,-1,5
414,4.70598,2.941,-1,5
415,4.70892,2.938,-1,5
416,4.71184,2.919,-1,5
417,4.71475,2.913,-1,5
418,4.71766,2.901,-1,5
419,4.72055,2.890,-1,5
420,4.72343,2.884,-1,5
421,4.72630,2.872,-1,5
422,4.72916,2.857,-1,5
423,4.73201,2.852,-1,5
424,4.73485,2.844,-1,5
425,4.73769,2.833,-1,5
426,4.74332,2.813,-1,5
427,4.74613,2.806,-1,5
428,4.74892,2.796,-1,5
429,4.75171,2.788,-1,5
430,4.75449,2.779,-1,5
431,4.75726,2.770,-1,5
432,4.76002,2.763,-1,5
433,4.76278,2.760,-1,5
434,4.76553,2.749,-1,5
435,4.76827,2.740,-1,5
436,4.77101,2.737,-1,5
437,4.77374,2.729,-1,5
438,4.77646,2.725,-1,5
439,4.77918,2.719,-1,5
440,4.78189,2.712,-1,5
441,4.78460,2.707,-1,5
442,4.78730,2.702,-1,5
443,4.79000,2.696,-1,5
444,4.79269,2.693,-1,5
445,4.79538,2.688,-1,5
446,4.80074,2.680,-1,5
447,4.80342,2.678,-1,5
448,4.80609,2.671,-1,5
449,4.80876,2.671,-1,5
450,4.81143,2.668,-1,5
451,4.81410,2.666,-1,5
452,4.81676,2.661,-1,5
453,4.81942,2.664,-1,5
454,4.82209,2.663,-1,5
455,4.82474,2.659,-1,5
456,4.82740,2.660,-1,5
457,4.83006,2.660,-1,5
458,4.83273,2.662,-1,5
459,4.83539,2.665,-1,5
460,4.83806,2.664,-1,5
461,4.84072,2.665,-1,5
462,4.84339,2.669,-1,5
463,4.84606,2.672,-1,5
464,4.84874,2.677,-1,5
465,4.85142,2.679,-1,5
466,4.85410,2.682,-1,5
467,4.85679,2.692,-1,5
468,4.85949,2.696,-1,5
469,4.86219,2.699,-1,5
470,4.86490,2.710,-1,5
471,4.86761,2.716,-1,5
472,4.87034,2.726,-1,5
473,4.87307,2.734,-1,5
474,4.87581,2.741,-1,5
475,4.87857,2.753,-1,5
476,4.88133,2.764,-1,5
477,4.88411,2.778,-1,5
478,4.88690,2.789,-1,5
479,4.88970,2.802,-1,5
480,4.89252,2.815,-1,5
481,4.89535,2.833,-1,5
482,4.89820,2.847,-1,5
483,4.90106,2.861,-1,5
484,4.90394,2.882,-1,5
485,4.90684,2.899,-1,5
486,4.90975,2.916,-1,5
487,4.91269,2.941,-1,5
488,4.91565,2.958,-1,5
489,4.91863,2.981,-1,5
490,4.92164,3.008,-1,5
491,4.92467,3.028,-1,5
492,4.92772,3.054,-1,5
493,4.93081,3.084,-1,5
494,4.93392,3.115,-1,5
495,4.93706,3.139,-1,5
496,4.94023,3.164,-1,5
497,4.94342,3.196,-1,5
498,4.94665,3.231,-1,5
499,4.94991,3.260,-1,5
500,4.95320,3.288,-1,5
501,4.95652,3.316,-1,5
502,4.95987,3.356,-1,5
503,4.96326,3.387,-1,5
504,4.96667,3.416,-1,5
505,4.97013,3.453,-1,5
506,4.97362,3.488,-1,5
507,4.97714,3.521,-1,5
508,4.98070,3.559,-1,5
509,4.98429,3.592,-1,5
510,4.98791,3.670,-1,5
511,4.99158,3.703,-1,5
512,4.99903,3.743,-1,5
513,5.00280,3.775,-1,5
514,5.00662,3.819,-1,5
515,5.01048,3.857,-1,5
516,5.01437,3.895,-1,5
517,5.01830,3.930,-1,5
518,5.02228,3.971,-1,5
519,5.02629,4.010,-1,5
520,5.03034,4.052,-1,5
521,5.03442,4.087,-1,5
522,5.03855,4.125,-1,5
523,5.04271,4.164,-1,5
524,5.04692,4.205,-1,5
525,5.05544,4.278,-1,5
526,5.05975,4.312,-1,5
527,5.06410,4.349,-1,5
528,5.06849,4.389,-1,5
529,5.07291,4.418,-1,5
530,5.07736,4.451,-1,5
531,5.08184,4.484,-1,5
532,5.08636,4.517,-1,5
533,5.09090,4.542,-1,5
534,5.09548,4.574,-1,5
535,5.10008,4.602,-1,5
536,5.10471,4.632,-1,5
537,5.10937,4.661,-1,5
538,5.11406,4.684,-1,5
539,5.11876,4.709,-1,5
540,5.12350,4.731,-1,5
541,5.12826,4.760,-1,5
542,5.13304,4.783,-1,5
543,5.13784,4.801,-1,5
544,5.14266,4.822,-1,5
545,5.14750,4.837,-1,5
546,5.15236,4.858,-1,5
547,5.15723,4.875,-1,5
548,5.16212,4.889,-1,5
549,5.16702,4.902,-1,5
550,5.17193,4.912,-1,5
551,5.17686,4.922,-1,5
552,5.18180,4.938,-1,5
553,5.18674,4.949,-1,5
554,5.19170,4.956,-1,5
555,5.19666,4.961,-1,5
556,5.20163,4.968,-1,5
557,5.20660,4.972,-1,5
558,5.21158,4.980,-1,5
559,5.21656,4.982,-1,5
560,5.22155,4.984,-1,5
561,5.22653,4.983,-1,5
562,5.23151,4.983,-1,5
563,5.24148,4.985,-1,5
564,5.24646,4.981,-1,5
565,5.25144,4.979,-1,5
566,5.25642,4.975,-1,5
567,5.26139,4.972,-1,5
568,5.26636,4.973,-1,5
569,5.27133,4.967,-1,5
570,5.27629,4.955,-1,5
571,5.28123,4.949,-1,5
572,5.28618,4.946,-1,5
573,5.29112,4.937,-1,5
574,5.29604,4.927,-1,5
575,5.30096,4.917,-1,5
576,5.30587,4.909,-1,5
577,5.31077,4.898,-1,5
578,5.31565,4.885,-1,5
579,5.32053,4.876,-1,5
580,5.32539,4.853,-1,5
581,5.33508,4.840,-1,5
582,5.33991,4.828,-1,5
583,5.34473,4.814,-1,5
584,5.34952,4.777,-1,5
585,5.35430,4.777,-1,5
586,5.35907,4.772,-1,5
587,5.36383,4.754,-1,5
588,5.36856,4.737,-1,5
589,5.37328,4.713,-1,5
590,5.37797,4.697,-1,5
591,5.38265,4.681,-1,5
592,5.38732,4.667,-1,5
593,5.39197,4.649,-1,5
594,5.39660,4.628,-1,5
595,5.40120,4.604,-1,5
596,5.40579,4.588,-1,5
597,5.41036,4.568,-1,5
598,5.41491,4.557,-1,5
599,5.41944,4.531,-1,5
600,5.42395,4.508,-1,5
601,5.42844,4.488,-1,5
602,5.43291,4.472,-1,5
603,5.43736,4.450,-1,5
604,5.44179,4.431,-1,5
605,5.44620,4.410,-1,5
606,5.45059,4.387,-1,5
607,5.45496,4.367,-1,5
608,5.45930,4.346,-1,5
609,5.46363,4.329,-1,5
610,5.46794,4.309,-1,5
611,5.47223,4.289,-1,5
612,5.47650,4.271,-1,5
613,5.48075,4.250,-1,5
614,5.48498,4.232,-1,5
615,5.48920,4.214,-1,5
616,5.49339,4.194,-1,5
617,5.49756,4.175,-1,5
618,5.50172,4.159,-1,5
619,5.50586,4.141,-1,5
620,5.50999,4.122,-1,5
621,5.51409,4.105,-1,5
622,5.51818,4.091,-1,5
623,5.52225,4.071,-1,5
624,5.52631,4.056,-1,5
625,5.53035,4.042,-1,5
626,5.53438,4.027,-1,5
627,5.53839,4.011,-1,5
628,5.54238,3.993,-1,5
629,5.54636,3.981,-1,5
630,5.55033,3.967,-1,5
631,5.55428,3.953,-1,5
632,5.55822,3.937,-1,5
633,5.56214,3.923,-1,5
634,5.56606,3.912,-1,5
635,5.56995,3.894,-1,5
636,5.57383,3.882,-1,5
637,5.57770,3.866,-1,5
638,5.58155,3.854,-1,5
639,5.58540,3.845,-1,5
640,5.58923,3.829,-1,5
641,5.59304,3.818,-1,5
642,5.59684,3.800,-1,5
643,5.60064,3.792,-1,5
644,5.60442,3.781,-1,5
645,5.60819,3.769,-1,5
646,5.61194,3.755,-1,5
647,5.61569,3.747,-1,5
648,5.61942,3.732,-1,5
649,5.62314,3.724,-1,5
650,5.62685,3.711,-1,5
651,5.63056,3.704,-1,5
652,5.63425,3.688,-1,5
653,5.64160,3.673,-1,5
654,5.64526,3.659,-1,5
655,5.64891,3.652,-1,5
656,5.65255,3.638,-1,5
657,5.65618,3.631,-1,5
658,5.65980,3.624,-1,5
659,5.66342,3.615,-1,5
660,5.66702,3.606,-1,5
661,5.67062,3.590,-1,5
662,5.67780,3.585,-1,5
663,5.67780,3.585,-1,5
664,5.68137,3.575,-1,5
665,5.68494,3.568,-1,5
666,5.68850,3.564,-1,5
667,5.69206,3.557,-1,5
668,5.69561,3.550,-1,5
669,5.69916,3.545,-1,5
670,5.70623,3.537,-1,5
671,5.70976,3.528,-1,5
672,5.71328,3.523,-1,5
673,5.71680,3.521,-1,5
674,5.72032,3.516,-1,5
675,5.72383,3.515,-1,5
676,5.72734,3.507,-1,5
677,5.73085,3.505,-1,5
678,5.73435,3.502,-1,5
679,5.73785,3.500,-1,5
680,5.74135,3.497,-1,5
681,5.74484,3.496,-1,5
682,5.74833,3.492,-1,5
683,5.75183,3.498,-1,5
684,5.75533,3.497,-1,5
685,5.75882,3.492,-1,5
686,5.76232,3.496,-1,5
687,5.76581,3.497,-1,5
688,5.76932,3.501,-1,5
689,5.77282,3.502,-1,5
690,5.77632,3.504,-1,5
691,5.77983,3.506,-1,5
692,5.78335,3.517,-1,5
693,5.78686,3.519,-1,5
694,5.79039,3.523,-1,5
695,5.79391,3.526,-1,5
696,5.79745,3.539,-1,5
697,5.80100,3.548,-1,5
698,5.80455,3.553,-1,5
699,5.80812,3.563,-1,5
700,5.81169,3.574,-1,5
701,5.81528,3.587,-1,5
702,5.81888,3.600,-1,5
703,5.82249,3.613,-1,5
704,5.82611,3.622,-1,5
705,5.82976,3.644,-1,5
706,5.83342,3.660,-1,5
707,5.83709,3.691,-1,5
708,5.84450,3.712,-1,5
709,5.84823,3.736,-1,5
710,5.85199,3.757,-1,5
711,5.85577,3.776,-1,5
712,5.85957,3.800,-1,5
713,5.86339,3.825,-1,5
714,5.86725,3.853,-1,5
715,5.87112,3.877,-1,5
716,5.87503,3.907,-1,5
717,5.87896,3.933,-1,5
718,5.88293,3.966,-1,5
719,5.88692,3.996,-1,5
720,5.89501,4.062,-1,5
721,5.89911,4.096,-1,5
722,5.90324,4.133,-1,5
723,5.90741,4.166,-1,5
724,5.91161,4.204,-1,5
725,5.91585,4.242,-1,5
726,5.92014,4.282,-1,5
727,5.92446,4.320,-1,5
728,5.92881,4.359,-1,5
729,5.93322,4.402,-1,5
730,5.93766,4.443,-1,5
731,5.94214,4.484,-1,5
732,5.94667,4.526,-1,5
733,5.95124,4.572,-1,5
734,5.95586,4.618,-1,5
735,5.96052,4.664,-1,5
736,5.96523,4.706,-1,5
737,5.96998,4.752,-1,5
738,5.97478,4.797,-1,5
739,5.97963,4.849,-1,5
740,5.98452,4.893,-1,5
741,5.98946,4.939,-1,5
742,5.99444,4.980,-1,5
743,5.99947,5.027,-1,5
744,6.00454,5.071,-1,5
745,6.00965,5.115,-1,5
746,6.01481,5.158,-1,5
747,6.02001,5.201,-1,5
748,6.02525,5.239,-1,5
749,6.03053,5.280,-1,5
750,6.03586,5.325,-1,5
751,6.04122,5.399,-1,5
752,6.04662,5.431,-1,5
753,6.05205,5.468,-1,5
754,6.06302,5.500,-1,5
755,6.06302,5.534,-1,5
756,6.07411,5.563,-1,5
757,6.07970,5.589,-1,5
758,6.07970,5.619,-1,5
759,6.09097,5.647,-1,5
760,6.09664,5.675,-1,5
761,6.10234,5.699,-1,5
762,6.10806,5.718,-1,5
763,6.11380,5.742,-1,5
764,6.11957,5.766,-1,5
765,6.12536,5.787,-1,5
766,6.13116,5.800,-1,5
767,6.13697,5.814,-1,5
768,6.14865,5.846,-1,5
769,6.15451,5.862,-1,5
770,6.16038,5.873,-1,5
771,6.16627,5.884,-1,5
772,6.17216,5.889,-1,5
773,6.17806,5.906,-1,5
774,6.18398,5.914,-1,5
775,6.18990,5.924,-1,5
776,6.19583,5.927,-1,5
777,6.20175,5.927,-1,5
778,6.20769,5.937,-1,5
779,6.21363,5.943,-1,5
780,6.21958,5.943,-1,5
781,6.22552,5.938,-1,5
782,6.23145,5.937,-1,5
783,6.23739,5.936,-1,5
784,6.24333,5.942,-1,5
785,6.24927,5.937,-1,5
786,6.25520,5.931,-1,5
787,6.26112,5.918,-1,5
788,6.26703,5.919,-1,5
789,6.27295,5.913,-1,5
790,6.27886,5.911,-1,5
791,6.28475,5.891,-1,5
792,6.29063,5.878,-1,5
793,6.29650,5.869,-1,5
794,6.30236,5.864,-1,5
795,6.30821,5.853,-1,5
796,6.31405,5.836,-1,5
797,6.31987,5.817,-1,5
798,6.32567,5.808,-1,5
799,6.33148,5.782,-1,5
800,6.34302,5.763,-1,5
801,6.34877,5.746,-1,5
802,6.35450,5.734,-1,5
803,6.36022,5.717,-1,5
804,6.36592,5.697,-1,5
805,6.37159,5.672,-1,5
806,6.37725,5.659,-1,5
807,6.38289,5.644,-1,5
808,6.38852,5.628,-1,5
809,6.39412,5.598,-1,5
810,6.39969,5.575,-1,5
811,6.40525,5.562,-1,5
812,6.41080,5.519,-1,5
813,6.41632,5.491,-1,5
814,6.42181,5.468,-1,5
815,6.43273,5.448,-1,5
816,6.43815,5.429,-1,5
817,6.44356,5.404,-1,5
818,6.44894,5.377,-1,5
819,6.45429,5.335,-1,5
820,6.45962,5.335,-1,5
821,6.46494,5.315,-1,5
822,6.47023,5.293,-1,5
823,6.47549,5.262,-1,5
824,6.48073,5.237,-1,5
825,6.48595,5.221,-1,5
826,6.49115,5.203,-1,5
827,6.49633,5.175,-1,5
828,6.50147,5.148,-1,5
829,6.50660,5.123,-1,5
830,6.51170,5.103,-1,5
831,6.51679,5.086,-1,5
832,6.52185,5.063,-1,5
833,6.52689,5.037,-1,5
834,6.53190,5.009,-1,5
835,6.53689,4.992,-1,5
836,6.54186,4.973,-1,5
837,6.54682,4.955,-1,5
838,6.55174,4.926,-1,5
839,6.55665,4.903,-1,5
840,6.56153,4.881,-1,5
841,6.56639,4.863,-1,5
842,6.57124,4.848,-1,5
843,6.57606,4.824,-1,5
844,6.58086,4.800,-1,5
845,6.58564,4.779,-1,5
846,6.59040,4.763,-1,5
847,6.59515,4.743,-1,5
848,6.59987,4.720,-1,5
849,6.60457,4.700,-1,5
850,6.60925,4.684,-1,5
851,6.61391,4.664,-1,5
852,6.61856,4.645,-1,5
853,6.62318,4.621,-1,5
854,6.62778,4.600,-1,5
855,6.63236,4.583,-1,5
856,6.63693,4.563,-1,5
857,6.64147,4.541,-1,5
858,6.64598,4.516,-1,5
859,6.65048,4.499,-1,5
860,6.65496,4.478,-1,5
861,6.65942,4.462,-1,5
862,6.66386,4.440,-1,5
863,6.66828,4.417,-1,5
864,6.67268,4.398,-1,5
865,6.67706,4.381,-1,5
866,6.68142,4.360,-1,5
867,6.68576,4.340,-1,5
868,6.69008,4.320,-1,5
869,6.69438,4.302,-1,5
870,6.69866,4.282,-1,5
871,6.70293,4.264,-1,5
872,6.70717,4.245,-1,5
873,6.71140,4.225,-1,5
