cnt,pos,speed,Dir,Force,
1,3.45951,1.004,-1,5
2,3.46052,1.005,-1,5
3,3.46153,1.014,-1,5
4,3.46257,1.044,-1,5
5,3.46364,1.066,-1,5
6,3.46471,1.070,-1,5
7,3.46578,1.068,-1,5
8,3.46686,1.079,-1,5
9,3.46797,1.111,-1,5
10,3.46910,1.135,-1,5
11,3.47024,1.137,-1,5
12,3.47138,1.136,-1,5
13,3.47253,1.156,-1,5
14,3.47372,1.186,-1,5
15,3.47492,1.199,-1,5
16,3.47611,1.198,-1,5
17,3.47733,1.213,-1,5
18,3.47857,1.243,-1,5
19,3.47983,1.260,-1,5
20,3.48109,1.262,-1,5
21,3.48236,1.270,-1,5
22,3.48365,1.291,-1,5
23,3.48497,1.315,-1,5
24,3.48630,1.331,-1,5
25,3.48764,1.342,-1,5
26,3.48899,1.347,-1,5
27,3.49035,1.360,-1,5
28,3.49173,1.385,-1,5
29,3.49314,1.418,-1,5
30,3.49598,1.422,-1,5
31,3.49742,1.439,-1,5
32,3.49888,1.460,-1,5
33,3.50036,1.475,-1,5
34,3.50185,1.489,-1,5
35,3.50335,1.505,-1,5
36,3.50486,1.510,-1,5
37,3.50639,1.529,-1,5
38,3.50793,1.544,-1,5
39,3.50949,1.560,-1,5
40,3.51265,1.584,-1,5
41,3.51424,1.591,-1,5
42,3.51585,1.609,-1,5
43,3.51747,1.624,-1,5
44,3.51911,1.633,-1,5
45,3.52075,1.641,-1,5
46,3.52240,1.650,-1,5
47,3.52406,1.664,-1,5
48,3.52575,1.690,-1,5
49,3.52745,1.700,-1,5
50,3.52915,1.700,-1,5
51,3.53086,1.707,-1,5
52,3.53259,1.727,-1,5
53,3.53434,1.749,-1,5
54,3.53610,1.761,-1,5
55,3.53785,1.757,-1,5
56,3.53961,1.756,-1,5
57,3.54139,1.776,-1,5
58,3.54319,1.800,-1,5
59,3.54500,1.814,-1,5
60,3.54680,1.805,-1,5
61,3.54861,1.806,-1,5
62,3.55044,1.828,-1,5
63,3.55229,1.854,-1,5
64,3.55415,1.861,-1,5
65,3.55601,1.853,-1,5
66,3.55786,1.857,-1,5
67,3.55975,1.885,-1,5
68,3.56165,1.900,-1,5
69,3.56355,1.900,-1,5
70,3.56544,1.894,-1,5
71,3.56734,1.897,-1,5
72,3.56925,1.914,-1,5
73,3.57118,1.928,-1,5
74,3.57312,1.938,-1,5
75,3.57506,1.936,-1,5
76,3.57699,1.938,-1,5
77,3.57895,1.951,-1,5
78,3.58092,1.969,-1,5
79,3.58290,1.973,-1,5
80,3.58684,1.970,-1,5
81,3.58882,1.982,-1,5
82,3.59083,2.007,-1,5
83,3.59284,2.014,-1,5
84,3.59484,1.998,-1,5
85,3.59684,1.995,-1,5
86,3.59885,2.012,-1,5
87,3.60088,2.034,-1,5
88,3.60291,2.031,-1,5
89,3.60493,2.019,-1,5
90,3.60695,2.019,-1,5
91,3.60898,2.048,-1,5
92,3.61307,2.044,-1,5
93,3.61511,2.035,-1,5
94,3.61714,2.031,-1,5
95,3.61918,2.043,-1,5
96,3.62125,2.063,-1,5
97,3.62330,2.056,-1,5
98,3.62534,2.039,-1,5
99,3.62738,2.034,-1,5
100,3.62943,2.054,-1,5
101,3.63150,2.068,-1,5
102,3.63355,2.048,-1,5
103,3.63558,2.032,-1,5
104,3.63761,2.035,-1,5
105,3.63967,2.055,-1,5
106,3.64173,2.058,-1,5
107,3.64377,2.039,-1,5
108,3.64579,2.028,-1,5
109,3.64782,2.030,-1,5
110,3.64986,2.040,-1,5
111,3.65190,2.038,-1,5
112,3.65393,2.027,-1,5
113,3.65594,2.010,-1,5
114,3.65796,2.016,-1,5
115,3.65998,2.023,-1,5
116,3.66200,2.022,-1,5
117,3.66401,2.009,-1,5
118,3.66600,1.992,-1,5
119,3.66800,1.995,-1,5
120,3.67000,2.000,-1,5
121,3.67200,2.000,-1,5
122,3.67398,1.981,-1,5
123,3.67595,1.972,-1,5
124,3.67792,1.973,-1,5
125,3.67989,1.972,-1,5
126,3.68186,1.967,-1,5
127,3.68382,1.956,-1,5
128,3.68577,1.952,-1,5
129,3.68771,1.945,-1,5
130,3.68965,1.939,-1,5
131,3.69353,1.932,-1,5
132,3.69545,1.923,-1,5
133,3.69736,1.914,-1,5
134,3.69927,1.910,-1,5
135,3.70119,1.915,-1,5
136,3.70309,1.904,-1,5
137,3.70499,1.896,-1,5
138,3.70688,1.892,-1,5
139,3.70877,1.888,-1,5
140,3.71065,1.882,-1,5
141,3.71252,1.870,-1,5
142,3.71439,1.874,-1,5
143,3.71627,1.874,-1,5
144,3.71813,1.863,-1,5
145,3.71998,1.854,-1,5
146,3.72184,1.852,-1,5
147,3.72370,1.862,-1,5
148,3.72924,1.838,-1,5
149,3.73108,1.842,-1,5
150,3.73293,1.851,-1,5
151,3.73478,1.849,-1,5
152,3.73661,1.832,-1,5
153,3.73844,1.828,-1,5
154,3.74027,1.834,-1,5
155,3.74212,1.843,-1,5
156,3.74396,1.843,-1,5
157,3.74579,1.833,-1,5
158,3.74762,1.828,-1,5
159,3.74945,1.833,-1,5
160,3.75130,1.844,-1,5
161,3.75314,1.848,-1,5
162,3.75499,1.841,-1,5
163,3.75682,1.835,-1,5
164,3.75866,1.835,-1,5
165,3.76051,1.851,-1,5
166,3.76237,1.864,-1,5
167,3.76422,1.850,-1,5
168,3.76606,1.840,-1,5
169,3.76791,1.848,-1,5
170,3.76977,1.865,-1,5
171,3.77165,1.876,-1,5
172,3.77351,1.859,-1,5
173,3.77536,1.849,-1,5
174,3.77722,1.860,-1,5
175,3.77910,1.883,-1,5
176,3.78099,1.887,-1,5
177,3.78286,1.870,-1,5
178,3.78472,1.864,-1,5
179,3.78661,1.884,-1,5
180,3.78851,1.900,-1,5
181,3.79041,1.899,-1,5
182,3.79229,1.884,-1,5
183,3.79418,1.887,-1,5
184,3.79608,1.905,-1,5
185,3.79799,1.913,-1,5
186,3.79991,1.913,-1,5
187,3.80181,1.904,-1,5
188,3.80372,1.910,-1,5
189,3.80564,1.921,-1,5
190,3.80757,1.931,-1,5
191,3.80951,1.934,-1,5
192,3.81144,1.929,-1,5
193,3.81337,1.930,-1,5
194,3.81531,1.941,-1,5
195,3.81726,1.956,-1,5
196,3.81922,1.962,-1,5
197,3.82118,1.951,-1,5
198,3.82313,1.953,-1,5
199,3.82509,1.988,-1,5
200,3.82907,1.989,-1,5
201,3.83105,1.975,-1,5
202,3.83105,1.984,-1,5
203,3.83503,2.005,-1,5
204,3.83706,2.021,-1,5
205,3.83907,2.017,-1,5
206,3.84109,2.014,-1,5
207,3.84311,2.025,-1,5
208,3.84516,2.046,-1,5
209,3.84722,2.058,-1,5
210,3.84927,2.057,-1,5
211,3.85133,2.060,-1,5
212,3.85340,2.069,-1,5
213,3.85549,2.093,-1,5
214,3.85761,2.111,-1,5
215,3.85971,2.105,-1,5
216,3.86394,2.125,-1,5
217,3.86610,2.156,-1,5
218,3.86826,2.159,-1,5
219,3.87042,2.159,-1,5
220,3.87259,2.165,-1,5
221,3.87478,2.198,-1,5
222,3.87701,2.222,-1,5
223,3.87923,2.223,-1,5
224,3.88145,2.225,-1,5
225,3.88370,2.244,-1,5
226,3.88597,2.276,-1,5
227,3.88827,2.292,-1,5
228,3.89057,2.298,-1,5
229,3.89287,2.306,-1,5
230,3.89520,2.332,-1,5
231,3.89756,2.361,-1,5
232,3.89994,2.379,-1,5
233,3.90233,2.385,-1,5
234,3.90473,2.403,-1,5
235,3.90716,2.432,-1,5
236,3.90962,2.457,-1,5
237,3.91210,2.478,-1,5
238,3.91459,2.494,-1,5
239,3.91711,2.513,-1,5
240,3.91965,2.541,-1,5
241,3.92222,2.575,-1,5
242,3.92482,2.593,-1,5
243,3.92743,2.612,-1,5
244,3.93007,2.639,-1,5
245,3.93274,2.675,-1,5
246,3.93544,2.699,-1,5
247,3.93816,2.723,-1,5
248,3.94091,2.750,-1,5
249,3.94369,2.782,-1,5
250,3.94651,2.816,-1,5
251,3.94936,2.844,-1,5
252,3.95223,2.873,-1,5
253,3.95513,2.904,-1,5
254,3.95807,2.937,-1,5
255,3.96104,2.975,-1,5
256,3.96709,3.035,-1,5
257,3.97016,3.074,-1,5
258,3.97328,3.114,-1,5
259,3.97643,3.150,-1,5
260,3.97961,3.185,-1,5
261,3.98283,3.215,-1,5
262,3.98608,3.258,-1,5
263,3.98939,3.302,-1,5
264,3.99272,3.337,-1,5
265,3.99609,3.366,-1,5
266,3.99950,3.412,-1,5
267,4.00295,3.490,-1,5
268,4.00997,3.525,-1,5
269,4.01352,3.558,-1,5
270,4.01352,3.596,-1,5
271,4.02076,3.636,-1,5
272,4.02443,3.670,-1,5
273,4.03186,3.731,-1,5
274,4.03562,3.764,-1,5
275,4.03942,3.797,-1,5
276,4.04324,3.822,-1,5
277,4.04709,3.852,-1,5
278,4.05097,3.879,-1,5
279,4.05488,3.907,-1,5
280,4.05881,3.931,-1,5
281,4.06276,3.954,-1,5
282,4.06673,3.973,-1,5
283,4.07073,3.997,-1,5
284,4.07475,4.019,-1,5
285,4.07879,4.036,-1,5
286,4.08283,4.048,-1,5
287,4.08690,4.069,-1,5
288,4.09099,4.085,-1,5
289,4.09509,4.098,-1,5
290,4.09919,4.103,-1,5
291,4.10331,4.118,-1,5
292,4.10744,4.128,-1,5
293,4.11157,4.136,-1,5
294,4.11571,4.143,-1,5
295,4.11986,4.149,-1,5
296,4.12402,4.153,-1,5
297,4.12817,4.155,-1,5
298,4.13233,4.162,-1,5
299,4.13649,4.161,-1,5
300,4.14066,4.163,-1,5
301,4.14482,4.162,-1,5
302,4.14898,4.163,-1,5
303,4.15314,4.160,-1,5
304,4.15730,4.157,-1,5
305,4.16145,4.152,-1,5
306,4.16560,4.150,-1,5
307,4.16975,4.145,-1,5
308,4.17389,4.141,-1,5
309,4.17802,4.132,-1,5
310,4.18214,4.125,-1,5
311,4.18626,4.120,-1,5
312,4.19038,4.104,-1,5
313,4.19858,4.096,-1,5
314,4.20267,4.090,-1,5
315,4.20675,4.079,-1,5
316,4.21082,4.072,-1,5
317,4.21488,4.058,-1,5
318,4.21893,4.048,-1,5
319,4.22297,4.039,-1,5
320,4.22699,4.025,-1,5
321,4.23100,4.013,-1,5
322,4.23501,4.003,-1,5
323,4.23899,3.987,-1,5
324,4.24296,3.969,-1,5
325,4.25086,3.941,-1,5
326,4.25479,3.929,-1,5
327,4.25871,3.916,-1,5
328,4.26260,3.899,-1,5
329,4.26648,3.880,-1,5
330,4.27035,3.865,-1,5
331,4.27420,3.849,-1,5
332,4.27803,3.834,-1,5
333,4.28185,3.819,-1,5
334,4.28565,3.802,-1,5
335,4.28943,3.780,-1,5
336,4.29320,3.763,-1,5
337,4.29694,3.745,-1,5
338,4.30067,3.726,-1,5
339,4.30437,3.708,-1,5
340,4.30806,3.687,-1,5
341,4.31173,3.667,-1,5
342,4.31538,3.650,-1,5
343,4.31901,3.630,-1,5
344,4.32262,3.609,-1,5
345,4.32620,3.584,-1,5
346,4.32977,3.566,-1,5
347,4.33331,3.547,-1,5
348,4.33684,3.525,-1,5
349,4.34034,3.507,-1,5
350,4.34383,3.483,-1,5
351,4.34729,3.463,-1,5
352,4.35073,3.441,-1,5
353,4.35415,3.420,-1,5
354,4.35755,3.397,-1,5
355,4.36093,3.380,-1,5
356,4.36428,3.354,-1,5
357,4.36762,3.333,-1,5
358,4.37093,3.314,-1,5
359,4.37422,3.291,-1,5
360,4.37749,3.268,-1,5
361,4.38073,3.243,-1,5
362,4.38396,3.227,-1,5
363,4.39035,3.184,-1,5
364,4.39351,3.162,-1,5
365,4.39665,3.141,-1,5
366,4.39977,3.120,-1,5
367,4.40288,3.106,-1,5
368,4.40596,3.084,-1,5
369,4.40903,3.067,-1,5
370,4.41208,3.048,-1,5
371,4.41511,3.033,-1,5
372,4.41812,3.014,-1,5
373,4.42112,2.994,-1,5
374,4.42410,2.969,-1,5
375,4.43002,2.951,-1,5
376,4.43296,2.937,-1,5
377,4.43588,2.922,-1,5
378,4.43878,2.905,-1,5
379,4.44168,2.896,-1,5
380,4.44456,2.883,-1,5
381,4.44743,2.871,-1,5
382,4.45029,2.856,-1,5
383,4.45314,2.849,-1,5
384,4.45598,2.840,-1,5
385,4.45881,2.831,-1,5
386,4.46163,2.823,-1,5
387,4.46445,2.818,-1,5
388,4.46725,2.805,-1,5
389,4.47006,2.807,-1,5
390,4.47286,2.802,-1,5
391,4.47566,2.795,-1,5
392,4.47845,2.796,-1,5
393,4.48125,2.795,-1,5
394,4.48404,2.792,-1,5
395,4.48683,2.791,-1,5
396,4.48962,2.794,-1,5
397,4.49242,2.794,-1,5
398,4.49521,2.795,-1,5
399,4.49801,2.794,-1,5
400,4.50080,2.797,-1,5
401,4.50360,2.799,-1,5
402,4.50641,2.807,-1,5
403,4.50922,2.811,-1,5
404,4.51204,2.818,-1,5
405,4.51486,2.818,-1,5
406,4.51768,2.826,-1,5
407,4.52052,2.838,-1,5
408,4.52337,2.846,-1,5
409,4.52622,2.853,-1,5
410,4.52908,2.863,-1,5
411,4.53196,2.871,-1,5
412,4.53484,2.882,-1,5
413,4.53773,2.894,-1,5
414,4.54063,2.902,-1,5
415,4.54647,2.921,-1,5
416,4.54940,2.934,-1,5
417,4.55234,2.943,-1,5
418,4.55530,2.957,-1,5
419,4.55827,2.967,-1,5
420,4.56125,2.977,-1,5
421,4.56424,2.990,-1,5
422,4.56724,3.002,-1,5
423,4.57025,3.016,-1,5
424,4.57328,3.032,-1,5
425,4.57632,3.039,-1,5
426,4.57937,3.047,-1,5
427,4.58552,3.079,-1,5
428,4.58861,3.093,-1,5
429,4.59171,3.103,-1,5
430,4.59483,3.119,-1,5
431,4.59796,3.148,-1,5
432,4.60427,3.162,-1,5
433,4.60744,3.172,-1,5
434,4.61063,3.186,-1,5
435,4.61383,3.201,-1,5
436,4.61704,3.215,-1,5
437,4.62027,3.230,-1,5
438,4.62352,3.242,-1,5
439,4.62677,3.253,-1,5
440,4.63004,3.269,-1,5
441,4.63332,3.280,-1,5
442,4.63661,3.295,-1,5
443,4.63992,3.304,-1,5
444,4.64323,3.317,-1,5
445,4.64656,3.326,-1,5
446,4.64990,3.339,-1,5
447,4.65325,3.349,-1,5
448,4.65660,3.359,-1,5
449,4.65997,3.369,-1,5
450,4.66335,3.379,-1,5
451,4.66674,3.389,-1,5
452,4.67014,3.401,-1,5
453,4.67355,3.410,-1,5
454,4.67697,3.420,-1,5
455,4.68040,3.429,-1,5
456,4.68384,3.439,-1,5
457,4.68729,3.451,-1,5
458,4.69075,3.458,-1,5
459,4.69421,3.466,-1,5
460,4.69769,3.476,-1,5
461,4.70118,3.490,-1,5
462,4.70467,3.492,-1,5
463,4.70817,3.503,-1,5
464,4.71169,3.510,-1,5
465,4.71521,3.522,-1,5
466,4.71873,3.527,-1,5
467,4.72227,3.535,-1,5
468,4.72936,3.550,-1,5
469,4.73292,3.559,-1,5
470,4.73648,3.565,-1,5
471,4.74006,3.573,-1,5
472,4.74364,3.580,-1,5
473,4.74722,3.588,-1,5
474,4.75082,3.595,-1,5
475,4.75443,3.607,-1,5
476,4.75804,3.610,-1,5
477,4.76166,3.622,-1,5
478,4.76529,3.631,-1,5
479,4.76893,3.642,-1,5
480,4.77258,3.650,-1,5
481,4.77991,3.669,-1,5
482,4.78359,3.683,-1,5
483,4.78729,3.693,-1,5
484,4.79099,3.701,-1,5
485,4.79470,3.712,-1,5
486,4.79842,3.722,-1,5
487,4.80216,3.736,-1,5
488,4.80590,3.744,-1,5
489,4.80966,3.754,-1,5
490,4.81342,3.763,-1,5
491,4.81720,3.777,-1,5
492,4.82098,3.788,-1,5
493,4.82478,3.797,-1,5
494,4.82859,3.809,-1,5
495,4.83241,3.823,-1,5
496,4.83625,3.834,-1,5
497,4.84010,3.849,-1,5
498,4.84396,3.858,-1,5
499,4.84783,3.873,-1,5
500,4.85171,3.885,-1,5
501,4.85562,3.902,-1,5
502,4.85953,3.913,-1,5
503,4.86345,3.926,-1,5
504,4.86740,3.944,-1,5
505,4.87136,3.960,-1,5
506,4.87533,3.976,-1,5
507,4.87932,3.989,-1,5
508,4.88333,4.006,-1,5
509,4.88735,4.022,-1,5
510,4.89139,4.041,-1,5
511,4.89545,4.057,-1,5
512,4.89953,4.076,-1,5
513,4.90362,4.094,-1,5
514,4.90774,4.116,-1,5
515,4.91187,4.133,-1,5
516,4.91602,4.150,-1,5
517,4.92018,4.167,-1,5
518,4.92437,4.187,-1,5
519,4.92858,4.208,-1,5
520,4.93281,4.228,-1,5
521,4.93705,4.244,-1,5
522,4.94131,4.260,-1,5
523,4.94559,4.279,-1,5
524,4.94989,4.296,-1,5
525,4.95420,4.316,-1,5
526,4.95854,4.333,-1,5
527,4.96288,4.348,-1,5
528,4.96725,4.364,-1,5
529,4.97163,4.383,-1,5
530,4.97603,4.414,-1,5
531,4.98487,4.425,-1,5
532,4.98931,4.443,-1,5
533,4.99376,4.453,-1,5
534,4.99823,4.465,-1,5
535,5.00270,4.476,-1,5
536,5.00719,4.486,-1,5
537,5.01168,4.493,-1,5
538,5.01618,4.502,-1,5
539,5.02069,4.510,-1,5
540,5.02521,4.514,-1,5
541,5.02973,4.524,-1,5
542,5.03426,4.534,-1,5
543,5.04333,4.536,-1,5
544,5.04787,4.543,-1,5
545,5.05242,4.547,-1,5
546,5.05697,4.548,-1,5
547,5.06152,4.549,-1,5
548,5.06607,4.549,-1,5
549,5.07062,4.550,-1,5
550,5.07516,4.550,-1,5
551,5.07972,4.551,-1,5
552,5.08426,4.546,-1,5
553,5.08881,4.546,-1,5
554,5.09335,4.542,-1,5
555,5.09789,4.536,-1,5
556,5.10242,4.533,-1,5
557,5.10695,4.532,-1,5
558,5.11148,4.527,-1,5
559,5.11600,4.519,-1,5
560,5.12051,4.510,-1,5
561,5.12502,4.508,-1,5
562,5.12952,4.501,-1,5
563,5.13401,4.496,-1,5
564,5.13850,4.486,-1,5
565,5.14298,4.478,-1,5
566,5.14744,4.465,-1,5
567,5.15190,4.458,-1,5
568,5.15635,4.448,-1,5
569,5.16079,4.437,-1,5
570,5.16521,4.428,-1,5
571,5.16963,4.415,-1,5
572,5.17403,4.403,-1,5
573,5.17842,4.391,-1,5
574,5.18281,4.383,-1,5
575,5.18718,4.370,-1,5
576,5.19154,4.360,-1,5
577,5.19588,4.344,-1,5
578,5.20021,4.330,-1,5
579,5.20453,4.319,-1,5
580,5.20884,4.307,-1,5
581,5.21313,4.278,-1,5
582,5.22167,4.263,-1,5
583,5.22591,4.245,-1,5
584,5.23015,4.235,-1,5
585,5.23437,4.222,-1,5
586,5.23857,4.202,-1,5
587,5.24276,4.187,-1,5
588,5.24694,4.176,-1,5
589,5.25110,4.160,-1,5
590,5.25524,4.145,-1,5
591,5.25937,4.128,-1,5
592,5.26349,4.116,-1,5
593,5.26759,4.100,-1,5
594,5.27167,4.087,-1,5
595,5.27574,4.067,-1,5
596,5.27979,4.054,-1,5
597,5.28383,4.041,-1,5
598,5.28786,4.024,-1,5
599,5.29586,3.989,-1,5
600,5.29983,3.979,-1,5
601,5.30380,3.964,-1,5
602,5.30775,3.949,-1,5
603,5.31168,3.932,-1,5
604,5.31559,3.915,-1,5
605,5.31950,3.904,-1,5
606,5.32339,3.892,-1,5
607,5.32727,3.879,-1,5
608,5.33114,3.866,-1,5
609,5.33499,3.852,-1,5
610,5.33883,3.842,-1,5
611,5.34266,3.828,-1,5
612,5.34648,3.819,-1,5
613,5.35028,3.802,-1,5
614,5.35407,3.790,-1,5
615,5.35785,3.782,-1,5
616,5.36163,3.773,-1,5
617,5.36538,3.759,-1,5
618,5.36913,3.746,-1,5
619,5.37287,3.735,-1,5
620,5.37660,3.730,-1,5
621,5.38031,3.718,-1,5
622,5.38403,3.712,-1,5
623,5.38772,3.699,-1,5
624,5.39141,3.690,-1,5
625,5.39510,3.681,-1,5
626,5.39877,3.674,-1,5
627,5.40244,3.668,-1,5
628,5.40610,3.660,-1,5
629,5.40974,3.648,-1,5
630,5.41339,3.642,-1,5
631,5.41702,3.638,-1,5
632,5.42066,3.631,-1,5
633,5.42428,3.623,-1,5
634,5.42789,3.614,-1,5
635,5.43150,3.610,-1,5
636,5.43511,3.604,-1,5
637,5.44230,3.595,-1,5
638,5.44589,3.586,-1,5
639,5.44947,3.581,-1,5
640,5.45304,3.577,-1,5
641,5.45662,3.574,-1,5
642,5.46019,3.570,-1,5
643,5.46375,3.565,-1,5
644,5.46731,3.561,-1,5
645,5.47088,3.564,-1,5
646,5.47800,3.558,-1,5
647,5.48155,3.554,-1,5
648,5.48510,3.559,-1,5
649,5.49222,3.558,-1,5
650,5.49577,3.551,-1,5
651,5.49933,3.554,-1,5
652,5.50289,3.560,-1,5
653,5.50645,3.562,-1,5
654,5.51001,3.563,-1,5
655,5.51357,3.562,-1,5
656,5.51714,3.571,-1,5
657,5.52072,3.576,-1,5
658,5.52430,3.580,-1,5
659,5.52788,3.583,-1,5
660,5.53147,3.589,-1,5
661,5.53507,3.597,-1,5
662,5.53867,3.605,-1,5
663,5.54229,3.611,-1,5
664,5.54590,3.618,-1,5
665,5.54953,3.630,-1,5
666,5.55318,3.643,-1,5
667,5.55683,3.653,-1,5
668,5.56049,3.658,-1,5
669,5.56416,3.674,-1,5
670,5.56785,3.688,-1,5
671,5.57155,3.703,-1,5
672,5.57527,3.713,-1,5
673,5.57899,3.728,-1,5
674,5.58274,3.745,-1,5
675,5.58650,3.762,-1,5
676,5.59028,3.779,-1,5
677,5.59407,3.794,-1,5
678,5.59789,3.811,-1,5
679,5.60172,3.834,-1,5
680,5.60557,3.852,-1,5
681,5.60944,3.872,-1,5
682,5.61334,3.896,-1,5
683,5.61726,3.919,-1,5
684,5.62120,3.942,-1,5
685,5.62516,3.961,-1,5
686,5.62915,3.989,-1,5
687,5.63316,4.012,-1,5
688,5.63720,4.064,-1,5
689,5.64536,4.091,-1,5
690,5.64948,4.119,-1,5
691,5.65362,4.146,-1,5
692,5.65780,4.176,-1,5
693,5.66201,4.209,-1,5
694,5.66625,4.238,-1,5
695,5.67052,4.271,-1,5
696,5.67482,4.301,-1,5
697,5.67915,4.334,-1,5
698,5.68352,4.371,-1,5
699,5.68793,4.409,-1,5
700,5.69237,4.440,-1,5
701,5.69685,4.475,-1,5
702,5.70136,4.552,-1,5
703,5.70591,4.586,-1,5
704,5.71050,4.624,-1,5
705,5.71978,4.661,-1,5
706,5.72448,4.700,-1,5
707,5.72922,4.737,-1,5
708,5.73399,4.772,-1,5
709,5.73880,4.812,-1,5
710,5.74365,4.847,-1,5
711,5.74854,4.889,-1,5
712,5.75347,4.926,-1,5
713,5.75842,4.959,-1,5
714,5.76342,4.998,-1,5
715,5.76846,5.035,-1,5
716,5.77353,5.069,-1,5
717,5.77863,5.101,-1,5
718,5.78377,5.138,-1,5
719,5.78893,5.169,-1,5
720,5.79414,5.205,-1,5
721,5.79937,5.233,-1,5
722,5.80464,5.266,-1,5
723,5.80993,5.296,-1,5
724,5.81526,5.329,-1,5
725,5.82062,5.354,-1,5
726,5.82600,5.381,-1,5
727,5.83141,5.408,-1,5
728,5.83684,5.436,-1,5
729,5.84230,5.457,-1,5
730,5.84778,5.477,-1,5
731,5.85328,5.500,-1,5
732,5.85880,5.521,-1,5
733,5.86433,5.537,-1,5
734,5.86989,5.554,-1,5
735,5.87546,5.573,-1,5
736,5.88104,5.583,-1,5
737,5.88664,5.599,-1,5
738,5.89225,5.610,-1,5
739,5.89788,5.627,-1,5
740,5.90352,5.635,-1,5
741,5.90916,5.649,-1,5
742,5.91481,5.649,-1,5
743,5.92047,5.659,-1,5
744,5.92614,5.664,-1,5
745,5.93181,5.673,-1,5
746,5.93748,5.674,-1,5
747,5.94316,5.677,-1,5
748,5.95450,5.674,-1,5
749,5.96018,5.681,-1,5
750,5.96586,5.675,-1,5
751,5.97153,5.670,-1,5
752,5.97719,5.663,-1,5
753,5.98286,5.666,-1,5
754,5.98852,5.662,-1,5
755,5.99417,5.655,-1,5
756,5.99981,5.641,-1,5
757,6.00544,5.629,-1,5
758,6.01106,5.621,-1,5
759,6.01668,5.603,-1,5
760,6.02787,5.589,-1,5
761,6.03344,5.570,-1,5
762,6.04455,5.554,-1,5
763,6.05009,5.539,-1,5
764,6.05560,5.513,-1,5
765,6.06109,5.490,-1,5
766,6.06658,5.484,-1,5
767,6.07204,5.466,-1,5
768,6.07749,5.445,-1,5
769,6.08291,5.419,-1,5
770,6.08830,5.397,-1,5
771,6.09368,5.379,-1,5
772,6.09905,5.365,-1,5
773,6.10439,5.342,-1,5
774,6.10970,5.313,-1,5
775,6.11499,5.290,-1,5
776,6.12027,5.271,-1,5
777,6.12552,5.249,-1,5
778,6.13074,5.226,-1,5
779,6.13594,5.202,-1,5
780,6.14112,5.178,-1,5
781,6.14627,5.152,-1,5
782,6.15141,5.133,-1,5
783,6.15652,5.113,-1,5
784,6.16160,5.085,-1,5
785,6.16666,5.061,-1,5
786,6.17170,5.039,-1,5
787,6.17672,5.020,-1,5
788,6.18172,4.998,-1,5
789,6.18670,4.978,-1,5
790,6.19165,4.951,-1,5
791,6.19658,4.928,-1,5
792,6.20148,4.904,-1,5
793,6.20637,4.885,-1,5
794,6.21123,4.868,-1,5
795,6.21608,4.843,-1,5
796,6.22089,4.788,-1,5
797,6.23045,4.770,-1,5
798,6.23520,4.752,-1,5
799,6.23993,4.730,-1,5
800,6.24463,4.704,-1,5
801,6.24931,4.679,-1,5
802,6.25397,4.657,-1,5
803,6.25861,4.640,-1,5
804,6.26323,4.622,-1,5
805,6.26783,4.598,-1,5
806,6.27240,4.571,-1,5
807,6.27695,4.549,-1,5
808,6.28148,4.528,-1,5
809,6.28598,4.488,-1,5
810,6.29493,4.464,-1,5
811,6.29937,4.436,-1,5
812,6.30378,4.414,-1,5
813,6.30818,4.396,-1,5
814,6.31255,4.372,-1,5
815,6.31691,4.353,-1,5
816,6.32124,4.332,-1,5
817,6.32555,4.315,-1,5
818,6.32985,4.293,-1,5
819,6.33412,4.277,-1,5
820,6.33838,4.256,-1,5
821,6.34262,4.243,-1,5
822,6.34684,4.225,-1,5
823,6.35105,4.206,-1,5
824,6.35524,4.188,-1,5
825,6.35941,4.169,-1,5
826,6.36356,4.155,-1,5
827,6.36770,4.141,-1,5
828,6.37182,4.120,-1,5
829,6.37593,4.104,-1,5
830,6.38002,4.092,-1,5
831,6.38409,4.075,-1,5
832,6.38815,4.059,-1,5
833,6.39220,4.042,-1,5
834,6.39623,4.031,-1,5
835,6.40024,4.014,-1,5
836,6.40425,4.008,-1,5
837,6.40824,3.988,-1,5
838,6.41222,3.982,-1,5
839,6.41619,3.969,-1,5
840,6.42015,3.961,-1,5
841,6.42410,3.951,-1,5
842,6.42804,3.941,-1,5
843,6.43198,3.936,-1,5
844,6.43591,3.933,-1,5
845,6.43983,3.923,-1,5
846,6.44766,3.913,-1,5
847,6.45158,3.913,-1,5
848,6.45549,3.909,-1,5
849,6.45939,3.908,-1,5
850,6.46330,3.907,-1,5
851,6.46721,3.907,-1,5
852,6.47112,3.907,-1,5
853,6.47502,3.907,-1,5
854,6.47893,3.910,-1,5
855,6.48285,3.914,-1,5
856,6.48676,3.916,-1,5
857,6.49068,3.922,-1,5
858,6.49461,3.924,-1,5
859,6.49854,3.933,-1,5
860,6.50248,3.940,-1,5
861,6.50643,3.948,-1,5
862,6.51038,3.955,-1,5
863,6.51435,3.967,-1,5
864,6.52231,3.987,-1,5
865,6.52631,4.001,-1,5
866,6.53033,4.012,-1,5
867,6.53435,4.027,-1,5
868,6.53840,4.041,-1,5
869,6.54245,4.052,-1,5
870,6.54652,4.072,-1,5
871,6.55060,4.086,-1,5
872,6.55471,4.103,-1,5
873,6.55882,4.114,-1,5
