cnt,pos,speed,Dir,Force,
1,3.91957,1.006,-1,5
2,3.92060,1.032,-1,5
3,3.92165,1.048,-1,5
4,3.92272,1.068,-1,5
5,3.92382,1.101,-1,5
6,3.92496,1.139,-1,5
7,3.92613,1.167,-1,5
8,3.92731,1.177,-1,5
9,3.92850,1.198,-1,5
10,3.92974,1.237,-1,5
11,3.93102,1.275,-1,5
12,3.93231,1.291,-1,5
13,3.93361,1.306,-1,5
14,3.93495,1.339,-1,5
15,3.93633,1.381,-1,5
16,3.93774,1.404,-1,5
17,3.93916,1.421,-1,5
18,3.94060,1.445,-1,5
19,3.94208,1.482,-1,5
20,3.94360,1.516,-1,5
21,3.94671,1.561,-1,5
22,3.94829,1.584,-1,5
23,3.94992,1.627,-1,5
24,3.95158,1.663,-1,5
25,3.95326,1.683,-1,5
26,3.95496,1.700,-1,5
27,3.95670,1.732,-1,5
28,3.95847,1.771,-1,5
29,3.96027,1.807,-1,5
30,3.96210,1.822,-1,5
31,3.96394,1.843,-1,5
32,3.96581,1.873,-1,5
33,3.96773,1.915,-1,5
34,3.96967,1.948,-1,5
35,3.97163,1.960,-1,5
36,3.97362,1.981,-1,5
37,3.97563,2.015,-1,5
38,3.97769,2.060,-1,5
39,3.97977,2.083,-1,5
40,3.98187,2.096,-1,5
41,3.98399,2.121,-1,5
42,3.98615,2.161,-1,5
43,3.98835,2.198,-1,5
44,3.99056,2.214,-1,5
45,3.99280,2.233,-1,5
46,3.99506,2.260,-1,5
47,3.99736,2.302,-1,5
48,3.99969,2.327,-1,5
49,4.00203,2.346,-1,5
50,4.00439,2.360,-1,5
51,4.00679,2.402,-1,5
52,4.00923,2.437,-1,5
53,4.01168,2.451,-1,5
54,4.01665,2.501,-1,5
55,4.01918,2.532,-1,5
56,4.02173,2.552,-1,5
57,4.02430,2.569,-1,5
58,4.02690,2.595,-1,5
59,4.02952,2.620,-1,5
60,4.03217,2.651,-1,5
61,4.03483,2.664,-1,5
62,4.03751,2.681,-1,5
63,4.04023,2.712,-1,5
64,4.04296,2.736,-1,5
65,4.04849,2.771,-1,5
66,4.05128,2.788,-1,5
67,4.05128,2.814,-1,5
68,4.05693,2.841,-1,5
69,4.05978,2.849,-1,5
70,4.06264,2.861,-1,5
71,4.06553,2.887,-1,5
72,4.06843,2.906,-1,5
73,4.07136,2.922,-1,5
74,4.07429,2.931,-1,5
75,4.07723,2.945,-1,5
76,4.08020,2.965,-1,5
77,4.08318,2.980,-1,5
78,4.08617,2.989,-1,5
79,4.08916,2.996,-1,5
80,4.09217,3.011,-1,5
81,4.09520,3.026,-1,5
82,4.09823,3.035,-1,5
83,4.10127,3.040,-1,5
84,4.10432,3.049,-1,5
85,4.10738,3.058,-1,5
86,4.11045,3.068,-1,5
87,4.11352,3.073,-1,5
88,4.11660,3.075,-1,5
89,4.11968,3.082,-1,5
90,4.12277,3.088,-1,5
91,4.12586,3.092,-1,5
92,4.12895,3.093,-1,5
93,4.13205,3.097,-1,5
94,4.13515,3.098,-1,5
95,4.13824,3.097,-1,5
96,4.14134,3.100,-1,5
97,4.14445,3.102,-1,5
98,4.14754,3.097,-1,5
99,4.15064,3.098,-1,5
100,4.15374,3.094,-1,5
101,4.15683,3.092,-1,5
102,4.15992,3.092,-1,5
103,4.16300,3.086,-1,5
104,4.16916,3.077,-1,5
105,4.17224,3.073,-1,5
106,4.17530,3.065,-1,5
107,4.17837,3.063,-1,5
108,4.18142,3.055,-1,5
109,4.18447,3.046,-1,5
110,4.18751,3.042,-1,5
111,4.19054,3.034,-1,5
112,4.19357,3.022,-1,5
113,4.19658,3.016,-1,5
114,4.19959,3.009,-1,5
115,4.20259,3.000,-1,5
116,4.20558,2.991,-1,5
117,4.20856,2.979,-1,5
118,4.21153,2.971,-1,5
119,4.21449,2.958,-1,5
120,4.21744,2.950,-1,5
121,4.22038,2.936,-1,5
122,4.22330,2.924,-1,5
123,4.22621,2.914,-1,5
124,4.22912,2.904,-1,5
125,4.23201,2.890,-1,5
126,4.23488,2.876,-1,5
127,4.23775,2.862,-1,5
128,4.24059,2.846,-1,5
129,4.24343,2.839,-1,5
130,4.24626,2.824,-1,5
131,4.24906,2.807,-1,5
132,4.25185,2.792,-1,5
133,4.25463,2.781,-1,5
134,4.25740,2.767,-1,5
135,4.26016,2.753,-1,5
136,4.26289,2.736,-1,5
137,4.26561,2.720,-1,5
138,4.26832,2.705,-1,5
139,4.27101,2.694,-1,5
140,4.27369,2.678,-1,5
141,4.27635,2.661,-1,5
142,4.28163,2.630,-1,5
143,4.28424,2.618,-1,5
144,4.28684,2.595,-1,5
145,4.28942,2.586,-1,5
146,4.29199,2.570,-1,5
147,4.29454,2.549,-1,5
148,4.29707,2.531,-1,5
149,4.29960,2.522,-1,5
150,4.30210,2.504,-1,5
151,4.30459,2.487,-1,5
152,4.30706,2.469,-1,5
153,4.30951,2.458,-1,5
154,4.31438,2.425,-1,5
155,4.31679,2.409,-1,5
156,4.31918,2.392,-1,5
157,4.32156,2.380,-1,5
158,4.32392,2.363,-1,5
159,4.32627,2.349,-1,5
160,4.32861,2.339,-1,5
161,4.33093,2.323,-1,5
162,4.33324,2.302,-1,5
163,4.33553,2.295,-1,5
164,4.33782,2.286,-1,5
165,4.34009,2.271,-1,5
166,4.34234,2.251,-1,5
167,4.34458,2.243,-1,5
168,4.34682,2.236,-1,5
169,4.34904,2.221,-1,5
170,4.35125,2.208,-1,5
171,4.35344,2.196,-1,5
172,4.35563,2.188,-1,5
173,4.35781,2.176,-1,5
174,4.35997,2.167,-1,5
175,4.36213,2.153,-1,5
176,4.36427,2.143,-1,5
177,4.36641,2.137,-1,5
178,4.36854,2.129,-1,5
179,4.37065,2.116,-1,5
180,4.37276,2.102,-1,5
181,4.37486,2.103,-1,5
182,4.37695,2.097,-1,5
183,4.37904,2.083,-1,5
184,4.38111,2.073,-1,5
185,4.38318,2.070,-1,5
186,4.38525,2.070,-1,5
187,4.38731,2.059,-1,5
188,4.38936,2.048,-1,5
189,4.39140,2.044,-1,5
190,4.39345,2.048,-1,5
191,4.39549,2.041,-1,5
192,4.39752,2.030,-1,5
193,4.39955,2.026,-1,5
194,4.40158,2.030,-1,5
195,4.40563,2.023,-1,5
196,4.40765,2.021,-1,5
197,4.40967,2.018,-1,5
198,4.41169,2.022,-1,5
199,4.41371,2.025,-1,5
200,4.41574,2.023,-1,5
201,4.41775,2.017,-1,5
202,4.41977,2.019,-1,5
203,4.42180,2.032,-1,5
204,4.42384,2.036,-1,5
205,4.42587,2.032,-1,5
206,4.42790,2.029,-1,5
207,4.42994,2.042,-1,5
208,4.43200,2.059,-1,5
209,4.43406,2.059,-1,5
210,4.43612,2.056,-1,5
211,4.43818,2.061,-1,5
212,4.44027,2.088,-1,5
213,4.44236,2.096,-1,5
214,4.44446,2.098,-1,5
215,4.44656,2.103,-1,5
216,4.44868,2.120,-1,5
217,4.45082,2.141,-1,5
218,4.45298,2.151,-1,5
219,4.45514,2.161,-1,5
220,4.45731,2.172,-1,5
221,4.45950,2.195,-1,5
222,4.46172,2.213,-1,5
223,4.46395,2.229,-1,5
224,4.46619,2.239,-1,5
225,4.46844,2.259,-1,5
226,4.47073,2.283,-1,5
227,4.47303,2.306,-1,5
228,4.47535,2.340,-1,5
229,4.47769,2.367,-1,5
230,4.48006,2.389,-1,5
231,4.48486,2.409,-1,5
232,4.48729,2.437,-1,5
233,4.48976,2.465,-1,5
234,4.49225,2.488,-1,5
235,4.49477,2.517,-1,5
236,4.49731,2.547,-1,5
237,4.49989,2.575,-1,5
238,4.50249,2.602,-1,5
239,4.50513,2.637,-1,5
240,4.50779,2.668,-1,5
241,4.51049,2.700,-1,5
242,4.51323,2.733,-1,5
243,4.51599,2.766,-1,5
244,4.51879,2.836,-1,5
245,4.52450,2.872,-1,5
246,4.52741,2.907,-1,5
247,4.53035,2.978,-1,5
248,4.53333,2.978,-1,5
249,4.53635,3.019,-1,5
250,4.53940,3.055,-1,5
251,4.54249,3.091,-1,5
252,4.54562,3.127,-1,5
253,4.54879,3.166,-1,5
254,4.55199,3.201,-1,5
255,4.55523,3.240,-1,5
256,4.55851,3.280,-1,5
257,4.56182,3.311,-1,5
258,4.56516,3.347,-1,5
259,4.56855,3.385,-1,5
260,4.57197,3.422,-1,5
261,4.57543,3.455,-1,5
262,4.57891,3.484,-1,5
263,4.58243,3.518,-1,5
264,4.58598,3.554,-1,5
265,4.58957,3.584,-1,5
266,4.59318,3.616,-1,5
267,4.59682,3.641,-1,5
268,4.60049,3.671,-1,5
269,4.60420,3.702,-1,5
270,4.60793,3.729,-1,5
271,4.61168,3.753,-1,5
272,4.61546,3.779,-1,5
273,4.61926,3.805,-1,5
274,4.62310,3.833,-1,5
275,4.62695,3.854,-1,5
276,4.63082,3.872,-1,5
277,4.63472,3.896,-1,5
278,4.63864,3.918,-1,5
279,4.64258,3.940,-1,5
280,4.64653,3.954,-1,5
281,4.65050,3.969,-1,5
282,4.65449,3.988,-1,5
283,4.65849,4.005,-1,5
284,4.66251,4.021,-1,5
285,4.66654,4.044,-1,5
286,4.67465,4.058,-1,5
287,4.67872,4.069,-1,5
288,4.68279,4.079,-1,5
289,4.68688,4.089,-1,5
290,4.69098,4.096,-1,5
291,4.69508,4.104,-1,5
292,4.69920,4.115,-1,5
293,4.70331,4.117,-1,5
294,4.70744,4.122,-1,5
295,4.71156,4.125,-1,5
296,4.71569,4.129,-1,5
297,4.71982,4.133,-1,5
298,4.72396,4.134,-1,5
299,4.72809,4.133,-1,5
300,4.73222,4.131,-1,5
301,4.73635,4.133,-1,5
302,4.74049,4.131,-1,5
303,4.74462,4.129,-1,5
304,4.74874,4.122,-1,5
305,4.75286,4.121,-1,5
306,4.75698,4.116,-1,5
307,4.76109,4.111,-1,5
308,4.76519,4.106,-1,5
309,4.76929,4.100,-1,5
310,4.77338,4.089,-1,5
311,4.77747,4.084,-1,5
312,4.78154,4.078,-1,5
313,4.78561,4.065,-1,5
314,4.78966,4.054,-1,5
315,4.79371,4.046,-1,5
316,4.79774,4.035,-1,5
317,4.80177,4.024,-1,5
318,4.80578,4.009,-1,5
319,4.80977,3.995,-1,5
320,4.81375,3.983,-1,5
321,4.82168,3.956,-1,5
322,4.82562,3.940,-1,5
323,4.82954,3.924,-1,5
324,4.83345,3.909,-1,5
325,4.83735,3.894,-1,5
326,4.84123,3.880,-1,5
327,4.84509,3.858,-1,5
328,4.84893,3.844,-1,5
329,4.85275,3.824,-1,5
330,4.85656,3.809,-1,5
331,4.86035,3.789,-1,5
332,4.86412,3.771,-1,5
333,4.86787,3.749,-1,5
334,4.87532,3.716,-1,5
335,4.87902,3.696,-1,5
336,4.88269,3.671,-1,5
337,4.88634,3.652,-1,5
338,4.88997,3.633,-1,5
339,4.89358,3.613,-1,5
340,4.89718,3.595,-1,5
341,4.90075,3.571,-1,5
342,4.90430,3.551,-1,5
343,4.90783,3.531,-1,5
344,4.91135,3.513,-1,5
345,4.91484,3.492,-1,5
346,4.91831,3.469,-1,5
347,4.92176,3.451,-1,5
348,4.92519,3.431,-1,5
349,4.92860,3.409,-1,5
350,4.93199,3.392,-1,5
351,4.93536,3.372,-1,5
352,4.93872,3.352,-1,5
353,4.94205,3.333,-1,5
354,4.94536,3.315,-1,5
355,4.94866,3.296,-1,5
356,4.95194,3.280,-1,5
357,4.95520,3.262,-1,5
358,4.95845,3.244,-1,5
359,4.96167,3.226,-1,5
360,4.96489,3.212,-1,5
361,4.96808,3.198,-1,5
362,4.97126,3.180,-1,5
363,4.97443,3.165,-1,5
364,4.97758,3.149,-1,5
365,4.98071,3.137,-1,5
366,4.98384,3.124,-1,5
367,4.98695,3.107,-1,5
368,4.99004,3.095,-1,5
369,4.99312,3.082,-1,5
370,4.99619,3.068,-1,5
371,4.99925,3.059,-1,5
372,5.00229,3.042,-1,5
373,5.00532,3.031,-1,5
374,5.00835,3.024,-1,5
375,5.01136,3.013,-1,5
376,5.01436,3.001,-1,5
377,5.01735,2.988,-1,5
378,5.02033,2.979,-1,5
379,5.02330,2.969,-1,5
380,5.02626,2.962,-1,5
381,5.02921,2.953,-1,5
382,5.03215,2.940,-1,5
383,5.03508,2.934,-1,5
384,5.03801,2.926,-1,5
385,5.04093,2.915,-1,5
386,5.04384,2.912,-1,5
387,5.04674,2.899,-1,5
388,5.04963,2.896,-1,5
389,5.05251,2.883,-1,5
390,5.05539,2.879,-1,5
391,5.05827,2.872,-1,5
392,5.06113,2.865,-1,5
393,5.06399,2.858,-1,5
394,5.06684,2.849,-1,5
395,5.06968,2.842,-1,5
396,5.07252,2.837,-1,5
397,5.07535,2.835,-1,5
398,5.07818,2.826,-1,5
399,5.08100,2.821,-1,5
400,5.08381,2.815,-1,5
401,5.08663,2.812,-1,5
402,5.08943,2.804,-1,5
403,5.09224,2.804,-1,5
404,5.09503,2.796,-1,5
405,5.09782,2.792,-1,5
406,5.10061,2.791,-1,5
407,5.10340,2.787,-1,5
408,5.10619,2.786,-1,5
409,5.10897,2.783,-1,5
410,5.11175,2.777,-1,5
411,5.11452,2.773,-1,5
412,5.11729,2.773,-1,5
413,5.12007,2.773,-1,5
414,5.12284,2.771,-1,5
415,5.12560,2.764,-1,5
416,5.12837,2.764,-1,5
417,5.13113,2.765,-1,5
418,5.13390,2.765,-1,5
419,5.13666,2.761,-1,5
420,5.13942,2.764,-1,5
421,5.14218,2.761,-1,5
422,5.14494,2.759,-1,5
423,5.14770,2.762,-1,5
424,5.15046,2.760,-1,5
425,5.15322,2.760,-1,5
426,5.15599,2.763,-1,5
427,5.15875,2.764,-1,5
428,5.16151,2.764,-1,5
429,5.16428,2.766,-1,5
430,5.16705,2.767,-1,5
431,5.16982,2.772,-1,5
432,5.17259,2.773,-1,5
433,5.17815,2.784,-1,5
434,5.18094,2.788,-1,5
435,5.18373,2.790,-1,5
436,5.18653,2.802,-1,5
437,5.18934,2.807,-1,5
438,5.19215,2.809,-1,5
439,5.19497,2.818,-1,5
440,5.19780,2.826,-1,5
441,5.20063,2.837,-1,5
442,5.20348,2.847,-1,5
443,5.20633,2.852,-1,5
444,5.20920,2.865,-1,5
445,5.21207,2.876,-1,5
446,5.21496,2.889,-1,5
447,5.21786,2.904,-1,5
448,5.22078,2.912,-1,5
449,5.22371,2.928,-1,5
450,5.22665,2.947,-1,5
451,5.22961,2.960,-1,5
452,5.23259,2.979,-1,5
453,5.23559,2.997,-1,5
454,5.23860,3.014,-1,5
455,5.24164,3.036,-1,5
456,5.24470,3.059,-1,5
457,5.24778,3.085,-1,5
458,5.25089,3.106,-1,5
459,5.25402,3.130,-1,5
460,5.25718,3.158,-1,5
461,5.26036,3.186,-1,5
462,5.26358,3.217,-1,5
463,5.26682,3.242,-1,5
464,5.27009,3.272,-1,5
465,5.27340,3.305,-1,5
466,5.27673,3.336,-1,5
467,5.28011,3.372,-1,5
468,5.28351,3.404,-1,5
469,5.28694,3.431,-1,5
470,5.29041,3.474,-1,5
471,5.29392,3.505,-1,5
472,5.29746,3.541,-1,5
473,5.30104,3.579,-1,5
474,5.30465,3.615,-1,5
475,5.30831,3.652,-1,5
476,5.31200,3.690,-1,5
477,5.31572,3.729,-1,5
478,5.31949,3.768,-1,5
479,5.32330,3.808,-1,5
480,5.32715,3.851,-1,5
481,5.33104,3.891,-1,5
482,5.33497,3.932,-1,5
483,5.33895,3.976,-1,5
484,5.34297,4.015,-1,5
485,5.34703,4.061,-1,5
486,5.35113,4.101,-1,5
487,5.35527,4.145,-1,5
488,5.35946,4.188,-1,5
489,5.36369,4.229,-1,5
490,5.36796,4.273,-1,5
491,5.37227,4.310,-1,5
492,5.37663,4.358,-1,5
493,5.38547,4.438,-1,5
494,5.38994,4.477,-1,5
495,5.39447,4.522,-1,5
496,5.39902,4.557,-1,5
497,5.40362,4.598,-1,5
498,5.40826,4.634,-1,5
499,5.41293,4.675,-1,5
500,5.41764,4.711,-1,5
501,5.42239,4.747,-1,5
502,5.42717,4.779,-1,5
503,5.43198,4.817,-1,5
504,5.43683,4.849,-1,5
505,5.44172,4.884,-1,5
506,5.44663,4.913,-1,5
507,5.45157,4.942,-1,5
508,5.45655,4.975,-1,5
509,5.46155,5.005,-1,5
510,5.46658,5.030,-1,5
511,5.47164,5.057,-1,5
512,5.47673,5.089,-1,5
513,5.48184,5.109,-1,5
514,5.48697,5.131,-1,5
515,5.49730,5.178,-1,5
516,5.50249,5.195,-1,5
517,5.50249,5.211,-1,5
518,5.51293,5.223,-1,5
519,5.51817,5.242,-1,5
520,5.51817,5.256,-1,5
521,5.52342,5.268,-1,5
522,5.53397,5.279,-1,5
523,5.53926,5.289,-1,5
524,5.54455,5.294,-1,5
525,5.54986,5.304,-1,5
526,5.55517,5.315,-1,5
527,5.56049,5.313,-1,5
528,5.56581,5.318,-1,5
529,5.57113,5.320,-1,5
530,5.57645,5.324,-1,5
531,5.58177,5.318,-1,5
532,5.58709,5.318,-1,5
533,5.59240,5.314,-1,5
534,5.59772,5.314,-1,5
535,5.60302,5.306,-1,5
536,5.60832,5.302,-1,5
537,5.61362,5.295,-1,5
538,5.61891,5.289,-1,5
539,5.62419,5.282,-1,5
540,5.62946,5.271,-1,5
541,5.63472,5.256,-1,5
542,5.63996,5.242,-1,5
543,5.64519,5.233,-1,5
544,5.65041,5.218,-1,5
545,5.65561,5.200,-1,5
546,5.66079,5.181,-1,5
547,5.66596,5.165,-1,5
548,5.67110,5.148,-1,5
549,5.67623,5.131,-1,5
550,5.68134,5.110,-1,5
551,5.68643,5.088,-1,5
552,5.69150,5.064,-1,5
553,5.69654,5.046,-1,5
554,5.70157,5.026,-1,5
555,5.70657,5.004,-1,5
556,5.71155,4.976,-1,5
557,5.71650,4.952,-1,5
558,5.72143,4.934,-1,5
559,5.72634,4.910,-1,5
560,5.73123,4.887,-1,5
561,5.73609,4.863,-1,5
562,5.74093,4.839,-1,5
563,5.74575,4.818,-1,5
564,5.75055,4.796,-1,5
565,5.75533,4.777,-1,5
566,5.76008,4.753,-1,5
567,5.76481,4.728,-1,5
568,5.76951,4.706,-1,5
569,5.77420,4.685,-1,5
570,5.77886,4.663,-1,5
571,5.78350,4.639,-1,5
572,5.78811,4.613,-1,5
573,5.79271,4.594,-1,5
574,5.79728,4.571,-1,5
575,5.80182,4.548,-1,5
576,5.80635,4.522,-1,5
577,5.81085,4.505,-1,5
578,5.81533,4.480,-1,5
579,5.81979,4.459,-1,5
580,5.82423,4.435,-1,5
581,5.82864,4.415,-1,5
582,5.83303,4.392,-1,5
583,5.83741,4.373,-1,5
584,5.84175,4.348,-1,5
585,5.84608,4.326,-1,5
586,5.85038,4.306,-1,5
587,5.85467,4.282,-1,5
588,5.85893,4.261,-1,5
589,5.86316,4.235,-1,5
590,5.86738,4.216,-1,5
591,5.87157,4.195,-1,5
592,5.87574,4.170,-1,5
593,5.88402,4.127,-1,5
594,5.88812,4.105,-1,5
595,5.89221,4.084,-1,5
596,5.89627,4.066,-1,5
597,5.90032,4.047,-1,5
598,5.90434,4.024,-1,5
599,5.90835,4.010,-1,5
600,5.91234,3.988,-1,5
601,5.91632,3.974,-1,5
602,5.92027,3.953,-1,5
603,5.92421,3.937,-1,5
604,5.92813,3.920,-1,5
605,5.93203,3.902,-1,5
606,5.93591,3.884,-1,5
607,5.93978,3.866,-1,5
608,5.94363,3.848,-1,5
609,5.94746,3.830,-1,5
610,5.95127,3.817,-1,5
611,5.95507,3.800,-1,5
612,5.95886,3.786,-1,5
613,5.96262,3.765,-1,5
614,5.96638,3.751,-1,5
615,5.97011,3.735,-1,5
616,5.97383,3.722,-1,5
617,5.97754,3.708,-1,5
618,5.98124,3.696,-1,5
619,5.98491,3.676,-1,5
620,5.98858,3.666,-1,5
621,5.99224,3.658,-1,5
622,5.99589,3.649,-1,5
623,5.99952,3.632,-1,5
624,6.00314,3.622,-1,5
625,6.00676,3.617,-1,5
626,6.01036,3.600,-1,5
627,6.01755,3.590,-1,5
628,6.01755,3.583,-1,5
629,6.02471,3.576,-1,5
630,6.02829,3.574,-1,5
631,6.03185,3.564,-1,5
632,6.03541,3.562,-1,5
633,6.03897,3.554,-1,5
634,6.04252,3.550,-1,5
635,6.04606,3.544,-1,5
636,6.04960,3.539,-1,5
637,6.05314,3.539,-1,5
638,6.05667,3.535,-1,5
639,6.06020,3.531,-1,5
640,6.06373,3.527,-1,5
641,6.06726,3.528,-1,5
642,6.07079,3.527,-1,5
643,6.07431,3.528,-1,5
644,6.07784,3.524,-1,5
645,6.08137,3.528,-1,5
646,6.08490,3.530,-1,5
647,6.08843,3.532,-1,5
648,6.09196,3.536,-1,5
649,6.09550,3.537,-1,5
650,6.09904,3.545,-1,5
651,6.10614,3.551,-1,5
652,6.10969,3.557,-1,5
653,6.11326,3.565,-1,5
654,6.11682,3.566,-1,5
655,6.12040,3.576,-1,5
656,6.12398,3.584,-1,5
657,6.12758,3.591,-1,5
658,6.13117,3.599,-1,5
659,6.13478,3.603,-1,5
660,6.13839,3.611,-1,5
661,6.14201,3.623,-1,5
662,6.14565,3.633,-1,5
663,6.14929,3.645,-1,5
664,6.15295,3.655,-1,5
665,6.15661,3.668,-1,5
666,6.16030,3.682,-1,5
667,6.16399,3.698,-1,5
668,6.16771,3.712,-1,5
669,6.17143,3.727,-1,5
670,6.17517,3.741,-1,5
671,6.17893,3.757,-1,5
672,6.18270,3.775,-1,5
673,6.18650,3.796,-1,5
674,6.19031,3.811,-1,5
675,6.19414,3.831,-1,5
676,6.19799,3.852,-1,5
677,6.20187,3.873,-1,5
678,6.20576,3.899,-1,5
679,6.20969,3.921,-1,5
680,6.21363,3.947,-1,5
681,6.21760,3.970,-1,5
682,6.22160,3.994,-1,5
683,6.22562,4.025,-1,5
684,6.22967,4.051,-1,5
685,6.23375,4.077,-1,5
686,6.23785,4.106,-1,5
687,6.24199,4.137,-1,5
688,6.24616,4.166,-1,5
689,6.25035,4.195,-1,5
690,6.25458,4.228,-1,5
691,6.25884,4.260,-1,5
692,6.26314,4.296,-1,5
693,6.26747,4.330,-1,5
694,6.27183,4.365,-1,5
695,6.27623,4.401,-1,5
696,6.28067,4.434,-1,5
697,6.28514,4.471,-1,5
698,6.28965,4.508,-1,5
699,6.29419,4.544,-1,5
700,6.29877,4.581,-1,5
701,6.30339,4.617,-1,5
702,6.30804,4.656,-1,5
703,6.31274,4.695,-1,5
704,6.31748,4.740,-1,5
705,6.32226,4.782,-1,5
706,6.32708,4.818,-1,5
707,6.33194,4.860,-1,5
708,6.33684,4.902,-1,5
709,6.34179,4.945,-1,5
710,6.34677,4.989,-1,5
711,6.35180,5.027,-1,5
712,6.35687,5.069,-1,5
713,6.36198,5.109,-1,5
714,6.36713,5.153,-1,5
715,6.37233,5.195,-1,5
716,6.37756,5.236,-1,5
717,6.38284,5.273,-1,5
718,6.38815,5.316,-1,5
719,6.39351,5.353,-1,5
720,6.39889,5.386,-1,5
721,6.40432,5.425,-1,5
722,6.40978,5.461,-1,5
723,6.41527,5.490,-1,5
724,6.42079,5.521,-1,5
725,6.42634,5.552,-1,5
726,6.43192,5.579,-1,5
727,6.43753,5.610,-1,5
728,6.44317,5.639,-1,5
729,6.44883,5.664,-1,5
730,6.45452,5.691,-1,5
731,6.46024,5.715,-1,5
732,6.46598,5.740,-1,5
733,6.47174,5.766,-1,5
734,6.47753,5.784,-1,5
735,6.48333,5.803,-1,5
736,6.48916,5.826,-1,5
737,6.49501,5.849,-1,5
738,6.50087,5.862,-1,5
739,6.50674,5.872,-1,5
740,6.51263,5.889,-1,5
741,6.51853,5.905,-1,5
742,6.53039,5.933,-1,5
743,6.53633,5.941,-1,5
744,6.54228,5.946,-1,5
745,6.54823,5.958,-1,5
746,6.55420,5.968,-1,5
747,6.56017,5.967,-1,5
748,6.56614,5.965,-1,5
749,6.57210,5.967,-1,5
750,6.57807,5.971,-1,5
751,6.58405,5.975,-1,5
752,6.59001,5.965,-1,5
753,6.59597,5.957,-1,5
754,6.60193,5.960,-1,5
755,6.60789,5.962,-1,5
756,6.61385,5.954,-1,5
757,6.61978,5.936,-1,5
758,6.62572,5.933,-1,5
759,6.63164,5.925,-1,5
760,6.63756,5.922,-1,5
761,6.64347,5.902,-1,5
762,6.64935,5.887,-1,5
763,6.65523,5.876,-1,5
764,6.66110,5.868,-1,5
765,6.66695,5.855,-1,5
766,6.67279,5.837,-1,5
767,6.67861,5.817,-1,5
768,6.68441,5.804,-1,5
769,6.69020,5.790,-1,5
770,6.69597,5.771,-1,5
771,6.70172,5.750,-1,5
772,6.70745,5.729,-1,5
773,6.71315,5.704,-1,5
774,6.71884,5.687,-1,5
775,6.72451,5.669,-1,5
776,6.73015,5.640,-1,5
777,6.73577,5.618,-1,5
778,6.74136,5.597,-1,5
779,6.74694,5.578,-1,5
780,6.75250,5.555,-1,5
781,6.75803,5.534,-1,5
782,6.76354,5.505,-1,5
783,6.76902,5.483,-1,5
784,6.77448,5.459,-1,5
785,6.77992,5.438,-1,5
786,6.78534,5.419,-1,5
787,6.79073,5.393,-1,5
788,6.79609,5.364,-1,5
789,6.80143,5.340,-1,5
790,6.80676,5.328,-1,5
791,6.81207,5.307,-1,5
792,6.81735,5.280,-1,5
793,6.82260,5.251,-1,5
794,6.82783,5.232,-1,5
795,6.83304,5.212,-1,5
796,6.83824,5.195,-1,5
797,6.84341,5.169,-1,5
798,6.84855,5.144,-1,5
799,6.85366,5.114,-1,5
800,6.85877,5.101,-1,5
801,6.86384,5.080,-1,5
802,6.87393,5.031,-1,5
803,6.87894,5.006,-1,5
804,6.88392,4.986,-1,5
805,6.88889,4.970,-1,5
806,6.89385,4.952,-1,5
807,6.89877,4.921,-1,5
808,6.90367,4.898,-1,5
809,6.90854,4.879,-1,5
810,6.91341,4.867,-1,5
811,6.91825,4.842,-1,5
812,6.92787,4.793,-1,5
813,6.93265,4.780,-1,5
814,6.93741,4.765,-1,5
815,6.94216,4.749,-1,5
816,6.94688,4.721,-1,5
817,6.95158,4.700,-1,5
818,6.95626,4.681,-1,5
819,6.96093,4.671,-1,5
820,6.96558,4.652,-1,5
821,6.97021,4.629,-1,5
822,6.97481,4.601,-1,5
823,6.97940,4.587,-1,5
824,6.98398,4.574,-1,5
825,6.98853,4.556,-1,5
826,6.99306,4.528,-1,5
827,6.99757,4.507,-1,5
828,7.00206,4.493,-1,5
829,7.00654,4.478,-1,5
830,7.01100,4.459,-1,5
831,7.01544,4.437,-1,5
832,7.01985,4.418,-1,5
833,7.02426,4.403,-1,5
834,7.02865,4.394,-1,5
835,7.03303,4.378,-1,5
836,7.03739,4.357,-1,5
837,7.04173,4.340,-1,5
838,7.04605,4.326,-1,5
839,7.05037,4.314,-1,5
840,7.05467,4.301,-1,5
841,7.05896,4.290,-1,5
842,7.06323,4.271,-1,5
843,7.06749,4.259,-1,5
844,7.07173,4.248,-1,5
845,7.07598,4.244,-1,5
846,7.08021,4.233,-1,5
847,7.08443,4.219,-1,5
848,7.08864,4.209,-1,5
849,7.09284,4.202,-1,5
850,7.09703,4.193,-1,5
851,7.10122,4.184,-1,5
852,7.10540,4.178,-1,5
853,7.11373,4.163,-1,5
854,7.11789,4.159,-1,5
855,7.12205,4.156,-1,5
856,7.12620,4.150,-1,5
857,7.13034,4.145,-1,5
858,7.13448,4.141,-1,5
859,7.13862,4.141,-1,5
860,7.14276,4.137,-1,5
861,7.14690,4.134,-1,5
862,7.15103,4.130,-1,5
863,7.15516,4.130,-1,5
864,7.15929,4.130,-1,5
865,7.16342,4.132,-1,5
866,7.16755,4.135,-1,5
867,7.17169,4.135,-1,5
868,7.17583,4.140,-1,5
869,7.17997,4.145,-1,5
870,7.18412,4.148,-1,5
871,7.18827,4.153,-1,5
872,7.19243,4.160,-1,5
873,7.19660,4.165,-1,5
