cnt,pos,speed,Dir,Force,
1,3.23151,1.017,-1,5
2,3.23254,1.031,-1,5
3,3.23357,1.029,-1,5
4,3.23460,1.032,-1,5
5,3.23565,1.050,-1,5
6,3.23672,1.072,-1,5
7,3.23780,1.077,-1,5
8,3.23888,1.074,-1,5
9,3.23995,1.078,-1,5
10,3.24106,1.105,-1,5
11,3.24219,1.128,-1,5
12,3.24331,1.127,-1,5
13,3.24443,1.120,-1,5
14,3.24557,1.136,-1,5
15,3.24673,1.165,-1,5
16,3.24791,1.178,-1,5
17,3.24908,1.172,-1,5
18,3.25026,1.178,-1,5
19,3.25147,1.212,-1,5
20,3.25271,1.232,-1,5
21,3.25393,1.225,-1,5
22,3.25516,1.224,-1,5
23,3.25640,1.248,-1,5
24,3.25768,1.279,-1,5
25,3.25896,1.276,-1,5
26,3.26153,1.292,-1,5
27,3.26284,1.313,-1,5
28,3.26417,1.327,-1,5
29,3.26550,1.333,-1,5
30,3.26684,1.341,-1,5
31,3.26820,1.357,-1,5
32,3.26958,1.374,-1,5
33,3.27097,1.394,-1,5
34,3.27237,1.399,-1,5
35,3.27378,1.409,-1,5
36,3.27521,1.434,-1,5
37,3.27666,1.453,-1,5
38,3.27812,1.458,-1,5
39,3.27959,1.466,-1,5
40,3.28108,1.495,-1,5
41,3.28260,1.513,-1,5
42,3.28412,1.523,-1,5
43,3.28565,1.530,-1,5
44,3.28720,1.547,-1,5
45,3.28877,1.571,-1,5
46,3.29036,1.595,-1,5
47,3.29196,1.600,-1,5
48,3.29357,1.605,-1,5
49,3.29519,1.628,-1,5
50,3.29685,1.655,-1,5
51,3.29852,1.674,-1,5
52,3.30020,1.681,-1,5
53,3.30189,1.686,-1,5
54,3.30360,1.708,-1,5
55,3.30534,1.742,-1,5
56,3.30709,1.755,-1,5
57,3.31063,1.772,-1,5
58,3.31242,1.794,-1,5
59,3.31425,1.828,-1,5
60,3.31609,1.838,-1,5
61,3.31793,1.845,-1,5
62,3.31979,1.861,-1,5
63,3.32168,1.884,-1,5
64,3.32359,1.912,-1,5
65,3.32551,1.920,-1,5
66,3.32744,1.929,-1,5
67,3.32939,1.950,-1,5
68,3.33136,1.974,-1,5
69,3.33335,1.993,-1,5
70,3.33535,1.996,-1,5
71,3.33737,2.015,-1,5
72,3.33940,2.034,-1,5
73,3.34145,2.051,-1,5
74,3.34351,2.062,-1,5
75,3.34558,2.069,-1,5
76,3.34767,2.091,-1,5
77,3.34978,2.103,-1,5
78,3.35189,2.116,-1,5
79,3.35402,2.129,-1,5
80,3.35616,2.144,-1,5
81,3.35832,2.155,-1,5
82,3.36048,2.165,-1,5
83,3.36266,2.176,-1,5
84,3.36485,2.189,-1,5
85,3.36705,2.200,-1,5
86,3.36925,2.204,-1,5
87,3.37147,2.212,-1,5
88,3.37369,2.220,-1,5
89,3.37816,2.241,-1,5
90,3.38040,2.246,-1,5
91,3.38265,2.247,-1,5
92,3.38490,2.253,-1,5
93,3.38716,2.259,-1,5
94,3.38943,2.265,-1,5
95,3.39169,2.268,-1,5
96,3.39397,2.276,-1,5
97,3.39625,2.279,-1,5
98,3.39853,2.277,-1,5
99,3.40080,2.276,-1,5
100,3.40309,2.287,-1,5
101,3.40538,2.290,-1,5
102,3.40767,2.288,-1,5
103,3.40995,2.287,-1,5
104,3.41224,2.289,-1,5
105,3.41453,2.288,-1,5
106,3.41682,2.287,-1,5
107,3.41911,2.289,-1,5
108,3.42139,2.284,-1,5
109,3.42367,2.282,-1,5
110,3.42596,2.282,-1,5
111,3.42824,2.280,-1,5
112,3.43051,2.274,-1,5
113,3.43278,2.275,-1,5
114,3.43506,2.271,-1,5
115,3.43732,2.264,-1,5
116,3.43958,2.258,-1,5
117,3.44184,2.260,-1,5
118,3.44409,2.243,-1,5
119,3.44857,2.237,-1,5
120,3.45081,2.238,-1,5
121,3.45304,2.233,-1,5
122,3.45527,2.224,-1,5
123,3.45748,2.214,-1,5
124,3.45969,2.212,-1,5
125,3.46190,2.206,-1,5
126,3.46410,2.198,-1,5
127,3.46629,2.189,-1,5
128,3.46847,2.181,-1,5
129,3.47064,2.174,-1,5
130,3.47281,2.169,-1,5
131,3.47497,2.160,-1,5
132,3.47712,2.146,-1,5
133,3.47926,2.141,-1,5
134,3.48139,2.135,-1,5
135,3.48352,2.129,-1,5
136,3.48564,2.115,-1,5
137,3.48775,2.110,-1,5
138,3.48985,2.107,-1,5
139,3.49194,2.092,-1,5
140,3.49403,2.083,-1,5
141,3.49610,2.075,-1,5
142,3.49818,2.075,-1,5
143,3.50024,2.062,-1,5
144,3.50229,2.051,-1,5
145,3.50433,2.040,-1,5
146,3.50637,2.039,-1,5
147,3.50840,2.031,-1,5
148,3.51042,2.011,-1,5
149,3.51443,2.001,-1,5
150,3.51642,1.994,-1,5
151,3.51841,1.987,-1,5
152,3.52039,1.981,-1,5
153,3.52236,1.969,-1,5
154,3.52431,1.955,-1,5
155,3.52627,1.958,-1,5
156,3.52823,1.953,-1,5
157,3.53017,1.941,-1,5
158,3.53209,1.923,-1,5
159,3.53401,1.919,-1,5
160,3.53593,1.927,-1,5
161,3.53785,1.917,-1,5
162,3.53975,1.898,-1,5
163,3.54164,1.887,-1,5
164,3.54353,1.888,-1,5
165,3.54542,1.895,-1,5
166,3.54730,1.881,-1,5
167,3.54916,1.863,-1,5
168,3.55102,1.858,-1,5
169,3.55288,1.862,-1,5
170,3.55475,1.864,-1,5
171,3.55660,1.847,-1,5
172,3.55843,1.836,-1,5
173,3.56027,1.834,-1,5
174,3.56210,1.834,-1,5
175,3.56576,1.825,-1,5
176,3.56757,1.812,-1,5
177,3.56938,1.809,-1,5
178,3.57119,1.802,-1,5
179,3.57300,1.812,-1,5
180,3.57480,1.805,-1,5
181,3.57659,1.790,-1,5
182,3.57837,1.781,-1,5
183,3.58016,1.784,-1,5
184,3.58195,1.793,-1,5
185,3.58374,1.792,-1,5
186,3.58551,1.767,-1,5
187,3.58727,1.760,-1,5
188,3.58903,1.765,-1,5
189,3.59081,1.779,-1,5
190,3.59259,1.778,-1,5
191,3.59434,1.751,-1,5
192,3.59609,1.744,-1,5
193,3.59784,1.753,-1,5
194,3.59960,1.764,-1,5
195,3.60137,1.765,-1,5
196,3.60311,1.743,-1,5
197,3.60485,1.734,-1,5
198,3.60659,1.747,-1,5
199,3.60835,1.757,-1,5
200,3.61010,1.744,-1,5
201,3.61358,1.732,-1,5
202,3.61358,1.742,-1,5
203,3.61708,1.754,-1,5
204,3.61883,1.753,-1,5
205,3.62057,1.746,-1,5
206,3.62231,1.740,-1,5
207,3.62406,1.743,-1,5
208,3.62581,1.751,-1,5
209,3.62756,1.757,-1,5
210,3.62932,1.756,-1,5
211,3.63107,1.748,-1,5
212,3.63282,1.749,-1,5
213,3.63458,1.758,-1,5
214,3.63634,1.767,-1,5
215,3.63811,1.771,-1,5
216,3.63988,1.766,-1,5
217,3.64164,1.761,-1,5
218,3.64341,1.772,-1,5
219,3.64520,1.788,-1,5
220,3.64699,1.793,-1,5
221,3.64878,1.788,-1,5
222,3.65056,1.782,-1,5
223,3.65235,1.791,-1,5
224,3.65417,1.812,-1,5
225,3.65780,1.815,-1,5
226,3.65961,1.823,-1,5
227,3.66328,1.843,-1,5
228,3.66513,1.847,-1,5
229,3.66698,1.854,-1,5
230,3.66884,1.860,-1,5
231,3.67071,1.868,-1,5
232,3.67259,1.877,-1,5
233,3.67447,1.889,-1,5
234,3.67638,1.906,-1,5
235,3.67829,1.912,-1,5
236,3.68021,1.915,-1,5
237,3.68213,1.926,-1,5
238,3.68408,1.947,-1,5
239,3.68605,1.968,-1,5
240,3.68802,1.974,-1,5
241,3.69000,1.977,-1,5
242,3.69199,1.994,-1,5
243,3.69401,2.014,-1,5
244,3.69605,2.038,-1,5
245,3.69809,2.046,-1,5
246,3.70015,2.057,-1,5
247,3.70222,2.073,-1,5
248,3.70432,2.093,-1,5
249,3.70643,2.118,-1,5
250,3.70857,2.136,-1,5
251,3.71071,2.145,-1,5
252,3.71287,2.156,-1,5
253,3.71506,2.188,-1,5
254,3.71727,2.215,-1,5
255,3.71950,2.241,-1,5
256,3.72401,2.267,-1,5
257,3.72630,2.293,-1,5
258,3.72862,2.318,-1,5
259,3.73096,2.336,-1,5
260,3.73332,2.360,-1,5
261,3.73570,2.383,-1,5
262,3.73811,2.410,-1,5
263,3.74055,2.435,-1,5
264,3.74301,2.463,-1,5
265,3.74549,2.485,-1,5
266,3.74800,2.510,-1,5
267,3.75054,2.538,-1,5
268,3.75311,2.568,-1,5
269,3.75571,2.597,-1,5
270,3.75833,2.620,-1,5
271,3.76098,2.650,-1,5
272,3.76366,2.681,-1,5
273,3.76637,2.711,-1,5
274,3.76911,2.738,-1,5
275,3.77188,2.772,-1,5
276,3.77468,2.802,-1,5
277,3.77751,2.832,-1,5
278,3.78038,2.864,-1,5
279,3.78327,2.896,-1,5
280,3.78620,2.929,-1,5
281,3.78917,2.962,-1,5
282,3.79519,3.028,-1,5
283,3.79825,3.061,-1,5
284,3.80134,3.096,-1,5
285,3.80448,3.131,-1,5
286,3.80764,3.166,-1,5
287,3.81084,3.201,-1,5
288,3.81408,3.237,-1,5
289,3.81735,3.272,-1,5
290,3.82066,3.311,-1,5
291,3.82401,3.345,-1,5
292,3.82738,3.377,-1,5
293,3.83080,3.419,-1,5
294,3.83426,3.453,-1,5
295,3.83774,3.488,-1,5
296,3.84127,3.522,-1,5
297,3.84482,3.558,-1,5
298,3.84842,3.593,-1,5
299,3.85205,3.629,-1,5
300,3.85571,3.661,-1,5
301,3.85940,3.690,-1,5
302,3.86312,3.725,-1,5
303,3.86688,3.756,-1,5
304,3.87067,3.790,-1,5
305,3.87448,3.816,-1,5
306,3.88220,3.870,-1,5
307,3.88610,3.903,-1,5
308,3.89003,3.927,-1,5
309,3.89398,3.952,-1,5
310,3.89796,3.975,-1,5
311,3.90195,3.995,-1,5
312,3.90598,4.028,-1,5
313,3.91003,4.047,-1,5
314,3.91409,4.068,-1,5
315,3.91818,4.087,-1,5
316,3.92229,4.110,-1,5
317,3.92642,4.129,-1,5
318,3.93057,4.146,-1,5
319,3.93473,4.162,-1,5
320,3.93891,4.178,-1,5
321,3.94310,4.192,-1,5
322,3.94731,4.209,-1,5
323,3.95153,4.220,-1,5
324,3.95575,4.228,-1,5
325,3.95999,4.237,-1,5
326,3.96424,4.249,-1,5
327,3.96849,4.253,-1,5
328,3.97276,4.263,-1,5
329,3.97702,4.266,-1,5
330,3.98130,4.274,-1,5
331,3.98557,4.273,-1,5
332,3.98985,4.278,-1,5
333,3.99413,4.282,-1,5
334,3.99841,4.281,-1,5
335,4.00697,4.278,-1,5
336,4.01125,4.279,-1,5
337,4.01552,4.274,-1,5
338,4.01979,4.270,-1,5
339,4.02406,4.262,-1,5
340,4.02832,4.262,-1,5
341,4.03257,4.255,-1,5
342,4.03682,4.250,-1,5
343,4.04106,4.237,-1,5
344,4.04529,4.228,-1,5
345,4.04952,4.227,-1,5
346,4.05373,4.217,-1,5
347,4.05794,4.206,-1,5
348,4.06213,4.195,-1,5
349,4.06632,4.187,-1,5
350,4.07050,4.175,-1,5
351,4.07466,4.166,-1,5
352,4.07881,4.152,-1,5
353,4.08295,4.139,-1,5
354,4.08708,4.126,-1,5
355,4.09119,4.113,-1,5
356,4.09529,4.099,-1,5
357,4.09937,4.081,-1,5
358,4.10344,4.070,-1,5
359,4.10750,4.055,-1,5
360,4.11154,4.040,-1,5
361,4.11556,4.027,-1,5
362,4.11957,4.007,-1,5
363,4.12754,3.976,-1,5
364,4.13150,3.961,-1,5
365,4.13545,3.945,-1,5
366,4.13937,3.926,-1,5
367,4.14328,3.913,-1,5
368,4.14718,3.893,-1,5
369,4.15105,3.876,-1,5
370,4.15491,3.856,-1,5
371,4.15875,3.841,-1,5
372,4.16257,3.822,-1,5
373,4.16638,3.804,-1,5
374,4.17016,3.785,-1,5
375,4.17393,3.764,-1,5
376,4.17768,3.751,-1,5
377,4.18141,3.731,-1,5
378,4.18512,3.712,-1,5
379,4.18881,3.691,-1,5
380,4.19249,3.675,-1,5
381,4.19614,3.658,-1,5
382,4.19978,3.640,-1,5
383,4.20340,3.620,-1,5
384,4.20701,3.603,-1,5
385,4.21059,3.582,-1,5
386,4.21416,3.566,-1,5
387,4.21770,3.548,-1,5
388,4.22123,3.529,-1,5
389,4.22474,3.507,-1,5
390,4.22823,3.494,-1,5
391,4.23171,3.475,-1,5
392,4.23860,3.437,-1,5
393,4.24202,3.416,-1,5
394,4.24542,3.402,-1,5
395,4.24881,3.388,-1,5
396,4.25218,3.370,-1,5
397,4.25553,3.352,-1,5
398,4.25887,3.336,-1,5
399,4.26219,3.321,-1,5
400,4.26550,3.306,-1,5
401,4.26879,3.290,-1,5
402,4.27206,3.277,-1,5
403,4.27533,3.263,-1,5
404,4.27857,3.246,-1,5
405,4.28181,3.237,-1,5
406,4.28503,3.224,-1,5
407,4.28824,3.206,-1,5
408,4.29144,3.201,-1,5
409,4.29463,3.184,-1,5
410,4.29780,3.170,-1,5
411,4.30096,3.161,-1,5
412,4.30411,3.151,-1,5
413,4.30725,3.138,-1,5
414,4.31037,3.128,-1,5
415,4.31349,3.118,-1,5
416,4.31660,3.106,-1,5
417,4.31969,3.095,-1,5
418,4.32278,3.089,-1,5
419,4.32586,3.078,-1,5
420,4.32893,3.070,-1,5
421,4.33199,3.062,-1,5
422,4.33809,3.048,-1,5
423,4.34113,3.038,-1,5
424,4.34416,3.028,-1,5
425,4.34718,3.022,-1,5
426,4.35019,3.012,-1,5
427,4.35320,3.007,-1,5
428,4.35620,3.001,-1,5
429,4.35919,2.991,-1,5
430,4.36217,2.986,-1,5
431,4.36515,2.978,-1,5
432,4.36812,2.973,-1,5
433,4.37109,2.967,-1,5
434,4.37405,2.958,-1,5
435,4.37700,2.955,-1,5
436,4.37995,2.945,-1,5
437,4.38289,2.940,-1,5
438,4.38583,2.938,-1,5
439,4.38876,2.929,-1,5
440,4.39168,2.922,-1,5
441,4.39460,2.919,-1,5
442,4.39751,2.913,-1,5
443,4.40332,2.903,-1,5
444,4.40622,2.897,-1,5
445,4.40911,2.892,-1,5
446,4.41200,2.887,-1,5
447,4.41488,2.884,-1,5
448,4.41776,2.877,-1,5
449,4.42063,2.869,-1,5
450,4.42349,2.866,-1,5
451,4.42636,2.864,-1,5
452,4.42921,2.857,-1,5
453,4.43207,2.853,-1,5
454,4.43492,2.848,-1,5
455,4.43776,2.841,-1,5
456,4.44060,2.839,-1,5
457,4.44343,2.835,-1,5
458,4.44626,2.830,-1,5
459,4.44909,2.824,-1,5
460,4.45191,2.822,-1,5
461,4.45473,2.819,-1,5
462,4.45754,2.816,-1,5
463,4.46035,2.811,-1,5
464,4.46316,2.810,-1,5
465,4.46597,2.803,-1,5
466,4.46877,2.803,-1,5
467,4.47157,2.802,-1,5
468,4.47437,2.800,-1,5
469,4.47716,2.793,-1,5
470,4.47996,2.796,-1,5
471,4.48555,2.792,-1,5
472,4.48834,2.790,-1,5
473,4.49113,2.790,-1,5
474,4.49391,2.787,-1,5
475,4.49670,2.790,-1,5
476,4.49949,2.790,-1,5
477,4.50228,2.789,-1,5
478,4.50507,2.788,-1,5
479,4.50786,2.790,-1,5
480,4.51066,2.796,-1,5
481,4.51345,2.793,-1,5
482,4.51624,2.794,-1,5
483,4.51904,2.796,-1,5
484,4.52184,2.799,-1,5
485,4.52464,2.803,-1,5
486,4.52745,2.808,-1,5
487,4.53026,2.809,-1,5
488,4.53307,2.811,-1,5
489,4.53588,2.819,-1,5
490,4.53871,2.826,-1,5
491,4.54154,2.830,-1,5
492,4.54438,2.836,-1,5
493,4.54722,2.840,-1,5
494,4.55007,2.854,-1,5
495,4.55293,2.860,-1,5
496,4.55580,2.868,-1,5
497,4.55868,2.881,-1,5
498,4.56156,2.883,-1,5
499,4.56447,2.902,-1,5
500,4.56738,2.927,-1,5
501,4.57324,2.938,-1,5
502,4.57619,2.948,-1,5
503,4.57915,2.962,-1,5
504,4.58213,2.980,-1,5
505,4.58513,2.995,-1,5
506,4.58814,3.010,-1,5
507,4.59116,3.024,-1,5
508,4.59420,3.040,-1,5
509,4.59726,3.060,-1,5
510,4.60034,3.079,-1,5
511,4.60344,3.095,-1,5
512,4.60655,3.112,-1,5
513,4.60968,3.131,-1,5
514,4.61283,3.154,-1,5
515,4.61601,3.173,-1,5
516,4.61920,3.195,-1,5
517,4.62242,3.219,-1,5
518,4.62566,3.235,-1,5
519,4.62892,3.264,-1,5
520,4.63220,3.282,-1,5
521,4.63551,3.308,-1,5
522,4.63884,3.331,-1,5
523,4.64220,3.355,-1,5
524,4.64558,3.380,-1,5
525,4.64898,3.407,-1,5
526,4.65241,3.432,-1,5
527,4.65587,3.458,-1,5
528,4.65936,3.484,-1,5
529,4.66287,3.537,-1,5
530,4.66997,3.567,-1,5
531,4.67357,3.594,-1,5
532,4.67719,3.620,-1,5
533,4.68084,3.651,-1,5
534,4.68452,3.681,-1,5
535,4.68823,3.711,-1,5
536,4.69197,3.739,-1,5
537,4.69574,3.771,-1,5
538,4.69954,3.803,-1,5
539,4.70338,3.833,-1,5
540,4.70724,3.863,-1,5
541,4.71113,3.891,-1,5
542,4.71506,3.926,-1,5
543,4.71902,3.961,-1,5
544,4.72301,3.990,-1,5
545,4.72702,4.017,-1,5
546,4.73107,4.051,-1,5
547,4.73516,4.085,-1,5
548,4.73928,4.118,-1,5
549,4.74342,4.147,-1,5
550,4.74760,4.177,-1,5
551,4.75181,4.207,-1,5
552,4.75605,4.244,-1,5
553,4.76032,4.272,-1,5
554,4.76463,4.304,-1,5
555,4.76896,4.331,-1,5
556,4.77332,4.365,-1,5
557,4.77772,4.392,-1,5
558,4.78659,4.450,-1,5
559,4.79106,4.477,-1,5
560,4.79557,4.505,-1,5
561,4.80010,4.530,-1,5
562,4.80465,4.557,-1,5
563,4.80923,4.578,-1,5
564,4.81384,4.606,-1,5
565,4.81847,4.629,-1,5
566,4.82312,4.654,-1,5
567,4.82780,4.674,-1,5
568,4.83249,4.696,-1,5
569,4.83721,4.718,-1,5
570,4.84195,4.743,-1,5
571,4.84671,4.761,-1,5
572,4.85149,4.779,-1,5
573,4.85629,4.799,-1,5
574,4.86111,4.815,-1,5
575,4.86594,4.837,-1,5
576,4.87080,4.853,-1,5
577,4.87566,4.866,-1,5
578,4.88054,4.879,-1,5
579,4.88544,4.897,-1,5
580,4.89035,4.909,-1,5
581,4.89527,4.921,-1,5
582,4.90020,4.931,-1,5
583,4.90514,4.945,-1,5
584,4.91010,4.963,-1,5
585,4.91506,4.968,-1,5
586,4.92003,4.978,-1,5
587,4.92999,4.982,-1,5
588,4.93498,4.990,-1,5
589,4.93997,4.990,-1,5
590,4.94496,4.994,-1,5
591,4.94996,4.994,-1,5
592,4.95495,4.996,-1,5
593,4.95995,5.000,-1,5
594,4.96495,5.001,-1,5
595,4.96995,4.997,-1,5
596,4.97495,4.996,-1,5
597,4.97995,4.999,-1,5
598,4.98494,4.996,-1,5
599,4.98994,4.995,-1,5
600,4.99493,4.989,-1,5
601,4.99991,4.988,-1,5
602,5.00490,4.981,-1,5
603,5.00987,4.977,-1,5
604,5.01484,4.970,-1,5
605,5.01981,4.967,-1,5
606,5.02477,4.959,-1,5
607,5.02972,4.953,-1,5
608,5.03466,4.943,-1,5
609,5.03960,4.935,-1,5
610,5.04453,4.930,-1,5
611,5.05437,4.918,-1,5
612,5.05928,4.906,-1,5
613,5.06418,4.897,-1,5
614,5.06906,4.886,-1,5
615,5.07394,4.880,-1,5
616,5.07881,4.869,-1,5
617,5.08367,4.861,-1,5
618,5.08852,4.846,-1,5
619,5.09335,4.834,-1,5
620,5.09817,4.821,-1,5
621,5.10299,4.813,-1,5
622,5.10779,4.802,-1,5
623,5.11258,4.788,-1,5
624,5.11735,4.775,-1,5
625,5.12211,4.762,-1,5
626,5.12686,4.750,-1,5
627,5.13160,4.739,-1,5
628,5.13633,4.727,-1,5
629,5.14104,4.712,-1,5
630,5.14574,4.695,-1,5
631,5.15042,4.678,-1,5
632,5.15508,4.666,-1,5
633,5.15973,4.652,-1,5
634,5.16437,4.638,-1,5
635,5.16899,4.621,-1,5
636,5.17360,4.604,-1,5
637,5.17818,4.587,-1,5
638,5.18276,4.574,-1,5
639,5.18732,4.559,-1,5
640,5.19186,4.543,-1,5
641,5.19639,4.511,-1,5
642,5.20090,4.492,-1,5
643,5.20539,4.477,-1,5
644,5.21433,4.461,-1,5
645,5.21877,4.445,-1,5
646,5.22320,4.426,-1,5
647,5.22761,4.408,-1,5
648,5.23200,4.391,-1,5
649,5.23638,4.378,-1,5
650,5.24074,4.360,-1,5
651,5.24508,4.342,-1,5
652,5.24941,4.327,-1,5
653,5.25372,4.313,-1,5
654,5.25802,4.298,-1,5
655,5.26230,4.283,-1,5
656,5.26657,4.267,-1,5
657,5.27082,4.255,-1,5
658,5.27506,4.239,-1,5
659,5.27929,4.226,-1,5
660,5.28350,4.214,-1,5
661,5.28770,4.200,-1,5
662,5.29189,4.185,-1,5
663,5.29606,4.175,-1,5
664,5.30023,4.164,-1,5
665,5.30438,4.155,-1,5
666,5.30852,4.140,-1,5
667,5.31265,4.129,-1,5
668,5.32088,4.111,-1,5
669,5.32498,4.100,-1,5
670,5.32907,4.094,-1,5
671,5.33315,4.079,-1,5
672,5.33723,4.074,-1,5
673,5.34129,4.065,-1,5
674,5.34535,4.056,-1,5
675,5.34939,4.046,-1,5
676,5.35343,4.037,-1,5
677,5.35746,4.029,-1,5
678,5.36148,4.020,-1,5
679,5.36550,4.016,-1,5
680,5.36950,3.999,-1,5
681,5.37349,3.993,-1,5
682,5.37747,3.984,-1,5
683,5.38145,3.979,-1,5
684,5.38542,3.972,-1,5
685,5.38938,3.961,-1,5
686,5.39334,3.954,-1,5
687,5.39729,3.947,-1,5
688,5.40122,3.936,-1,5
689,5.40515,3.933,-1,5
690,5.40908,3.923,-1,5
691,5.41299,3.915,-1,5
692,5.41690,3.910,-1,5
693,5.42081,3.903,-1,5
694,5.42470,3.894,-1,5
695,5.42858,3.883,-1,5
696,5.43246,3.878,-1,5
697,5.43633,3.871,-1,5
698,5.44406,3.859,-1,5
699,5.44791,3.851,-1,5
700,5.45175,3.843,-1,5
701,5.45559,3.837,-1,5
702,5.45942,3.831,-1,5
703,5.46324,3.826,-1,5
704,5.46706,3.816,-1,5
705,5.47087,3.812,-1,5
706,5.47468,3.807,-1,5
707,5.47848,3.803,-1,5
708,5.48228,3.793,-1,5
709,5.48606,3.784,-1,5
710,5.48984,3.783,-1,5
711,5.49362,3.776,-1,5
712,5.49739,3.767,-1,5
713,5.50115,3.763,-1,5
714,5.50491,3.758,-1,5
715,5.50866,3.753,-1,5
716,5.51241,3.747,-1,5
717,5.51615,3.740,-1,5
718,5.51989,3.739,-1,5
719,5.52735,3.729,-1,5
720,5.53107,3.722,-1,5
721,5.53479,3.720,-1,5
722,5.53851,3.716,-1,5
723,5.54222,3.716,-1,5
724,5.54593,3.709,-1,5
725,5.55335,3.707,-1,5
726,5.55705,3.705,-1,5
727,5.56075,3.702,-1,5
728,5.56446,3.703,-1,5
729,5.56816,3.704,-1,5
730,5.57186,3.701,-1,5
731,5.57557,3.704,-1,5
732,5.57927,3.702,-1,5
733,5.58297,3.706,-1,5
734,5.58668,3.710,-1,5
735,5.59039,3.710,-1,5
736,5.59411,3.715,-1,5
737,5.59782,3.716,-1,5
738,5.60155,3.725,-1,5
739,5.60528,3.728,-1,5
740,5.60901,3.737,-1,5
741,5.61276,3.745,-1,5
742,5.61651,3.753,-1,5
743,5.62027,3.759,-1,5
744,5.62404,3.772,-1,5
745,5.62782,3.781,-1,5
746,5.63161,3.793,-1,5
747,5.63542,3.802,-1,5
748,5.63923,3.818,-1,5
749,5.64307,3.832,-1,5
750,5.64691,3.861,-1,5
751,5.65077,3.875,-1,5
752,5.65465,3.896,-1,5
753,5.66246,3.916,-1,5
754,5.66640,3.936,-1,5
755,5.67035,3.956,-1,5
756,5.67433,3.976,-1,5
757,5.67834,4.026,-1,5
758,5.68236,4.026,-1,5
759,5.68642,4.055,-1,5
760,5.69050,4.084,-1,5
761,5.69461,4.108,-1,5
762,5.69875,4.142,-1,5
763,5.70292,4.172,-1,5
764,5.70713,4.206,-1,5
765,5.71137,4.236,-1,5
766,5.71564,4.275,-1,5
767,5.71995,4.307,-1,5
768,5.72430,4.348,-1,5
769,5.72868,4.387,-1,5
770,5.73311,4.424,-1,5
771,5.73757,4.463,-1,5
772,5.74208,4.507,-1,5
773,5.74663,4.553,-1,5
774,5.75122,4.594,-1,5
775,5.75587,4.640,-1,5
776,5.76055,4.686,-1,5
777,5.76529,4.734,-1,5
778,5.77006,4.779,-1,5
779,5.77489,4.876,-1,5
780,5.77977,4.927,-1,5
781,5.78470,4.973,-1,5
782,5.79469,5.021,-1,5
783,5.79976,5.070,-1,5
784,5.80488,5.122,-1,5
785,5.81005,5.171,-1,5
786,5.81527,5.216,-1,5
787,5.82054,5.269,-1,5
788,5.82586,5.318,-1,5
789,5.83122,5.366,-1,5
790,5.83664,5.412,-1,5
791,5.84210,5.461,-1,5
792,5.84760,5.504,-1,5
793,5.85315,5.551,-1,5
794,5.85874,5.591,-1,5
795,5.86438,5.634,-1,5
796,5.87005,5.673,-1,5
797,5.87577,5.716,-1,5
798,5.88151,5.749,-1,5
799,5.88730,5.788,-1,5
800,5.89312,5.821,-1,5
801,5.89898,5.860,-1,5
802,5.90487,5.890,-1,5
803,5.91079,5.920,-1,5
804,5.91674,5.948,-1,5
805,5.92272,5.978,-1,5
806,5.92872,6.001,-1,5
807,5.93475,6.026,-1,5
808,5.94079,6.048,-1,5
809,5.94686,6.062,-1,5
810,5.95294,6.084,-1,5
811,5.95905,6.106,-1,5
812,5.97130,6.134,-1,5
813,5.97745,6.142,-1,5
814,5.98360,6.155,-1,5
815,5.98977,6.172,-1,5
816,5.99595,6.176,-1,5
817,6.00213,6.179,-1,5
818,6.00831,6.180,-1,5
819,6.01449,6.184,-1,5
820,6.02068,6.189,-1,5
821,6.02687,6.185,-1,5
822,6.03305,6.185,-1,5
823,6.03924,6.188,-1,5
824,6.04542,6.182,-1,5
825,6.05160,6.181,-1,5
826,6.05778,6.174,-1,5
827,6.06394,6.161,-1,5
828,6.07010,6.159,-1,5
829,6.07625,6.152,-1,5
830,6.08239,6.139,-1,5
831,6.08851,6.123,-1,5
832,6.09462,6.114,-1,5
833,6.10072,6.102,-1,5
834,6.10682,6.092,-1,5
835,6.11289,6.075,-1,5
836,6.11895,6.059,-1,5
837,6.12499,6.040,-1,5
838,6.13101,6.022,-1,5
839,6.13702,6.009,-1,5
840,6.14301,5.988,-1,5
841,6.14897,5.961,-1,5
842,6.15491,5.943,-1,5
843,6.16084,5.924,-1,5
844,6.17262,5.879,-1,5
845,6.17847,5.854,-1,5
846,6.18431,5.835,-1,5
847,6.19012,5.815,-1,5
848,6.19591,5.791,-1,5
849,6.20168,5.765,-1,5
850,6.20742,5.742,-1,5
851,6.21314,5.721,-1,5
852,6.21884,5.697,-1,5
853,6.22451,5.677,-1,5
854,6.23016,5.646,-1,5
855,6.23578,5.621,-1,5
856,6.24138,5.602,-1,5
857,6.24697,5.587,-1,5
858,6.25253,5.557,-1,5
859,6.25806,5.531,-1,5
860,6.26357,5.508,-1,5
861,6.26906,5.493,-1,5
862,6.27453,5.471,-1,5
863,6.27998,5.447,-1,5
864,6.28539,5.413,-1,5
865,6.29078,5.393,-1,5
866,6.29616,5.372,-1,5
867,6.30151,5.358,-1,5
868,6.30684,5.325,-1,5
869,6.31213,5.295,-1,5
870,6.31741,5.274,-1,5
871,6.32267,5.263,-1,5
872,6.32791,5.243,-1,5
873,6.33313,5.212,-1,5
