cnt,pos,speed,Dir,Force,
1,4.55541,1.020,-1,5
2,4.55646,1.047,-1,5
3,4.55752,1.065,-1,5
4,4.55859,1.065,-1,5
5,4.55965,1.063,-1,5
6,4.56074,1.088,-1,5
7,4.56186,1.120,-1,5
8,4.56299,1.132,-1,5
9,4.56411,1.123,-1,5
10,4.56523,1.119,-1,5
11,4.56638,1.145,-1,5
12,4.56755,1.176,-1,5
13,4.56873,1.180,-1,5
14,4.56991,1.175,-1,5
15,4.57109,1.180,-1,5
16,4.57228,1.195,-1,5
17,4.57349,1.211,-1,5
18,4.57471,1.217,-1,5
19,4.57593,1.219,-1,5
20,4.57716,1.228,-1,5
21,4.57839,1.234,-1,5
22,4.57964,1.246,-1,5
23,4.58214,1.253,-1,5
24,4.58339,1.248,-1,5
25,4.58466,1.264,-1,5
26,4.58594,1.280,-1,5
27,4.58722,1.280,-1,5
28,4.58849,1.271,-1,5
29,4.58976,1.272,-1,5
30,4.59105,1.290,-1,5
31,4.59234,1.296,-1,5
32,4.59363,1.291,-1,5
33,4.59492,1.291,-1,5
34,4.59622,1.295,-1,5
35,4.59752,1.300,-1,5
36,4.59882,1.305,-1,5
37,4.60013,1.308,-1,5
38,4.60143,1.301,-1,5
39,4.60273,1.299,-1,5
40,4.60404,1.310,-1,5
41,4.60536,1.316,-1,5
42,4.60666,1.305,-1,5
43,4.60797,1.302,-1,5
44,4.60928,1.314,-1,5
45,4.61060,1.317,-1,5
46,4.61190,1.307,-1,5
47,4.61320,1.300,-1,5
48,4.61451,1.308,-1,5
49,4.61582,1.311,-1,5
50,4.61844,1.308,-1,5
51,4.61975,1.303,-1,5
52,4.62104,1.295,-1,5
53,4.62234,1.301,-1,5
54,4.62365,1.312,-1,5
55,4.62496,1.293,-1,5
56,4.62626,1.292,-1,5
57,4.62885,1.301,-1,5
58,4.63015,1.297,-1,5
59,4.63144,1.292,-1,5
60,4.63273,1.296,-1,5
61,4.63403,1.293,-1,5
62,4.63531,1.284,-1,5
63,4.63660,1.287,-1,5
64,4.63788,1.287,-1,5
65,4.63917,1.285,-1,5
66,4.64045,1.282,-1,5
67,4.64173,1.280,-1,5
68,4.64301,1.281,-1,5
69,4.64429,1.275,-1,5
70,4.64556,1.271,-1,5
71,4.64683,1.277,-1,5
72,4.64811,1.279,-1,5
73,4.64938,1.269,-1,5
74,4.65065,1.270,-1,5
75,4.65193,1.272,-1,5
76,4.65320,1.272,-1,5
77,4.65447,1.268,-1,5
78,4.65574,1.271,-1,5
79,4.65701,1.278,-1,5
80,4.65955,1.268,-1,5
81,4.66083,1.273,-1,5
82,4.66210,1.276,-1,5
83,4.66338,1.277,-1,5
84,4.66465,1.283,-1,5
85,4.66722,1.282,-1,5
86,4.66849,1.276,-1,5
87,4.66978,1.281,-1,5
88,4.67107,1.291,-1,5
89,4.67236,1.293,-1,5
90,4.67365,1.291,-1,5
91,4.67495,1.295,-1,5
92,4.67624,1.297,-1,5
93,4.67754,1.298,-1,5
94,4.67885,1.307,-1,5
95,4.68017,1.318,-1,5
96,4.68148,1.319,-1,5
97,4.68280,1.313,-1,5
98,4.68412,1.322,-1,5
99,4.68545,1.334,-1,5
100,4.68679,1.337,-1,5
101,4.68813,1.341,-1,5
102,4.68948,1.349,-1,5
103,4.69083,1.352,-1,5
104,4.69219,1.353,-1,5
105,4.69493,1.376,-1,5
106,4.69631,1.381,-1,5
107,4.69769,1.381,-1,5
108,4.69908,1.388,-1,5
109,4.70047,1.393,-1,5
110,4.70329,1.419,-1,5
111,4.70472,1.425,-1,5
112,4.70613,1.418,-1,5
113,4.70756,1.422,-1,5
114,4.70900,1.441,-1,5
115,4.71045,1.453,-1,5
116,4.71191,1.460,-1,5
117,4.71337,1.463,-1,5
118,4.71484,1.462,-1,5
119,4.71631,1.475,-1,5
120,4.71780,1.492,-1,5
121,4.71931,1.502,-1,5
122,4.72081,1.501,-1,5
123,4.72231,1.507,-1,5
124,4.72383,1.519,-1,5
125,4.72536,1.525,-1,5
126,4.72690,1.538,-1,5
127,4.72844,1.547,-1,5
128,4.72999,1.549,-1,5
129,4.73312,1.568,-1,5
130,4.73469,1.574,-1,5
131,4.73628,1.590,-1,5
132,4.73788,1.600,-1,5
133,4.73948,1.600,-1,5
134,4.74109,1.607,-1,5
135,4.74271,1.623,-1,5
136,4.74599,1.643,-1,5
137,4.74764,1.643,-1,5
138,4.74929,1.651,-1,5
139,4.75096,1.675,-1,5
140,4.75265,1.686,-1,5
141,4.75433,1.682,-1,5
142,4.75602,1.686,-1,5
143,4.75772,1.704,-1,5
144,4.75945,1.728,-1,5
145,4.76118,1.734,-1,5
146,4.76291,1.725,-1,5
147,4.76464,1.733,-1,5
148,4.76640,1.759,-1,5
149,4.76818,1.780,-1,5
150,4.76996,1.783,-1,5
151,4.77173,1.773,-1,5
152,4.77352,1.787,-1,5
153,4.77534,1.818,-1,5
154,4.77717,1.835,-1,5
155,4.77901,1.832,-1,5
156,4.78083,1.827,-1,5
157,4.78268,1.847,-1,5
158,4.78645,1.887,-1,5
159,4.78833,1.884,-1,5
160,4.79022,1.890,-1,5
161,4.79213,1.911,-1,5
162,4.79407,1.940,-1,5
163,4.79601,1.944,-1,5
164,4.79796,1.948,-1,5
165,4.79992,1.958,-1,5
166,4.80391,2.004,-1,5
167,4.80591,2.005,-1,5
168,4.80793,2.017,-1,5
169,4.80996,2.034,-1,5
170,4.81201,2.052,-1,5
171,4.81408,2.069,-1,5
172,4.81616,2.079,-1,5
173,4.81826,2.096,-1,5
174,4.82037,2.109,-1,5
175,4.82249,2.126,-1,5
176,4.82464,2.146,-1,5
177,4.82680,2.163,-1,5
178,4.82898,2.175,-1,5
179,4.83117,2.190,-1,5
180,4.83338,2.212,-1,5
181,4.83561,2.232,-1,5
182,4.83786,2.247,-1,5
183,4.84012,2.259,-1,5
184,4.84239,2.275,-1,5
185,4.84470,2.303,-1,5
186,4.84702,2.325,-1,5
187,4.84936,2.347,-1,5
188,4.85408,2.372,-1,5
189,4.85648,2.400,-1,5
190,4.85889,2.416,-1,5
191,4.86132,2.425,-1,5
192,4.86377,2.449,-1,5
193,4.86624,2.478,-1,5
194,4.86874,2.495,-1,5
195,4.87125,2.531,-1,5
196,4.87633,2.553,-1,5
197,4.87891,2.578,-1,5
198,4.88150,2.596,-1,5
199,4.88412,2.611,-1,5
200,4.88675,2.638,-1,5
201,4.88942,2.663,-1,5
202,4.89210,2.683,-1,5
203,4.89480,2.705,-1,5
204,4.89753,2.726,-1,5
205,4.90028,2.748,-1,5
206,4.90306,2.778,-1,5
207,4.90585,2.798,-1,5
208,4.90867,2.815,-1,5
209,4.91151,2.843,-1,5
210,4.91438,2.871,-1,5
211,4.91728,2.895,-1,5
212,4.92019,2.916,-1,5
213,4.92313,2.938,-1,5
214,4.92610,2.964,-1,5
215,4.92909,2.992,-1,5
216,4.93211,3.020,-1,5
217,4.93821,3.059,-1,5
218,4.94130,3.093,-1,5
219,4.94442,3.117,-1,5
220,4.94755,3.139,-1,5
221,4.95072,3.161,-1,5
222,4.95390,3.188,-1,5
223,4.95711,3.211,-1,5
224,4.96035,3.237,-1,5
225,4.96689,3.283,-1,5
226,4.97019,3.306,-1,5
227,4.97352,3.331,-1,5
228,4.97687,3.347,-1,5
229,4.98025,3.375,-1,5
230,4.98364,3.397,-1,5
231,4.98706,3.416,-1,5
232,4.99050,3.441,-1,5
233,4.99396,3.458,-1,5
234,4.99744,3.481,-1,5
235,5.00094,3.498,-1,5
236,5.00445,3.518,-1,5
237,5.00799,3.536,-1,5
238,5.01155,3.556,-1,5
239,5.01512,3.572,-1,5
240,5.01871,3.589,-1,5
241,5.02231,3.602,-1,5
242,5.02956,3.632,-1,5
243,5.03320,3.646,-1,5
244,5.03686,3.659,-1,5
245,5.04053,3.679,-1,5
246,5.04791,3.693,-1,5
247,5.05161,3.703,-1,5
248,5.05532,3.712,-1,5
249,5.05904,3.719,-1,5
250,5.06276,3.724,-1,5
251,5.06650,3.737,-1,5
252,5.07024,3.738,-1,5
253,5.07398,3.745,-1,5
254,5.07773,3.750,-1,5
255,5.08149,3.754,-1,5
256,5.08524,3.758,-1,5
257,5.08900,3.755,-1,5
258,5.09276,3.760,-1,5
259,5.09652,3.762,-1,5
260,5.10028,3.760,-1,5
261,5.10404,3.763,-1,5
262,5.10780,3.758,-1,5
263,5.11156,3.758,-1,5
264,5.11532,3.757,-1,5
265,5.11907,3.753,-1,5
266,5.12657,3.747,-1,5
267,5.13032,3.748,-1,5
268,5.13406,3.740,-1,5
269,5.13779,3.735,-1,5
270,5.14153,3.732,-1,5
271,5.14525,3.725,-1,5
272,5.14897,3.719,-1,5
273,5.15638,3.703,-1,5
274,5.16008,3.699,-1,5
275,5.16377,3.688,-1,5
276,5.16745,3.680,-1,5
277,5.17112,3.673,-1,5
278,5.17479,3.661,-1,5
279,5.17844,3.653,-1,5
280,5.18208,3.644,-1,5
281,5.18572,3.638,-1,5
282,5.18934,3.625,-1,5
283,5.19296,3.614,-1,5
284,5.19656,3.603,-1,5
285,5.20015,3.592,-1,5
286,5.20374,3.582,-1,5
287,5.20731,3.571,-1,5
288,5.21086,3.556,-1,5
289,5.21440,3.543,-1,5
290,5.21794,3.532,-1,5
291,5.22146,3.521,-1,5
292,5.22496,3.507,-1,5
293,5.22845,3.476,-1,5
294,5.23540,3.467,-1,5
295,5.23885,3.435,-1,5
296,5.24570,3.421,-1,5
297,5.24910,3.403,-1,5
298,5.25250,3.394,-1,5
299,5.25587,3.376,-1,5
300,5.25923,3.360,-1,5
301,5.26258,3.345,-1,5
302,5.26591,3.331,-1,5
303,5.26922,3.311,-1,5
304,5.27252,3.299,-1,5
305,5.27580,3.281,-1,5
306,5.27907,3.267,-1,5
307,5.28232,3.251,-1,5
308,5.28555,3.232,-1,5
309,5.28877,3.218,-1,5
310,5.29197,3.200,-1,5
311,5.29515,3.185,-1,5
312,5.29832,3.171,-1,5
313,5.30148,3.152,-1,5
314,5.30461,3.132,-1,5
315,5.30773,3.104,-1,5
316,5.31392,3.087,-1,5
317,5.31699,3.071,-1,5
318,5.32005,3.057,-1,5
319,5.32309,3.041,-1,5
320,5.32612,3.028,-1,5
321,5.32913,3.014,-1,5
322,5.33213,2.998,-1,5
323,5.33511,2.973,-1,5
324,5.34104,2.956,-1,5
325,5.34399,2.947,-1,5
326,5.34692,2.933,-1,5
327,5.34984,2.920,-1,5
328,5.35275,2.908,-1,5
329,5.35565,2.899,-1,5
330,5.35854,2.891,-1,5
331,5.36142,2.877,-1,5
332,5.36428,2.865,-1,5
333,5.36714,2.857,-1,5
334,5.36999,2.849,-1,5
335,5.37283,2.840,-1,5
336,5.37567,2.836,-1,5
337,5.37849,2.822,-1,5
338,5.38130,2.813,-1,5
339,5.38411,2.811,-1,5
340,5.38692,2.806,-1,5
341,5.38972,2.799,-1,5
342,5.39251,2.791,-1,5
343,5.39529,2.785,-1,5
344,5.40085,2.778,-1,5
345,5.40363,2.776,-1,5
346,5.40640,2.761,-1,5
347,5.41193,2.764,-1,5
348,5.41469,2.765,-1,5
349,5.41745,2.761,-1,5
350,5.42021,2.758,-1,5
351,5.42297,2.756,-1,5
352,5.42572,2.752,-1,5
353,5.42847,2.754,-1,5
354,5.43123,2.756,-1,5
355,5.43398,2.752,-1,5
356,5.43673,2.751,-1,5
357,5.43949,2.752,-1,5
358,5.44224,2.752,-1,5
359,5.44499,2.753,-1,5
360,5.44774,2.753,-1,5
361,5.45050,2.753,-1,5
362,5.45325,2.756,-1,5
363,5.45601,2.755,-1,5
364,5.45877,2.760,-1,5
365,5.46153,2.761,-1,5
366,5.46429,2.760,-1,5
367,5.46705,2.763,-1,5
368,5.46982,2.770,-1,5
369,5.47536,2.770,-1,5
370,5.47814,2.775,-1,5
371,5.48092,2.777,-1,5
372,5.48370,2.784,-1,5
373,5.48927,2.784,-1,5
374,5.49206,2.789,-1,5
375,5.49485,2.792,-1,5
376,5.49765,2.798,-1,5
377,5.50045,2.802,-1,5
378,5.50325,2.800,-1,5
379,5.50606,2.807,-1,5
380,5.50887,2.810,-1,5
381,5.51168,2.812,-1,5
382,5.51450,2.816,-1,5
383,5.51732,2.822,-1,5
384,5.52014,2.821,-1,5
385,5.52296,2.823,-1,5
386,5.52579,2.829,-1,5
387,5.52863,2.834,-1,5
388,5.53146,2.834,-1,5
389,5.53430,2.837,-1,5
390,5.53714,2.841,-1,5
391,5.53998,2.847,-1,5
392,5.54283,2.848,-1,5
393,5.54854,2.856,-1,5
394,5.55139,2.854,-1,5
395,5.55425,2.863,-1,5
396,5.55712,2.865,-1,5
397,5.55998,2.863,-1,5
398,5.56285,2.876,-1,5
399,5.56860,2.872,-1,5
400,5.57148,2.880,-1,5
401,5.57436,2.880,-1,5
402,5.57724,2.885,-1,5
403,5.58013,2.888,-1,5
404,5.58302,2.891,-1,5
405,5.58591,2.893,-1,5
406,5.58881,2.895,-1,5
407,5.59171,2.899,-1,5
408,5.59461,2.903,-1,5
409,5.59752,2.904,-1,5
410,5.60042,2.907,-1,5
411,5.60334,2.912,-1,5
412,5.60625,2.914,-1,5
413,5.60917,2.921,-1,5
414,5.61210,2.926,-1,5
415,5.61502,2.926,-1,5
416,5.61795,2.931,-1,5
417,5.62089,2.939,-1,5
418,5.62384,2.942,-1,5
419,5.62678,2.949,-1,5
420,5.63269,2.957,-1,5
421,5.63566,2.963,-1,5
422,5.63863,2.977,-1,5
423,5.64161,2.982,-1,5
424,5.64758,2.990,-1,5
425,5.65058,2.997,-1,5
426,5.65358,3.005,-1,5
427,5.65659,3.014,-1,5
428,5.65962,3.023,-1,5
429,5.66264,3.028,-1,5
430,5.66568,3.038,-1,5
431,5.66873,3.049,-1,5
432,5.67179,3.059,-1,5
433,5.67486,3.068,-1,5
434,5.67794,3.077,-1,5
435,5.68103,3.092,-1,5
436,5.68413,3.103,-1,5
437,5.68725,3.118,-1,5
438,5.69038,3.128,-1,5
439,5.69351,3.139,-1,5
440,5.69667,3.156,-1,5
441,5.69984,3.174,-1,5
442,5.70303,3.184,-1,5
443,5.70623,3.204,-1,5
444,5.70945,3.216,-1,5
445,5.71269,3.238,-1,5
446,5.71594,3.256,-1,5
447,5.72251,3.294,-1,5
448,5.72583,3.314,-1,5
449,5.72916,3.336,-1,5
450,5.73252,3.378,-1,5
451,5.73930,3.403,-1,5
452,5.74272,3.426,-1,5
453,5.74617,3.449,-1,5
454,5.74964,3.471,-1,5
455,5.75315,3.501,-1,5
456,5.75667,3.523,-1,5
457,5.76022,3.547,-1,5
458,5.76379,3.572,-1,5
459,5.76738,3.595,-1,5
460,5.77101,3.625,-1,5
461,5.77466,3.650,-1,5
462,5.77833,3.672,-1,5
463,5.78203,3.697,-1,5
464,5.78576,3.728,-1,5
465,5.78950,3.749,-1,5
466,5.79328,3.776,-1,5
467,5.79708,3.800,-1,5
468,5.80091,3.828,-1,5
469,5.80476,3.856,-1,5
470,5.80865,3.906,-1,5
471,5.81649,3.933,-1,5
472,5.82045,3.966,-1,5
473,5.82444,3.990,-1,5
474,5.82846,4.016,-1,5
475,5.83250,4.075,-1,5
476,5.84067,4.099,-1,5
477,5.84480,4.125,-1,5
478,5.84895,4.150,-1,5
479,5.85313,4.180,-1,5
480,5.85733,4.204,-1,5
481,5.86156,4.230,-1,5
482,5.86582,4.255,-1,5
483,5.87010,4.277,-1,5
484,5.87440,4.310,-1,5
485,5.87874,4.332,-1,5
486,5.88309,4.353,-1,5
487,5.88747,4.376,-1,5
488,5.89187,4.403,-1,5
489,5.89630,4.427,-1,5
490,5.90075,4.449,-1,5
491,5.90522,4.469,-1,5
492,5.90971,4.491,-1,5
493,5.91422,4.510,-1,5
494,5.91875,4.532,-1,5
495,5.92330,4.549,-1,5
496,5.92786,4.567,-1,5
497,5.93245,4.599,-1,5
498,5.94166,4.613,-1,5
499,5.94629,4.624,-1,5
500,5.95093,4.643,-1,5
501,5.95559,4.666,-1,5
502,5.96493,4.674,-1,5
503,5.96961,4.684,-1,5
504,5.97430,4.693,-1,5
505,5.97901,4.705,-1,5
506,5.98372,4.711,-1,5
507,5.98843,4.716,-1,5
508,5.99315,4.716,-1,5
509,5.99787,4.722,-1,5
510,6.00260,4.725,-1,5
511,6.00733,4.729,-1,5
512,6.01205,4.729,-1,5
513,6.01678,4.729,-1,5
514,6.02151,4.725,-1,5
515,6.02623,4.724,-1,5
516,6.03096,4.726,-1,5
517,6.03568,4.726,-1,5
518,6.04040,4.720,-1,5
519,6.04512,4.713,-1,5
520,6.04983,4.709,-1,5
521,6.05453,4.701,-1,5
522,6.05923,4.699,-1,5
523,6.06860,4.682,-1,5
524,6.07327,4.670,-1,5
525,6.07793,4.661,-1,5
526,6.08258,4.651,-1,5
527,6.08722,4.640,-1,5
528,6.09185,4.628,-1,5
529,6.10107,4.603,-1,5
530,6.10566,4.590,-1,5
531,6.11024,4.578,-1,5
532,6.11480,4.563,-1,5
533,6.11935,4.549,-1,5
534,6.12388,4.529,-1,5
535,6.12840,4.518,-1,5
536,6.13290,4.502,-1,5
537,6.13738,4.485,-1,5
538,6.14185,4.466,-1,5
539,6.14630,4.448,-1,5
540,6.15073,4.432,-1,5
541,6.15514,4.417,-1,5
542,6.15954,4.396,-1,5
543,6.16392,4.374,-1,5
544,6.16827,4.356,-1,5
545,6.17261,4.340,-1,5
546,6.17693,4.322,-1,5
547,6.18124,4.302,-1,5
548,6.18552,4.284,-1,5
549,6.19402,4.242,-1,5
550,6.19825,4.223,-1,5
551,6.20245,4.205,-1,5
552,6.20664,4.183,-1,5
553,6.21080,4.163,-1,5
554,6.21494,4.143,-1,5
555,6.21906,4.101,-1,5
556,6.22724,4.080,-1,5
557,6.23130,4.060,-1,5
558,6.23534,4.042,-1,5
559,6.23937,4.022,-1,5
560,6.24337,4.002,-1,5
561,6.24735,3.980,-1,5
562,6.25131,3.962,-1,5
563,6.25525,3.945,-1,5
564,6.25918,3.927,-1,5
565,6.26309,3.909,-1,5
566,6.26698,3.888,-1,5
567,6.27085,3.875,-1,5
568,6.27471,3.854,-1,5
569,6.27855,3.839,-1,5
570,6.28237,3.821,-1,5
571,6.28618,3.808,-1,5
572,6.28997,3.793,-1,5
573,6.29375,3.776,-1,5
574,6.29750,3.760,-1,5
575,6.30126,3.750,-1,5
576,6.30499,3.731,-1,5
577,6.30871,3.706,-1,5
578,6.31611,3.696,-1,5
579,6.31980,3.688,-1,5
580,6.32348,3.664,-1,5
581,6.33079,3.652,-1,5
582,6.33444,3.644,-1,5
583,6.33807,3.637,-1,5
584,6.34170,3.627,-1,5
585,6.34532,3.615,-1,5
586,6.34893,3.611,-1,5
587,6.35253,3.603,-1,5
588,6.35613,3.598,-1,5
589,6.35971,3.587,-1,5
590,6.36330,3.580,-1,5
591,6.36687,3.577,-1,5
592,6.37044,3.572,-1,5
593,6.37401,3.567,-1,5
594,6.37757,3.560,-1,5
595,6.38113,3.557,-1,5
596,6.38468,3.555,-1,5
597,6.38823,3.551,-1,5
598,6.39178,3.545,-1,5
599,6.39532,3.544,-1,5
600,6.39886,3.540,-1,5
601,6.40241,3.542,-1,5
602,6.40594,3.539,-1,5
603,6.40948,3.535,-1,5
604,6.41301,3.534,-1,5
605,6.42008,3.534,-1,5
606,6.42361,3.532,-1,5
607,6.42714,3.528,-1,5
608,6.43067,3.530,-1,5
609,6.43773,3.532,-1,5
610,6.44126,3.530,-1,5
611,6.44479,3.528,-1,5
612,6.44832,3.531,-1,5
613,6.45185,3.534,-1,5
614,6.45539,3.534,-1,5
615,6.45893,3.539,-1,5
616,6.46247,3.540,-1,5
617,6.46601,3.541,-1,5
618,6.46955,3.546,-1,5
619,6.47310,3.549,-1,5
620,6.47666,3.554,-1,5
621,6.48021,3.556,-1,5
622,6.48377,3.559,-1,5
623,6.48733,3.562,-1,5
624,6.49090,3.570,-1,5
625,6.49448,3.573,-1,5
626,6.49805,3.576,-1,5
627,6.50163,3.581,-1,5
628,6.50522,3.589,-1,5
629,6.50882,3.596,-1,5
630,6.51242,3.598,-1,5
631,6.51602,3.607,-1,5
632,6.51964,3.621,-1,5
633,6.52688,3.627,-1,5
634,6.53052,3.634,-1,5
635,6.53416,3.642,-1,5
636,6.54147,3.659,-1,5
637,6.54514,3.668,-1,5
638,6.54881,3.675,-1,5
639,6.55250,3.689,-1,5
640,6.55620,3.695,-1,5
641,6.55990,3.702,-1,5
642,6.56361,3.716,-1,5
643,6.56734,3.726,-1,5
644,6.57108,3.737,-1,5
645,6.57482,3.746,-1,5
646,6.57858,3.760,-1,5
647,6.58235,3.771,-1,5
648,6.58614,3.783,-1,5
649,6.58993,3.795,-1,5
650,6.59374,3.813,-1,5
651,6.59757,3.823,-1,5
652,6.60141,3.839,-1,5
653,6.60526,3.853,-1,5
654,6.60913,3.869,-1,5
655,6.61301,3.882,-1,5
656,6.61691,3.899,-1,5
657,6.62082,3.915,-1,5
658,6.62475,3.930,-1,5
659,6.63267,3.967,-1,5
660,6.63665,3.983,-1,5
661,6.64065,3.999,-1,5
662,6.64467,4.015,-1,5
663,6.64870,4.035,-1,5
664,6.65276,4.072,-1,5
665,6.66092,4.090,-1,5
666,6.66503,4.109,-1,5
667,6.66916,4.131,-1,5
668,6.67331,4.149,-1,5
669,6.67748,4.171,-1,5
670,6.68167,4.190,-1,5
671,6.68588,4.212,-1,5
672,6.69011,4.232,-1,5
673,6.69437,4.252,-1,5
674,6.69864,4.275,-1,5
675,6.70294,4.297,-1,5
676,6.70726,4.317,-1,5
677,6.71160,4.340,-1,5
678,6.71596,4.362,-1,5
679,6.72034,4.384,-1,5
680,6.72475,4.408,-1,5
681,6.72918,4.430,-1,5
682,6.73364,4.455,-1,5
683,6.73811,4.476,-1,5
684,6.74262,4.503,-1,5
685,6.74715,4.529,-1,5
686,6.75628,4.576,-1,5
687,6.76088,4.599,-1,5
688,6.76551,4.630,-1,5
689,6.77016,4.654,-1,5
690,6.77484,4.679,-1,5
691,6.77954,4.702,-1,5
692,6.78427,4.729,-1,5
693,6.79380,4.782,-1,5
694,6.79861,4.806,-1,5
695,6.80344,4.831,-1,5
696,6.80830,4.856,-1,5
697,6.81318,4.881,-1,5
698,6.81808,4.903,-1,5
699,6.82301,4.929,-1,5
700,6.82796,4.954,-1,5
701,6.83294,4.977,-1,5
702,6.83794,5.000,-1,5
703,6.84296,5.022,-1,5
704,6.84800,5.042,-1,5
705,6.85306,5.061,-1,5
706,6.85815,5.086,-1,5
707,6.86326,5.106,-1,5
708,6.86838,5.122,-1,5
709,6.87352,5.138,-1,5
710,6.87868,5.162,-1,5
711,6.88386,5.180,-1,5
712,6.88906,5.199,-1,5
713,6.89427,5.213,-1,5
714,6.90475,5.246,-1,5
715,6.91001,5.261,-1,5
716,6.91529,5.277,-1,5
717,6.92058,5.290,-1,5
718,6.92587,5.311,-1,5
719,6.93650,5.319,-1,5
720,6.94184,5.332,-1,5
721,6.94184,5.343,-1,5
722,6.95253,5.351,-1,5
723,6.95789,5.357,-1,5
724,6.96325,5.362,-1,5
725,6.96862,5.375,-1,5
726,6.97400,5.374,-1,5
727,6.97938,5.382,-1,5
728,6.98476,5.380,-1,5
729,6.99015,5.388,-1,5
730,6.99554,5.387,-1,5
731,7.00093,5.392,-1,5
732,7.00632,5.388,-1,5
733,7.01171,5.391,-1,5
734,7.01709,5.386,-1,5
735,7.02248,5.389,-1,5
736,7.02787,5.384,-1,5
737,7.03325,5.385,-1,5
738,7.03863,5.379,-1,5
739,7.04401,5.377,-1,5
740,7.04937,5.365,-1,5
741,7.06009,5.356,-1,5
742,7.06544,5.348,-1,5
743,7.07077,5.335,-1,5
744,7.08141,5.317,-1,5
745,7.08672,5.309,-1,5
746,7.09202,5.302,-1,5
747,7.09730,5.281,-1,5
748,7.10257,5.266,-1,5
749,7.10782,5.252,-1,5
750,7.11307,5.247,-1,5
751,7.11830,5.235,-1,5
752,7.12351,5.213,-1,5
753,7.12871,5.193,-1,5
754,7.13388,5.176,-1,5
755,7.13905,5.164,-1,5
756,7.14420,5.152,-1,5
757,7.14933,5.132,-1,5
758,7.15444,5.106,-1,5
759,7.15952,5.085,-1,5
760,7.16459,5.071,-1,5
761,7.16966,5.063,-1,5
762,7.17470,5.039,-1,5
763,7.17971,5.011,-1,5
764,7.18469,4.985,-1,5
765,7.18967,4.974,-1,5
766,7.19462,4.958,-1,5
767,7.19956,4.938,-1,5
768,7.20447,4.905,-1,5
769,7.20935,4.879,-1,5
770,7.21907,4.854,-1,5
771,7.22389,4.824,-1,5
772,7.22869,4.797,-1,5
773,7.23823,4.760,-1,5
774,7.24297,4.742,-1,5
775,7.24769,4.717,-1,5
776,7.25238,4.693,-1,5
777,7.25705,4.669,-1,5
778,7.26170,4.657,-1,5
779,7.26634,4.633,-1,5
780,7.27095,4.610,-1,5
781,7.27553,4.582,-1,5
782,7.28010,4.570,-1,5
783,7.28465,4.551,-1,5
784,7.28918,4.532,-1,5
785,7.29369,4.507,-1,5
786,7.29818,4.491,-1,5
787,7.30266,4.476,-1,5
788,7.30712,4.462,-1,5
789,7.31157,4.447,-1,5
790,7.31599,4.427,-1,5
791,7.32040,4.411,-1,5
792,7.32480,4.400,-1,5
793,7.32919,4.390,-1,5
794,7.33357,4.372,-1,5
795,7.33792,4.357,-1,5
796,7.34227,4.347,-1,5
797,7.34661,4.339,-1,5
798,7.35093,4.325,-1,5
799,7.35525,4.316,-1,5
800,7.36385,4.294,-1,5
801,7.36814,4.291,-1,5
802,7.37242,4.285,-1,5
803,7.38096,4.266,-1,5
804,7.38523,4.268,-1,5
805,7.38949,4.263,-1,5
806,7.39375,4.260,-1,5
807,7.39801,4.253,-1,5
808,7.40226,4.251,-1,5
809,7.40651,4.252,-1,5
810,7.41076,4.252,-1,5
811,7.41501,4.244,-1,5
812,7.41925,4.247,-1,5
813,7.42350,4.245,-1,5
814,7.42775,4.250,-1,5
815,7.43199,4.246,-1,5
816,7.43623,4.241,-1,5
817,7.44048,4.250,-1,5
818,7.44474,4.254,-1,5
819,7.44899,4.254,-1,5
820,7.45325,4.255,-1,5
821,7.45750,4.255,-1,5
822,7.46176,4.261,-1,5
823,7.46603,4.264,-1,5
824,7.47029,4.268,-1,5
825,7.47456,4.268,-1,5
826,7.47883,4.270,-1,5
827,7.48311,4.276,-1,5
828,7.49166,4.277,-1,5
829,7.49594,4.280,-1,5
830,7.50023,4.285,-1,5
831,7.50452,4.290,-1,5
832,7.50881,4.292,-1,5
833,7.51740,4.297,-1,5
834,7.52170,4.301,-1,5
835,7.52600,4.302,-1,5
836,7.53030,4.305,-1,5
837,7.53461,4.307,-1,5
838,7.53892,4.312,-1,5
839,7.54324,4.318,-1,5
840,7.54756,4.318,-1,5
841,7.55188,4.320,-1,5
842,7.55620,4.325,-1,5
843,7.56053,4.328,-1,5
844,7.56487,4.334,-1,5
845,7.56920,4.334,-1,5
846,7.57353,4.335,-1,5
847,7.57788,4.341,-1,5
848,7.58223,4.351,-1,5
849,7.58658,4.350,-1,5
850,7.59093,4.353,-1,5
851,7.59529,4.360,-1,5
852,7.59966,4.367,-1,5
853,7.60403,4.372,-1,5
854,7.60840,4.375,-1,5
855,7.61278,4.379,-1,5
856,7.61717,4.383,-1,5
857,7.62156,4.392,-1,5
858,7.63036,4.404,-1,5
859,7.63476,4.404,-1,5
860,7.63918,4.413,-1,5
861,7.64360,4.419,-1,5
862,7.65246,4.433,-1,5
863,7.65690,4.438,-1,5
864,7.66134,4.447,-1,5
865,7.66580,4.456,-1,5
866,7.67026,4.465,-1,5
867,7.67474,4.472,-1,5
868,7.67922,4.482,-1,5
869,7.68371,4.490,-1,5
870,7.68821,4.500,-1,5
871,7.69272,4.508,-1,5
872,7.69723,4.519,-1,5
873,7.70176,4.527,-1,5
