cnt,pos,speed,Dir,Force,
1,4.06138,1.010,-1,3
2,4.06239,1.006,-1,3
3,4.06339,1.003,-1,3
4,4.06440,1.008,-1,3
5,4.06542,1.020,-1,3
6,4.06645,1.031,-1,3
7,4.06748,1.029,-1,3
8,4.06850,1.020,-1,3
9,4.06952,1.024,-1,3
10,4.07056,1.041,-1,3
11,4.07161,1.047,-1,3
12,4.07265,1.039,-1,3
13,4.07368,1.031,-1,3
14,4.07472,1.046,-1,3
15,4.07579,1.064,-1,3
16,4.07685,1.063,-1,3
17,4.07790,1.051,-1,3
18,4.07895,1.046,-1,3
19,4.08001,1.063,-1,3
20,4.08109,1.079,-1,3
21,4.08216,1.076,-1,3
22,4.08323,1.065,-1,3
23,4.08430,1.066,-1,3
24,4.08538,1.086,-1,3
25,4.08648,1.094,-1,3
26,4.08756,1.074,-1,3
27,4.08972,1.086,-1,3
28,4.09083,1.107,-1,3
29,4.09194,1.111,-1,3
30,4.09304,1.098,-1,3
31,4.09413,1.093,-1,3
32,4.09524,1.121,-1,3
33,4.09748,1.121,-1,3
34,4.09859,1.113,-1,3
35,4.09971,1.119,-1,3
36,4.10084,1.131,-1,3
37,4.10198,1.136,-1,3
38,4.10311,1.132,-1,3
39,4.10424,1.129,-1,3
40,4.10537,1.137,-1,3
41,4.10652,1.148,-1,3
42,4.10768,1.153,-1,3
43,4.10998,1.149,-1,3
44,4.11113,1.154,-1,3
45,4.11229,1.161,-1,3
46,4.11347,1.173,-1,3
47,4.11464,1.177,-1,3
48,4.11581,1.171,-1,3
49,4.11698,1.169,-1,3
50,4.11817,1.182,-1,3
51,4.11936,1.194,-1,3
52,4.12055,1.193,-1,3
53,4.12174,1.190,-1,3
54,4.12294,1.194,-1,3
55,4.12414,1.206,-1,3
56,4.12535,1.210,-1,3
57,4.12656,1.208,-1,3
58,4.12777,1.208,-1,3
59,4.12899,1.219,-1,3
60,4.13021,1.227,-1,3
61,4.13144,1.228,-1,3
62,4.13267,1.229,-1,3
63,4.13390,1.229,-1,3
64,4.13513,1.234,-1,3
65,4.13637,1.241,-1,3
66,4.13763,1.253,-1,3
67,4.13888,1.250,-1,3
68,4.14012,1.247,-1,3
69,4.14137,1.248,-1,3
70,4.14263,1.260,-1,3
71,4.14390,1.267,-1,3
72,4.14517,1.266,-1,3
73,4.14643,1.272,-1,3
74,4.14898,1.277,-1,3
75,4.15026,1.276,-1,3
76,4.15154,1.279,-1,3
77,4.15282,1.287,-1,3
78,4.15411,1.287,-1,3
79,4.15540,1.291,-1,3
80,4.15670,1.295,-1,3
81,4.15928,1.292,-1,3
82,4.16058,1.302,-1,3
83,4.16189,1.308,-1,3
84,4.16320,1.301,-1,3
85,4.16450,1.301,-1,3
86,4.16580,1.305,-1,3
87,4.16712,1.312,-1,3
88,4.16843,1.316,-1,3
89,4.16975,1.318,-1,3
90,4.17107,1.318,-1,3
91,4.17239,1.317,-1,3
92,4.17503,1.326,-1,3
93,4.17636,1.330,-1,3
94,4.17769,1.330,-1,3
95,4.17902,1.329,-1,3
96,4.18035,1.334,-1,3
97,4.18169,1.337,-1,3
98,4.18303,1.335,-1,3
99,4.18437,1.341,-1,3
100,4.18571,1.345,-1,3
101,4.18706,1.347,-1,3
102,4.18840,1.344,-1,3
103,4.18975,1.347,-1,3
104,4.19110,1.350,-1,3
105,4.19245,1.352,-1,3
106,4.19381,1.359,-1,3
107,4.19517,1.362,-1,3
108,4.19653,1.359,-1,3
109,4.19789,1.358,-1,3
110,4.19925,1.364,-1,3
111,4.20062,1.370,-1,3
112,4.20200,1.375,-1,3
113,4.20337,1.375,-1,3
114,4.20475,1.374,-1,3
115,4.20750,1.379,-1,3
116,4.20889,1.388,-1,3
117,4.21028,1.392,-1,3
118,4.21167,1.387,-1,3
119,4.21305,1.387,-1,3
120,4.21584,1.397,-1,3
121,4.21724,1.402,-1,3
122,4.21865,1.407,-1,3
123,4.22005,1.400,-1,3
124,4.22145,1.400,-1,3
125,4.22286,1.409,-1,3
126,4.22428,1.419,-1,3
127,4.22570,1.419,-1,3
128,4.22711,1.416,-1,3
129,4.22853,1.415,-1,3
130,4.22994,1.415,-1,3
131,4.23137,1.427,-1,3
132,4.23281,1.436,-1,3
133,4.23424,1.433,-1,3
134,4.23567,1.428,-1,3
135,4.23709,1.426,-1,3
136,4.23852,1.430,-1,3
137,4.23997,1.444,-1,3
138,4.24142,1.446,-1,3
139,4.24430,1.436,-1,3
140,4.24573,1.435,-1,3
141,4.24718,1.447,-1,3
142,4.25010,1.459,-1,3
143,4.25155,1.453,-1,3
144,4.25300,1.445,-1,3
145,4.25444,1.446,-1,3
146,4.25590,1.460,-1,3
147,4.25737,1.473,-1,3
148,4.25884,1.470,-1,3
149,4.26030,1.457,-1,3
150,4.26175,1.451,-1,3
151,4.26321,1.460,-1,3
152,4.26469,1.476,-1,3
153,4.26617,1.484,-1,3
154,4.26764,1.472,-1,3
155,4.26910,1.460,-1,3
156,4.27057,1.465,-1,3
157,4.27205,1.480,-1,3
158,4.27354,1.488,-1,3
159,4.27502,1.486,-1,3
160,4.27650,1.473,-1,3
161,4.27797,1.468,-1,3
162,4.27945,1.483,-1,3
163,4.28095,1.498,-1,3
164,4.28244,1.495,-1,3
165,4.28393,1.486,-1,3
166,4.28540,1.477,-1,3
167,4.28689,1.485,-1,3
168,4.28839,1.503,-1,3
169,4.28990,1.508,-1,3
170,4.29140,1.487,-1,3
171,4.29289,1.489,-1,3
172,4.29438,1.489,-1,3
173,4.29588,1.503,-1,3
174,4.29739,1.515,-1,3
175,4.29891,1.516,-1,3
176,4.30041,1.501,-1,3
177,4.30190,1.494,-1,3
178,4.30341,1.502,-1,3
179,4.30645,1.525,-1,3
180,4.30797,1.520,-1,3
181,4.30948,1.503,-1,3
182,4.31098,1.506,-1,3
183,4.31250,1.523,-1,3
184,4.31404,1.536,-1,3
185,4.31557,1.530,-1,3
186,4.31709,1.520,-1,3
187,4.31860,1.514,-1,3
188,4.32013,1.528,-1,3
189,4.32168,1.543,-1,3
190,4.32322,1.542,-1,3
191,4.32475,1.529,-1,3
192,4.32627,1.526,-1,3
193,4.32781,1.540,-1,3
194,4.32936,1.550,-1,3
195,4.33091,1.551,-1,3
196,4.33245,1.539,-1,3
197,4.33399,1.536,-1,3
198,4.33554,1.551,-1,3
199,4.33710,1.564,-1,3
200,4.33866,1.561,-1,3
201,4.34021,1.544,-1,3
202,4.34175,1.546,-1,3
203,4.34332,1.562,-1,3
204,4.34489,1.578,-1,3
205,4.34647,1.571,-1,3
206,4.34802,1.557,-1,3
207,4.34958,1.554,-1,3
208,4.35115,1.574,-1,3
209,4.35432,1.581,-1,3
210,4.35432,1.566,-1,3
211,4.35589,1.565,-1,3
212,4.35745,1.584,-1,3
213,4.35904,1.584,-1,3
214,4.36064,1.600,-1,3
215,4.36223,1.590,-1,3
216,4.36380,1.576,-1,3
217,4.36697,1.597,-1,3
218,4.36858,1.610,-1,3
219,4.37019,1.601,-1,3
220,4.37177,1.583,-1,3
221,4.37336,1.588,-1,3
222,4.37497,1.620,-1,3
223,4.37820,1.610,-1,3
224,4.37979,1.594,-1,3
225,4.38139,1.599,-1,3
226,4.38302,1.626,-1,3
227,4.38465,1.636,-1,3
228,4.38627,1.607,-1,3
229,4.38788,1.615,-1,3
230,4.38950,1.615,-1,3
231,4.39113,1.637,-1,3
232,4.39278,1.652,-1,3
233,4.39442,1.640,-1,3
234,4.39605,1.624,-1,3
235,4.39768,1.630,-1,3
236,4.39933,1.653,-1,3
237,4.40266,1.662,-1,3
238,4.40431,1.647,-1,3
239,4.40596,1.651,-1,3
240,4.40763,1.675,-1,3
241,4.40932,1.689,-1,3
242,4.41101,1.684,-1,3
243,4.41268,1.676,-1,3
244,4.41436,1.680,-1,3
245,4.41606,1.697,-1,3
246,4.41777,1.710,-1,3
247,4.41948,1.711,-1,3
248,4.42119,1.712,-1,3
249,4.42291,1.714,-1,3
250,4.42463,1.726,-1,3
251,4.42637,1.738,-1,3
252,4.42812,1.746,-1,3
253,4.42987,1.751,-1,3
254,4.43163,1.762,-1,3
255,4.43339,1.762,-1,3
256,4.43516,1.773,-1,3
257,4.43695,1.788,-1,3
258,4.43875,1.803,-1,3
259,4.44056,1.811,-1,3
260,4.44237,1.809,-1,3
261,4.44419,1.821,-1,3
262,4.44604,1.844,-1,3
263,4.44790,1.860,-1,3
264,4.44977,1.869,-1,3
265,4.45164,1.874,-1,3
266,4.45353,1.887,-1,3
267,4.45544,1.929,-1,3
268,4.45931,1.945,-1,3
269,4.46127,1.953,-1,3
270,4.46324,1.970,-1,3
271,4.46522,1.987,-1,3
272,4.46724,2.015,-1,3
273,4.47133,2.054,-1,3
274,4.47340,2.069,-1,3
275,4.47549,2.086,-1,3
276,4.47761,2.123,-1,3
277,4.47976,2.152,-1,3
278,4.48193,2.171,-1,3
279,4.48412,2.190,-1,3
280,4.48634,2.219,-1,3
281,4.48860,2.253,-1,3
282,4.49088,2.281,-1,3
283,4.49319,2.312,-1,3
284,4.49553,2.339,-1,3
285,4.49789,2.366,-1,3
286,4.50029,2.396,-1,3
287,4.50272,2.434,-1,3
288,4.50519,2.468,-1,3
289,4.50769,2.500,-1,3
290,4.51023,2.566,-1,3
291,4.51539,2.600,-1,3
292,4.51803,2.641,-1,3
293,4.52071,2.678,-1,3
294,4.52342,2.712,-1,3
295,4.52896,2.787,-1,3
296,4.53178,2.821,-1,3
297,4.53464,2.867,-1,3
298,4.53755,2.902,-1,3
299,4.54049,2.945,-1,3
300,4.54347,2.979,-1,3
301,4.54649,3.020,-1,3
302,4.54955,3.060,-1,3
303,4.55265,3.101,-1,3
304,4.55579,3.137,-1,3
305,4.55897,3.182,-1,3
306,4.56219,3.215,-1,3
307,4.56544,3.257,-1,3
308,4.56874,3.297,-1,3
309,4.57207,3.332,-1,3
310,4.57545,3.374,-1,3
311,4.57885,3.408,-1,3
312,4.58229,3.441,-1,3
313,4.58577,3.480,-1,3
314,4.58929,3.515,-1,3
315,4.59284,3.547,-1,3
316,4.59642,3.580,-1,3
317,4.60003,3.610,-1,3
318,4.60367,3.643,-1,3
319,4.60734,3.671,-1,3
320,4.61104,3.700,-1,3
321,4.61477,3.727,-1,3
322,4.61852,3.751,-1,3
323,4.62230,3.779,-1,3
324,4.62610,3.804,-1,3
325,4.62993,3.826,-1,3
326,4.63764,3.868,-1,3
327,4.63764,3.890,-1,3
328,4.64153,3.907,-1,3
329,4.64544,3.907,-1,3
330,4.64936,3.922,-1,3
331,4.65330,3.942,-1,3
332,4.65726,3.956,-1,3
333,4.66123,3.973,-1,3
334,4.66521,3.986,-1,3
335,4.67322,4.010,-1,3
336,4.67725,4.023,-1,3
337,4.68128,4.036,-1,3
338,4.68533,4.046,-1,3
339,4.68938,4.054,-1,3
340,4.69345,4.062,-1,3
341,4.69752,4.070,-1,3
342,4.70160,4.082,-1,3
343,4.70568,4.087,-1,3
344,4.70978,4.091,-1,3
345,4.71387,4.098,-1,3
346,4.71797,4.101,-1,3
347,4.72208,4.107,-1,3
348,4.72619,4.109,-1,3
349,4.73030,4.111,-1,3
350,4.73441,4.111,-1,3
351,4.73853,4.114,-1,3
352,4.74264,4.115,-1,3
353,4.74676,4.116,-1,3
354,4.75087,4.111,-1,3
355,4.75498,4.110,-1,3
356,4.75908,4.106,-1,3
357,4.76319,4.104,-1,3
358,4.76729,4.103,-1,3
359,4.77139,4.100,-1,3
360,4.77548,4.090,-1,3
361,4.77956,4.082,-1,3
362,4.78364,4.078,-1,3
363,4.79177,4.060,-1,3
364,4.79581,4.045,-1,3
365,4.79985,4.036,-1,3
366,4.80788,4.008,-1,3
367,4.81188,3.998,-1,3
368,4.81586,3.982,-1,3
369,4.81983,3.969,-1,3
370,4.82379,3.957,-1,3
371,4.82773,3.939,-1,3
372,4.83165,3.924,-1,3
373,4.83556,3.913,-1,3
374,4.83947,3.903,-1,3
375,4.84335,3.885,-1,3
376,4.84722,3.870,-1,3
377,4.85108,3.856,-1,3
378,4.85492,3.840,-1,3
379,4.85874,3.828,-1,3
380,4.86256,3.813,-1,3
381,4.86636,3.801,-1,3
382,4.87014,3.782,-1,3
383,4.87391,3.767,-1,3
384,4.87766,3.755,-1,3
385,4.88141,3.745,-1,3
386,4.88514,3.728,-1,3
387,4.88885,3.712,-1,3
388,4.89254,3.697,-1,3
389,4.89623,3.683,-1,3
390,4.89990,3.673,-1,3
391,4.90356,3.660,-1,3
392,4.91083,3.627,-1,3
393,4.91444,3.616,-1,3
394,4.91805,3.601,-1,3
395,4.92521,3.572,-1,3
396,4.92877,3.560,-1,3
397,4.93231,3.545,-1,3
398,4.93585,3.535,-1,3
399,4.93936,3.517,-1,3
400,4.94287,3.504,-1,3
401,4.94636,3.488,-1,3
402,4.94983,3.474,-1,3
403,4.95329,3.464,-1,3
404,4.95674,3.446,-1,3
405,4.96359,3.416,-1,3
406,4.96700,3.407,-1,3
407,4.97039,3.396,-1,3
408,4.97377,3.361,-1,3
409,4.97713,3.361,-1,3
410,4.98048,3.351,-1,3
411,4.98382,3.337,-1,3
412,4.98714,3.325,-1,3
413,4.99045,3.310,-1,3
414,4.99375,3.281,-1,3
415,5.00030,3.271,-1,3
416,5.00355,3.253,-1,3
417,5.00680,3.244,-1,3
418,5.01002,3.225,-1,3
419,5.01324,3.214,-1,3
420,5.01644,3.199,-1,3
421,5.01962,3.184,-1,3
422,5.02279,3.173,-1,3
423,5.02595,3.160,-1,3
424,5.02910,3.143,-1,3
425,5.03222,3.127,-1,3
426,5.03534,3.116,-1,3
427,5.03844,3.099,-1,3
428,5.04153,3.088,-1,3
429,5.04460,3.076,-1,3
430,5.04766,3.062,-1,3
431,5.05071,3.046,-1,3
432,5.05374,3.034,-1,3
433,5.05676,3.007,-1,3
434,5.06276,2.992,-1,3
435,5.06574,2.979,-1,3
436,5.06871,2.965,-1,3
437,5.07165,2.935,-1,3
438,5.07752,2.925,-1,3
439,5.08042,2.909,-1,3
440,5.08332,2.898,-1,3
441,5.08620,2.879,-1,3
442,5.08906,2.865,-1,3
443,5.09192,2.855,-1,3
444,5.09476,2.839,-1,3
445,5.09759,2.828,-1,3
446,5.10040,2.812,-1,3
447,5.10320,2.798,-1,3
448,5.10598,2.783,-1,3
449,5.10875,2.772,-1,3
450,5.11151,2.758,-1,3
451,5.11425,2.743,-1,3
452,5.11698,2.729,-1,3
453,5.11970,2.717,-1,3
454,5.12240,2.704,-1,3
455,5.12509,2.691,-1,3
456,5.12777,2.681,-1,3
457,5.13044,2.668,-1,3
458,5.13310,2.657,-1,3
459,5.13574,2.641,-1,3
460,5.13837,2.631,-1,3
461,5.14359,2.603,-1,3
462,5.14618,2.587,-1,3
463,5.15132,2.561,-1,3
464,5.15387,2.549,-1,3
465,5.15641,2.539,-1,3
466,5.15893,2.523,-1,3
467,5.16144,2.510,-1,3
468,5.16394,2.498,-1,3
469,5.16642,2.483,-1,3
470,5.16889,2.469,-1,3
471,5.17135,2.460,-1,3
472,5.17379,2.443,-1,3
473,5.17864,2.420,-1,3
474,5.18344,2.389,-1,3
475,5.18582,2.369,-1,3
476,5.18819,2.353,-1,3
477,5.19054,2.337,-1,3
478,5.19288,2.337,-1,3
479,5.19521,2.330,-1,3
480,5.19752,2.314,-1,3
481,5.20212,2.288,-1,3
482,5.20439,2.273,-1,3
483,5.20665,2.262,-1,3
484,5.20890,2.251,-1,3
485,5.21114,2.237,-1,3
486,5.21336,2.221,-1,3
487,5.21557,2.211,-1,3
488,5.21777,2.201,-1,3
489,5.21995,2.184,-1,3
490,5.22213,2.171,-1,3
491,5.22429,2.164,-1,3
492,5.22644,2.151,-1,3
493,5.22857,2.134,-1,3
494,5.23069,2.120,-1,3
495,5.23281,2.115,-1,3
496,5.23491,2.104,-1,3
497,5.23700,2.087,-1,3
498,5.23908,2.076,-1,3
499,5.24114,2.066,-1,3
500,5.24320,2.061,-1,3
501,5.24525,2.047,-1,3
502,5.24933,2.035,-1,3
503,5.25136,2.033,-1,3
504,5.25339,2.031,-1,3
505,5.25543,2.034,-1,3
506,5.25746,2.033,-1,3
507,5.25950,2.036,-1,3
508,5.26153,2.047,-1,3
509,5.26563,2.052,-1,3
510,5.26769,2.057,-1,3
511,5.26976,2.069,-1,3
512,5.27184,2.084,-1,3
513,5.27393,2.090,-1,3
514,5.27603,2.098,-1,3
515,5.27814,2.115,-1,3
516,5.28028,2.136,-1,3
517,5.28243,2.148,-1,3
518,5.28459,2.161,-1,3
519,5.28677,2.182,-1,3
520,5.28898,2.206,-1,3
521,5.29121,2.228,-1,3
522,5.29345,2.248,-1,3
523,5.29573,2.272,-1,3
524,5.29802,2.296,-1,3
525,5.30035,2.325,-1,3
526,5.30270,2.352,-1,3
527,5.30509,2.388,-1,3
528,5.30751,2.422,-1,3
529,5.30996,2.456,-1,3
530,5.31246,2.491,-1,3
531,5.31498,2.524,-1,3
532,5.31754,2.566,-1,3
533,5.32015,2.607,-1,3
534,5.32280,2.646,-1,3
535,5.32549,2.690,-1,3
536,5.32822,2.738,-1,3
537,5.33101,2.784,-1,3
538,5.33384,2.830,-1,3
539,5.33672,2.880,-1,3
540,5.34263,2.981,-1,3
541,5.34567,3.038,-1,3
542,5.35190,3.147,-1,3
543,5.35510,3.202,-1,3
544,5.35837,3.263,-1,3
545,5.36169,3.322,-1,3
546,5.36507,3.384,-1,3
547,5.36852,3.449,-1,3
548,5.37203,3.505,-1,3
549,5.37560,3.572,-1,3
550,5.37923,3.635,-1,3
551,5.38293,3.697,-1,3
552,5.38669,3.761,-1,3
553,5.39052,3.891,-1,3
554,5.39837,3.954,-1,3
555,5.40238,4.009,-1,3
556,5.40645,4.074,-1,3
557,5.41058,4.131,-1,3
558,5.41478,4.191,-1,3
559,5.41902,4.247,-1,3
560,5.42768,4.355,-1,3
561,5.43209,4.408,-1,3
562,5.43655,4.464,-1,3
563,5.44107,4.517,-1,3
564,5.44562,4.559,-1,3
565,5.45023,4.602,-1,3
566,5.45488,4.649,-1,3
567,5.45957,4.691,-1,3
568,5.46430,4.734,-1,3
569,5.46907,4.773,-1,3
570,5.47388,4.810,-1,3
571,5.47873,4.846,-1,3
572,5.48360,4.875,-1,3
573,5.48851,4.904,-1,3
574,5.49345,4.939,-1,3
575,5.49841,4.965,-1,3
576,5.50340,4.991,-1,3
577,5.50841,5.011,-1,3
578,5.51345,5.032,-1,3
579,5.51850,5.057,-1,3
580,5.52358,5.077,-1,3
581,5.52867,5.094,-1,3
582,5.53378,5.106,-1,3
583,5.53891,5.127,-1,3
584,5.54404,5.137,-1,3
585,5.54920,5.155,-1,3
586,5.55436,5.161,-1,3
587,5.55953,5.168,-1,3
588,5.56470,5.173,-1,3
589,5.56988,5.180,-1,3
590,5.58024,5.181,-1,3
591,5.58542,5.176,-1,3
592,5.59059,5.172,-1,3
593,5.60093,5.165,-1,3
594,5.60609,5.163,-1,3
595,5.61125,5.154,-1,3
596,5.61639,5.139,-1,3
597,5.62152,5.130,-1,3
598,5.62664,5.122,-1,3
599,5.63174,5.107,-1,3
600,5.63684,5.093,-1,3
601,5.64191,5.076,-1,3
602,5.64697,5.061,-1,3
603,5.65202,5.046,-1,3
604,5.65705,5.033,-1,3
605,5.66207,5.017,-1,3
606,5.66707,5.000,-1,3
607,5.67205,4.984,-1,3
608,5.67703,4.972,-1,3
609,5.68198,4.957,-1,3
610,5.68693,4.945,-1,3
611,5.69186,4.927,-1,3
612,5.69677,4.909,-1,3
613,5.70166,4.895,-1,3
614,5.70655,4.885,-1,3
615,5.71141,4.865,-1,3
616,5.71626,4.849,-1,3
617,5.72109,4.835,-1,3
618,5.73072,4.809,-1,3
619,5.73551,4.791,-1,3
620,5.74029,4.758,-1,3
621,5.74979,4.746,-1,3
622,5.75452,4.733,-1,3
623,5.75924,4.720,-1,3
624,5.76395,4.702,-1,3
625,5.76863,4.687,-1,3
626,5.77331,4.672,-1,3
627,5.77796,4.657,-1,3
628,5.78261,4.646,-1,3
629,5.78724,4.631,-1,3
630,5.79185,4.613,-1,3
631,5.79645,4.587,-1,3
632,5.80560,4.570,-1,3
633,5.81016,4.555,-1,3
634,5.81470,4.538,-1,3
635,5.81922,4.526,-1,3
636,5.82373,4.512,-1,3
637,5.83272,4.485,-1,3
638,5.83719,4.470,-1,3
639,5.84164,4.454,-1,3
640,5.84609,4.444,-1,3
641,5.85052,4.430,-1,3
642,5.85493,4.413,-1,3
643,5.85933,4.399,-1,3
644,5.86372,4.388,-1,3
645,5.86809,4.371,-1,3
646,5.87245,4.357,-1,3
647,5.87679,4.345,-1,3
648,5.88112,4.327,-1,3
649,5.88544,4.317,-1,3
650,5.88974,4.298,-1,3
651,5.89402,4.290,-1,3
652,5.89830,4.274,-1,3
653,5.90257,4.266,-1,3
654,5.90681,4.246,-1,3
655,5.91105,4.235,-1,3
656,5.91527,4.219,-1,3
657,5.91947,4.206,-1,3
658,5.92366,4.193,-1,3
659,5.92785,4.181,-1,3
660,5.93202,4.170,-1,3
661,5.93617,4.152,-1,3
662,5.94030,4.136,-1,3
663,5.94443,4.121,-1,3
664,5.94854,4.111,-1,3
665,5.95263,4.098,-1,3
666,5.96079,4.069,-1,3
667,5.96484,4.055,-1,3
668,5.96888,4.040,-1,3
669,5.97693,4.016,-1,3
670,5.98094,4.006,-1,3
671,5.98492,3.987,-1,3
672,5.98889,3.972,-1,3
673,5.99286,3.961,-1,3
674,5.99680,3.948,-1,3
675,6.00074,3.932,-1,3
676,6.00465,3.918,-1,3
677,6.00856,3.905,-1,3
678,6.01245,3.889,-1,3
679,6.01632,3.875,-1,3
680,6.02018,3.861,-1,3
681,6.02403,3.847,-1,3
682,6.02786,3.832,-1,3
683,6.03168,3.819,-1,3
684,6.03549,3.806,-1,3
685,6.03928,3.795,-1,3
686,6.04306,3.780,-1,3
687,6.04683,3.764,-1,3
688,6.05058,3.751,-1,3
689,6.05432,3.737,-1,3
690,6.05804,3.725,-1,3
691,6.06175,3.706,-1,3
692,6.06544,3.697,-1,3
693,6.06912,3.680,-1,3
694,6.07279,3.666,-1,3
695,6.08008,3.638,-1,3
696,6.08370,3.624,-1,3
697,6.08731,3.609,-1,3
698,6.09449,3.582,-1,3
699,6.09806,3.567,-1,3
700,6.10161,3.553,-1,3
701,6.10515,3.539,-1,3
702,6.10867,3.525,-1,3
703,6.11219,3.513,-1,3
704,6.11568,3.498,-1,3
705,6.11916,3.479,-1,3
706,6.12263,3.467,-1,3
707,6.12608,3.453,-1,3
708,6.12953,3.447,-1,3
709,6.13637,3.412,-1,3
710,6.13976,3.396,-1,3
711,6.14315,3.383,-1,3
712,6.14652,3.372,-1,3
713,6.14988,3.359,-1,3
714,6.15322,3.344,-1,3
715,6.15655,3.314,-1,3
716,6.16316,3.300,-1,3
717,6.16645,3.290,-1,3
718,6.16973,3.276,-1,3
719,6.17299,3.258,-1,3
720,6.17623,3.247,-1,3
721,6.17947,3.233,-1,3
722,6.18269,3.224,-1,3
723,6.18590,3.214,-1,3
724,6.18910,3.196,-1,3
725,6.19228,3.180,-1,3
726,6.19545,3.168,-1,3
727,6.19861,3.157,-1,3
728,6.20175,3.145,-1,3
729,6.20488,3.132,-1,3
730,6.20800,3.120,-1,3
731,6.21111,3.102,-1,3
732,6.21420,3.094,-1,3
733,6.21728,3.081,-1,3
734,6.22035,3.068,-1,3
735,6.22341,3.056,-1,3
736,6.22645,3.043,-1,3
737,6.22948,3.028,-1,3
738,6.23249,3.018,-1,3
739,6.23550,3.007,-1,3
740,6.23850,2.983,-1,3
741,6.24445,2.972,-1,3
742,6.24741,2.961,-1,3
743,6.25036,2.950,-1,3
744,6.25331,2.932,-1,3
745,6.25916,2.920,-1,3
746,6.26207,2.914,-1,3
747,6.26498,2.903,-1,3
748,6.26787,2.896,-1,3
749,6.27076,2.889,-1,3
750,6.27364,2.881,-1,3
751,6.27652,2.873,-1,3
752,6.27939,2.873,-1,3
753,6.28226,2.870,-1,3
754,6.28513,2.870,-1,3
755,6.28800,2.874,-1,3
756,6.29088,2.874,-1,3
757,6.29376,2.882,-1,3
758,6.29665,2.887,-1,3
759,6.29954,2.895,-1,3
760,6.30244,2.902,-1,3
761,6.30535,2.908,-1,3
762,6.30827,2.923,-1,3
763,6.31122,2.944,-1,3
764,6.31419,2.971,-1,3
765,6.31719,3.029,-1,3
766,6.32328,3.053,-1,3
767,6.32636,3.082,-1,3
768,6.32947,3.112,-1,3
769,6.33262,3.149,-1,3
770,6.33580,3.181,-1,3
771,6.33900,3.204,-1,3
772,6.34550,3.268,-1,3
773,6.34882,3.319,-1,3
774,6.35219,3.374,-1,3
775,6.35563,3.432,-1,3
776,6.35910,3.471,-1,3
777,6.36261,3.516,-1,3
778,6.36619,3.574,-1,3
779,6.36982,3.635,-1,3
780,6.37351,3.691,-1,3
781,6.37726,3.743,-1,3
782,6.38492,3.863,-1,3
783,6.38885,3.925,-1,3
784,6.39688,4.051,-1,3
785,6.40100,4.124,-1,3
786,6.40520,4.193,-1,3
787,6.40946,4.258,-1,3
788,6.41378,4.323,-1,3
789,6.41817,4.387,-1,3
790,6.42262,4.452,-1,3
791,6.42713,4.510,-1,3
792,6.43170,4.571,-1,3
793,6.43635,4.647,-1,3
794,6.44107,4.727,-1,3
795,6.44587,4.793,-1,3
796,6.45072,4.849,-1,3
797,6.45562,4.900,-1,3
798,6.46058,4.967,-1,3
799,6.46561,5.031,-1,3
800,6.47070,5.084,-1,3
801,6.47583,5.130,-1,3
802,6.48100,5.177,-1,3
803,6.48623,5.225,-1,3
804,6.49151,5.277,-1,3
805,6.49683,5.327,-1,3
806,6.50220,5.364,-1,3
807,6.50761,5.409,-1,3
808,6.51306,5.452,-1,3
809,6.51856,5.501,-1,3
810,6.52410,5.539,-1,3
811,6.52967,5.597,-1,3
812,6.54089,5.630,-1,3
813,6.54655,5.658,-1,3
814,6.55795,5.710,-1,3
815,6.56369,5.739,-1,3
816,6.56946,5.773,-1,3
817,6.57526,5.799,-1,3
818,6.58108,5.815,-1,3
819,6.58690,5.828,-1,3
820,6.59275,5.850,-1,3
821,6.59862,5.866,-1,3
822,6.60450,5.882,-1,3
823,6.61039,5.892,-1,3
824,6.61629,5.902,-1,3
825,6.62220,5.906,-1,3
826,6.62812,5.917,-1,3
827,6.63404,5.921,-1,3
828,6.63996,5.923,-1,3
829,6.64588,5.920,-1,3
830,6.65180,5.919,-1,3
831,6.65772,5.917,-1,3
832,6.66363,5.911,-1,3
833,6.66954,5.911,-1,3
834,6.67545,5.904,-1,3
835,6.68134,5.895,-1,3
836,6.68723,5.890,-1,3
837,6.69312,5.886,-1,3
838,6.69899,5.873,-1,3
839,6.70485,5.865,-1,3
840,6.71070,5.847,-1,3
841,6.71654,5.835,-1,3
842,6.72236,5.819,-1,3
843,6.72816,5.807,-1,3
844,6.73396,5.793,-1,3
845,6.73973,5.776,-1,3
846,6.74549,5.747,-1,3
847,6.75697,5.733,-1,3
848,6.76269,5.722,-1,3
849,6.76839,5.703,-1,3
850,6.77408,5.685,-1,3
851,6.77975,5.673,-1,3
852,6.78541,5.656,-1,3
853,6.79667,5.622,-1,3
854,6.80228,5.610,-1,3
855,6.80787,5.595,-1,3
856,6.81346,5.582,-1,3
857,6.81902,5.564,-1,3
858,6.82457,5.550,-1,3
859,6.83011,5.537,-1,3
860,6.83563,5.525,-1,3
861,6.84114,5.509,-1,3
862,6.84664,5.495,-1,3
863,6.85757,5.460,-1,3
864,6.86301,5.445,-1,3
865,6.86845,5.431,-1,3
866,6.87386,5.418,-1,3
867,6.87927,5.403,-1,3
868,6.88465,5.384,-1,3
869,6.89002,5.371,-1,3
870,6.90073,5.348,-1,3
871,6.90606,5.333,-1,3
872,6.91138,5.315,-1,3
873,6.91668,5.304,-1,3
