cnt,pos,speed,Dir,Force,
1,5.03502,1.008,-1,3
2,5.03605,1.023,-1,3
3,5.03709,1.042,-1,3
4,5.03814,1.051,-1,3
5,5.03919,1.055,-1,3
6,5.04026,1.062,-1,3
7,5.04134,1.079,-1,3
8,5.04243,1.096,-1,3
9,5.04353,1.101,-1,3
10,5.04463,1.097,-1,3
11,5.04573,1.104,-1,3
12,5.04799,1.137,-1,3
13,5.04799,1.136,-1,3
14,5.04913,1.135,-1,3
15,5.05026,1.135,-1,3
16,5.05140,1.141,-1,3
17,5.05256,1.155,-1,3
18,5.05488,1.162,-1,3
19,5.05488,1.163,-1,3
20,5.05722,1.171,-1,3
21,5.05839,1.178,-1,3
22,5.06076,1.181,-1,3
23,5.06194,1.181,-1,3
24,5.06312,1.185,-1,3
25,5.06431,1.189,-1,3
26,5.06551,1.197,-1,3
27,5.06671,1.199,-1,3
28,5.06790,1.193,-1,3
29,5.06909,1.190,-1,3
30,5.07029,1.197,-1,3
31,5.07149,1.204,-1,3
32,5.07270,1.207,-1,3
33,5.07390,1.202,-1,3
34,5.07510,1.199,-1,3
35,5.07630,1.200,-1,3
36,5.07750,1.204,-1,3
37,5.07871,1.205,-1,3
38,5.07992,1.208,-1,3
39,5.08113,1.209,-1,3
40,5.08233,1.201,-1,3
41,5.08353,1.203,-1,3
42,5.08473,1.204,-1,3
43,5.08594,1.206,-1,3
44,5.08715,1.205,-1,3
45,5.08835,1.206,-1,3
46,5.08956,1.208,-1,3
47,5.09077,1.209,-1,3
48,5.09197,1.202,-1,3
49,5.09317,1.200,-1,3
50,5.09438,1.205,-1,3
51,5.09558,1.207,-1,3
52,5.09679,1.212,-1,3
53,5.09800,1.207,-1,3
54,5.09921,1.207,-1,3
55,5.10041,1.204,-1,3
56,5.10162,1.203,-1,3
57,5.10282,1.208,-1,3
58,5.10404,1.219,-1,3
59,5.10526,1.211,-1,3
60,5.10767,1.206,-1,3
61,5.10888,1.210,-1,3
62,5.11010,1.219,-1,3
63,5.11132,1.224,-1,3
64,5.11377,1.222,-1,3
65,5.11377,1.218,-1,3
66,5.11499,1.220,-1,3
67,5.11621,1.228,-1,3
68,5.11743,1.238,-1,3
69,5.11991,1.235,-1,3
70,5.12114,1.234,-1,3
71,5.12237,1.233,-1,3
72,5.12362,1.242,-1,3
73,5.12486,1.245,-1,3
74,5.12611,1.253,-1,3
75,5.12737,1.256,-1,3
76,5.12863,1.259,-1,3
77,5.12989,1.258,-1,3
78,5.13115,1.263,-1,3
79,5.13242,1.273,-1,3
80,5.13370,1.275,-1,3
81,5.13498,1.282,-1,3
82,5.13627,1.286,-1,3
83,5.13756,1.294,-1,3
84,5.13886,1.298,-1,3
85,5.14016,1.298,-1,3
86,5.14146,1.305,-1,3
87,5.14278,1.315,-1,3
88,5.14410,1.323,-1,3
89,5.14543,1.328,-1,3
90,5.14676,1.333,-1,3
91,5.14810,1.335,-1,3
92,5.14944,1.339,-1,3
93,5.15079,1.352,-1,3
94,5.15215,1.365,-1,3
95,5.15352,1.370,-1,3
96,5.15489,1.372,-1,3
97,5.15627,1.374,-1,3
98,5.15765,1.380,-1,3
99,5.15904,1.394,-1,3
100,5.16045,1.407,-1,3
101,5.16186,1.413,-1,3
102,5.16327,1.410,-1,3
103,5.16468,1.414,-1,3
104,5.16611,1.428,-1,3
105,5.16756,1.443,-1,3
106,5.16901,1.453,-1,3
107,5.17046,1.450,-1,3
108,5.17337,1.458,-1,3
109,5.17485,1.480,-1,3
110,5.17635,1.494,-1,3
111,5.17933,1.489,-1,3
112,5.18083,1.496,-1,3
113,5.18234,1.517,-1,3
114,5.18388,1.538,-1,3
115,5.18542,1.540,-1,3
116,5.18695,1.529,-1,3
117,5.18848,1.532,-1,3
118,5.19004,1.554,-1,3
119,5.19162,1.580,-1,3
120,5.19320,1.585,-1,3
121,5.19478,1.575,-1,3
122,5.19635,1.568,-1,3
123,5.19794,1.594,-1,3
124,5.19956,1.623,-1,3
125,5.20119,1.627,-1,3
126,5.20281,1.617,-1,3
127,5.20442,1.611,-1,3
128,5.20605,1.634,-1,3
129,5.20772,1.664,-1,3
130,5.20939,1.672,-1,3
131,5.21105,1.657,-1,3
132,5.21270,1.655,-1,3
133,5.21438,1.679,-1,3
134,5.21609,1.709,-1,3
135,5.21780,1.714,-1,3
136,5.21950,1.700,-1,3
137,5.22293,1.728,-1,3
138,5.22468,1.754,-1,3
139,5.22993,1.749,-1,3
140,5.23170,1.776,-1,3
141,5.23350,1.800,-1,3
142,5.23530,1.796,-1,3
143,5.23709,1.790,-1,3
144,5.23888,1.796,-1,3
145,5.24071,1.827,-1,3
146,5.24255,1.843,-1,3
147,5.24440,1.842,-1,3
148,5.24624,1.841,-1,3
149,5.24809,1.873,-1,3
150,5.25185,1.889,-1,3
151,5.25374,1.892,-1,3
152,5.25564,1.897,-1,3
153,5.25754,1.902,-1,3
154,5.25946,1.921,-1,3
155,5.26140,1.939,-1,3
156,5.26335,1.949,-1,3
157,5.26725,1.950,-1,3
158,5.26922,1.969,-1,3
159,5.27121,1.995,-1,3
160,5.27322,2.005,-1,3
161,5.27522,2.000,-1,3
162,5.27722,2.004,-1,3
163,5.27925,2.028,-1,3
164,5.28130,2.052,-1,3
165,5.28336,2.055,-1,3
166,5.28541,2.055,-1,3
167,5.28748,2.063,-1,3
168,5.28956,2.087,-1,3
169,5.29166,2.102,-1,3
170,5.29378,2.114,-1,3
171,5.29590,2.117,-1,3
172,5.29802,2.125,-1,3
173,5.30016,2.140,-1,3
174,5.30232,2.162,-1,3
175,5.30450,2.175,-1,3
176,5.30668,2.181,-1,3
177,5.30887,2.188,-1,3
178,5.31107,2.204,-1,3
179,5.31553,2.236,-1,3
180,5.31778,2.253,-1,3
181,5.32004,2.261,-1,3
182,5.32231,2.268,-1,3
183,5.32460,2.286,-1,3
184,5.32923,2.324,-1,3
185,5.33157,2.333,-1,3
186,5.33391,2.342,-1,3
187,5.33627,2.367,-1,3
188,5.33866,2.382,-1,3
189,5.34106,2.400,-1,3
190,5.34347,2.416,-1,3
191,5.34590,2.426,-1,3
192,5.34834,2.439,-1,3
193,5.35080,2.463,-1,3
194,5.35328,2.481,-1,3
195,5.35578,2.499,-1,3
196,5.35829,2.514,-1,3
197,5.36082,2.527,-1,3
198,5.36337,2.545,-1,3
199,5.36594,2.569,-1,3
200,5.36853,2.589,-1,3
201,5.37113,2.602,-1,3
202,5.37375,2.622,-1,3
203,5.37639,2.638,-1,3
204,5.37905,2.662,-1,3
205,5.38173,2.681,-1,3
206,5.38715,2.720,-1,3
207,5.38989,2.742,-1,3
208,5.39266,2.762,-1,3
209,5.39544,2.783,-1,3
210,5.39825,2.827,-1,3
211,5.40392,2.849,-1,3
212,5.40679,2.868,-1,3
213,5.40968,2.893,-1,3
214,5.41260,2.916,-1,3
215,5.41554,2.939,-1,3
216,5.41850,2.958,-1,3
217,5.42148,2.985,-1,3
218,5.42448,3.003,-1,3
219,5.42751,3.025,-1,3
220,5.43056,3.050,-1,3
221,5.43363,3.072,-1,3
222,5.43672,3.093,-1,3
223,5.43984,3.115,-1,3
224,5.44297,3.135,-1,3
225,5.44613,3.159,-1,3
226,5.44931,3.176,-1,3
227,5.45251,3.202,-1,3
228,5.45573,3.218,-1,3
229,5.45896,3.236,-1,3
230,5.46222,3.261,-1,3
231,5.46550,3.279,-1,3
232,5.46880,3.300,-1,3
233,5.47212,3.317,-1,3
234,5.47546,3.353,-1,3
235,5.48218,3.369,-1,3
236,5.48557,3.390,-1,3
237,5.48897,3.420,-1,3
238,5.49583,3.435,-1,3
239,5.49928,3.448,-1,3
240,5.50274,3.468,-1,3
241,5.50622,3.476,-1,3
242,5.50971,3.489,-1,3
243,5.51321,3.500,-1,3
244,5.51673,3.516,-1,3
245,5.52025,3.525,-1,3
246,5.52378,3.533,-1,3
247,5.53088,3.550,-1,3
248,5.53444,3.562,-1,3
249,5.53801,3.568,-1,3
250,5.54158,3.575,-1,3
251,5.54516,3.579,-1,3
252,5.54875,3.591,-1,3
253,5.55594,3.599,-1,3
254,5.55954,3.599,-1,3
255,5.56314,3.603,-1,3
256,5.56675,3.607,-1,3
257,5.57036,3.611,-1,3
258,5.57397,3.612,-1,3
259,5.57758,3.609,-1,3
260,5.58119,3.612,-1,3
261,5.58481,3.616,-1,3
262,5.58842,3.615,-1,3
263,5.59203,3.614,-1,3
264,5.59565,3.615,-1,3
265,5.59926,3.612,-1,3
266,5.60288,3.615,-1,3
267,5.60649,3.612,-1,3
268,5.61010,3.614,-1,3
269,5.61371,3.609,-1,3
270,5.61732,3.609,-1,3
271,5.62093,3.606,-1,3
272,5.62453,3.605,-1,3
273,5.62813,3.601,-1,3
274,5.63532,3.593,-1,3
275,5.63891,3.589,-1,3
276,5.64250,3.589,-1,3
277,5.64609,3.587,-1,3
278,5.64967,3.580,-1,3
279,5.65324,3.570,-1,3
280,5.66038,3.565,-1,3
281,5.66394,3.561,-1,3
282,5.66749,3.555,-1,3
283,5.67104,3.551,-1,3
284,5.67459,3.544,-1,3
285,5.67813,3.541,-1,3
286,5.68166,3.535,-1,3
287,5.68519,3.531,-1,3
288,5.68872,3.523,-1,3
289,5.69223,3.517,-1,3
290,5.69574,3.509,-1,3
291,5.69925,3.502,-1,3
292,5.70274,3.498,-1,3
293,5.70624,3.495,-1,3
294,5.70972,3.480,-1,3
295,5.71319,3.472,-1,3
296,5.71666,3.466,-1,3
297,5.72012,3.460,-1,3
298,5.72357,3.456,-1,3
299,5.72702,3.445,-1,3
300,5.73045,3.435,-1,3
301,5.73388,3.425,-1,3
302,5.73730,3.419,-1,3
303,5.74411,3.404,-1,3
304,5.74750,3.390,-1,3
305,5.75089,3.385,-1,3
306,5.75427,3.378,-1,3
307,5.76099,3.360,-1,3
308,5.76434,3.346,-1,3
309,5.76768,3.338,-1,3
310,5.77101,3.330,-1,3
311,5.77433,3.320,-1,3
312,5.77763,3.307,-1,3
313,5.78093,3.298,-1,3
314,5.78422,3.289,-1,3
315,5.78750,3.280,-1,3
316,5.79076,3.263,-1,3
317,5.79402,3.253,-1,3
318,5.79726,3.241,-1,3
319,5.80049,3.235,-1,3
320,5.80372,3.222,-1,3
321,5.80692,3.208,-1,3
322,5.81012,3.194,-1,3
323,5.81330,3.184,-1,3
324,5.81648,3.174,-1,3
325,5.81964,3.162,-1,3
326,5.82279,3.151,-1,3
327,5.82592,3.134,-1,3
328,5.82905,3.126,-1,3
329,5.83216,3.112,-1,3
330,5.83526,3.102,-1,3
331,5.83835,3.089,-1,3
332,5.84143,3.077,-1,3
333,5.84449,3.063,-1,3
334,5.84755,3.054,-1,3
335,5.85059,3.041,-1,3
336,5.85362,3.029,-1,3
337,5.85663,3.016,-1,3
338,5.85964,3.003,-1,3
339,5.86263,2.994,-1,3
340,5.86561,2.971,-1,3
341,5.87154,2.958,-1,3
342,5.87449,2.949,-1,3
343,5.87449,2.942,-1,3
344,5.88036,2.928,-1,3
345,5.88328,2.919,-1,3
346,5.88619,2.910,-1,3
347,5.88909,2.898,-1,3
348,5.89486,2.884,-1,3
349,5.89774,2.875,-1,3
350,5.90061,2.867,-1,3
351,5.90346,2.859,-1,3
352,5.90631,2.850,-1,3
353,5.90916,2.846,-1,3
354,5.91200,2.838,-1,3
355,5.91483,2.831,-1,3
356,5.91765,2.823,-1,3
357,5.92047,2.816,-1,3
358,5.92329,2.816,-1,3
359,5.92610,2.811,-1,3
360,5.92890,2.802,-1,3
361,5.93169,2.797,-1,3
362,5.93449,2.792,-1,3
363,5.93727,2.786,-1,3
364,5.94285,2.784,-1,3
365,5.94562,2.777,-1,3
366,5.94839,2.772,-1,3
367,5.95117,2.772,-1,3
368,5.95671,2.770,-1,3
369,5.95947,2.765,-1,3
370,5.96223,2.761,-1,3
371,5.96499,2.759,-1,3
372,5.96775,2.760,-1,3
373,5.97052,2.763,-1,3
374,5.97328,2.761,-1,3
375,5.97603,2.756,-1,3
376,5.97879,2.756,-1,3
377,5.98155,2.759,-1,3
378,5.98431,2.758,-1,3
379,5.98707,2.762,-1,3
380,5.98983,2.759,-1,3
381,5.99258,2.757,-1,3
382,5.99534,2.759,-1,3
383,5.99811,2.764,-1,3
384,6.00087,2.764,-1,3
385,6.00364,2.766,-1,3
386,6.00640,2.766,-1,3
387,6.00917,2.767,-1,3
388,6.01194,2.772,-1,3
389,6.01472,2.778,-1,3
390,6.01750,2.779,-1,3
391,6.02028,2.780,-1,3
392,6.02306,2.784,-1,3
393,6.02586,2.792,-1,3
394,6.02865,2.798,-1,3
395,6.03145,2.799,-1,3
396,6.03426,2.810,-1,3
397,6.03707,2.812,-1,3
398,6.03989,2.817,-1,3
399,6.04272,2.826,-1,3
400,6.04555,2.832,-1,3
401,6.04839,2.839,-1,3
402,6.05123,2.846,-1,3
403,6.05409,2.854,-1,3
404,6.05695,2.863,-1,3
405,6.05982,2.867,-1,3
406,6.06270,2.878,-1,3
407,6.06558,2.888,-1,3
408,6.06848,2.899,-1,3
409,6.07138,2.904,-1,3
410,6.07430,2.916,-1,3
411,6.07722,2.923,-1,3
412,6.08016,2.936,-1,3
413,6.08311,2.948,-1,3
414,6.08607,2.957,-1,3
415,6.08903,2.968,-1,3
416,6.09202,2.982,-1,3
417,6.09501,2.994,-1,3
418,6.09801,3.006,-1,3
419,6.10103,3.019,-1,3
420,6.10406,3.031,-1,3
421,6.10711,3.045,-1,3
422,6.11017,3.075,-1,3
423,6.11633,3.085,-1,3
424,6.11943,3.099,-1,3
425,6.12255,3.119,-1,3
426,6.12568,3.131,-1,3
427,6.13199,3.165,-1,3
428,6.13517,3.176,-1,3
429,6.13837,3.197,-1,3
430,6.14158,3.214,-1,3
431,6.14481,3.231,-1,3
432,6.14806,3.249,-1,3
433,6.15132,3.265,-1,3
434,6.15461,3.284,-1,3
435,6.15791,3.303,-1,3
436,6.16124,3.325,-1,3
437,6.16458,3.340,-1,3
438,6.16794,3.362,-1,3
439,6.17132,3.383,-1,3
440,6.17473,3.406,-1,3
441,6.17815,3.427,-1,3
442,6.18160,3.448,-1,3
443,6.18508,3.476,-1,3
444,6.18857,3.497,-1,3
445,6.19210,3.521,-1,3
446,6.19564,3.546,-1,3
447,6.19922,3.573,-1,3
448,6.20281,3.597,-1,3
449,6.20644,3.627,-1,3
450,6.21009,3.654,-1,3
451,6.21748,3.707,-1,3
452,6.22122,3.737,-1,3
453,6.22499,3.766,-1,3
454,6.22878,3.795,-1,3
455,6.23647,3.859,-1,3
456,6.24035,3.886,-1,3
457,6.24427,3.917,-1,3
458,6.24822,3.950,-1,3
459,6.25220,3.981,-1,3
460,6.25622,4.015,-1,3
461,6.26026,4.045,-1,3
462,6.26434,4.078,-1,3
463,6.26845,4.108,-1,3
464,6.27259,4.140,-1,3
465,6.27676,4.170,-1,3
466,6.28096,4.199,-1,3
467,6.28519,4.230,-1,3
468,6.28945,4.261,-1,3
469,6.29374,4.289,-1,3
470,6.29806,4.319,-1,3
471,6.30241,4.350,-1,3
472,6.30678,4.376,-1,3
473,6.31119,4.407,-1,3
474,6.31563,4.438,-1,3
475,6.32009,4.464,-1,3
476,6.32458,4.492,-1,3
477,6.32911,4.522,-1,3
478,6.33365,4.544,-1,3
479,6.33822,4.572,-1,3
480,6.34282,4.596,-1,3
481,6.34744,4.624,-1,3
482,6.35209,4.644,-1,3
483,6.35675,4.666,-1,3
484,6.36615,4.711,-1,3
485,6.37088,4.728,-1,3
486,6.37562,4.747,-1,3
487,6.38516,4.779,-1,3
488,6.38996,4.796,-1,3
489,6.39477,4.812,-1,3
490,6.39959,4.822,-1,3
491,6.40443,4.832,-1,3
492,6.40927,4.844,-1,3
493,6.41412,4.852,-1,3
494,6.41898,4.862,-1,3
495,6.42385,4.868,-1,3
496,6.42872,4.875,-1,3
497,6.43848,4.880,-1,3
498,6.44336,4.881,-1,3
499,6.44824,4.885,-1,3
500,6.45313,4.879,-1,3
501,6.45801,4.882,-1,3
502,6.46289,4.882,-1,3
503,6.46777,4.882,-1,3
504,6.47264,4.867,-1,3
505,6.48237,4.864,-1,3
506,6.48723,4.852,-1,3
507,6.49208,4.850,-1,3
508,6.49691,4.837,-1,3
509,6.50174,4.830,-1,3
510,6.50656,4.813,-1,3
511,6.51136,4.806,-1,3
512,6.51615,4.791,-1,3
513,6.52094,4.781,-1,3
514,6.52570,4.768,-1,3
515,6.53046,4.755,-1,3
516,6.53520,4.738,-1,3
517,6.53992,4.724,-1,3
518,6.54463,4.714,-1,3
519,6.54933,4.698,-1,3
520,6.55401,4.683,-1,3
521,6.55868,4.665,-1,3
522,6.56333,4.653,-1,3
523,6.56797,4.634,-1,3
524,6.57259,4.623,-1,3
525,6.58179,4.595,-1,3
526,6.58637,4.576,-1,3
527,6.59093,4.547,-1,3
528,6.60002,4.538,-1,3
529,6.60454,4.521,-1,3
530,6.60905,4.507,-1,3
531,6.61354,4.490,-1,3
532,6.61801,4.475,-1,3
533,6.62248,4.465,-1,3
534,6.62693,4.449,-1,3
535,6.63136,4.431,-1,3
536,6.63577,4.415,-1,3
537,6.64017,4.403,-1,3
538,6.64456,4.388,-1,3
539,6.64894,4.377,-1,3
540,6.65330,4.359,-1,3
541,6.65764,4.344,-1,3
542,6.66197,4.327,-1,3
543,6.66629,4.318,-1,3
544,6.67059,4.302,-1,3
545,6.67488,4.290,-1,3
546,6.67915,4.272,-1,3
547,6.68341,4.260,-1,3
548,6.68766,4.244,-1,3
549,6.69189,4.233,-1,3
550,6.69611,4.219,-1,3
551,6.70031,4.202,-1,3
552,6.70450,4.188,-1,3
553,6.71283,4.159,-1,3
554,6.71698,4.145,-1,3
555,6.72523,4.118,-1,3
556,6.72933,4.103,-1,3
557,6.73342,4.089,-1,3
558,6.73749,4.074,-1,3
559,6.74156,4.062,-1,3
560,6.74561,4.051,-1,3
561,6.74964,4.037,-1,3
562,6.75367,4.021,-1,3
563,6.75767,4.008,-1,3
564,6.76167,3.993,-1,3
565,6.76565,3.981,-1,3
566,6.76961,3.964,-1,3
567,6.77357,3.955,-1,3
568,6.77751,3.942,-1,3
569,6.78144,3.926,-1,3
570,6.78534,3.908,-1,3
571,6.78924,3.899,-1,3
572,6.79313,3.884,-1,3
573,6.79700,3.871,-1,3
574,6.80085,3.857,-1,3
575,6.80470,3.845,-1,3
576,6.80853,3.831,-1,3
577,6.81235,3.820,-1,3
578,6.81615,3.804,-1,3
579,6.81995,3.793,-1,3
580,6.82372,3.769,-1,3
581,6.83125,3.754,-1,3
582,6.83499,3.743,-1,3
583,6.83872,3.729,-1,3
584,6.84614,3.703,-1,3
585,6.84983,3.690,-1,3
586,6.85351,3.683,-1,3
587,6.85718,3.667,-1,3
588,6.86084,3.657,-1,3
589,6.86448,3.645,-1,3
590,6.86812,3.635,-1,3
591,6.87174,3.622,-1,3
592,6.87535,3.614,-1,3
593,6.87896,3.597,-1,3
594,6.88614,3.585,-1,3
595,6.88971,3.576,-1,3
596,6.89329,3.571,-1,3
597,6.89685,3.565,-1,3
598,6.90041,3.549,-1,3
599,6.90396,3.546,-1,3
600,6.90750,3.540,-1,3
601,6.91104,3.539,-1,3
602,6.91812,3.533,-1,3
603,6.92165,3.534,-1,3
604,6.92518,3.527,-1,3
605,6.92870,3.528,-1,3
606,6.93223,3.526,-1,3
607,6.93576,3.526,-1,3
608,6.93928,3.524,-1,3
609,6.94280,3.523,-1,3
610,6.94632,3.522,-1,3
611,6.94985,3.524,-1,3
612,6.95338,3.528,-1,3
613,6.95690,3.529,-1,3
614,6.96044,3.533,-1,3
615,6.96397,3.529,-1,3
616,6.96750,3.530,-1,3
617,6.97103,3.531,-1,3
618,6.97457,3.538,-1,3
619,6.97811,3.546,-1,3
620,6.98166,3.546,-1,3
621,6.98521,3.548,-1,3
622,6.98876,3.553,-1,3
623,6.99232,3.559,-1,3
624,6.99947,3.577,-1,3
625,7.00305,3.584,-1,3
626,7.00664,3.591,-1,3
627,7.01024,3.603,-1,3
628,7.01386,3.613,-1,3
629,7.02112,3.636,-1,3
630,7.02477,3.650,-1,3
631,7.02843,3.661,-1,3
632,7.03211,3.678,-1,3
633,7.03580,3.692,-1,3
634,7.03951,3.707,-1,3
635,7.04323,3.723,-1,3
636,7.04697,3.735,-1,3
637,7.05072,3.753,-1,3
638,7.05449,3.772,-1,3
639,7.05828,3.789,-1,3
640,7.06208,3.806,-1,3
641,7.06591,3.825,-1,3
642,7.06975,3.838,-1,3
643,7.07361,3.859,-1,3
644,7.07748,3.875,-1,3
645,7.08138,3.894,-1,3
646,7.08529,3.912,-1,3
647,7.08922,3.932,-1,3
648,7.09317,3.948,-1,3
649,7.09713,3.963,-1,3
650,7.10112,3.986,-1,3
651,7.10512,4.023,-1,3
652,7.11318,4.038,-1,3
653,7.11724,4.060,-1,3
654,7.12131,4.075,-1,3
655,7.12541,4.092,-1,3
656,7.12952,4.110,-1,3
657,7.13365,4.148,-1,3
658,7.14196,4.168,-1,3
659,7.14615,4.184,-1,3
660,7.15035,4.203,-1,3
661,7.15457,4.219,-1,3
662,7.15881,4.244,-1,3
663,7.16307,4.259,-1,3
664,7.16735,4.280,-1,3
665,7.17165,4.302,-1,3
666,7.17597,4.319,-1,3
667,7.18031,4.339,-1,3
668,7.18467,4.358,-1,3
669,7.18905,4.383,-1,3
670,7.19345,4.399,-1,3
671,7.19787,4.419,-1,3
672,7.20231,4.436,-1,3
673,7.20676,4.456,-1,3
674,7.21124,4.475,-1,3
675,7.21573,4.496,-1,3
676,7.22024,4.510,-1,3
677,7.22477,4.525,-1,3
678,7.22932,4.548,-1,3
679,7.23388,4.565,-1,3
680,7.23846,4.579,-1,3
681,7.24306,4.595,-1,3
682,7.24767,4.627,-1,3
683,7.25694,4.643,-1,3
684,7.26159,4.657,-1,3
685,7.26626,4.671,-1,3
686,7.27095,4.682,-1,3
687,7.27564,4.694,-1,3
688,7.28034,4.705,-1,3
689,7.28506,4.729,-1,3
690,7.29453,4.741,-1,3
691,7.29928,4.749,-1,3
692,7.30404,4.761,-1,3
693,7.30882,4.777,-1,3
694,7.31361,4.789,-1,3
695,7.31841,4.797,-1,3
696,7.32321,4.805,-1,3
697,7.32803,4.816,-1,3
698,7.33769,4.838,-1,3
699,7.34254,4.848,-1,3
700,7.34740,4.857,-1,3
701,7.35226,4.877,-1,3
702,7.35714,4.883,-1,3
703,7.36202,4.883,-1,3
704,7.36692,4.895,-1,3
705,7.37182,4.905,-1,3
706,7.37674,4.921,-1,3
707,7.38659,4.933,-1,3
708,7.39153,4.940,-1,3
709,7.39648,4.948,-1,3
710,7.40144,4.960,-1,3
711,7.40641,4.968,-1,3
712,7.41138,4.974,-1,3
713,7.41636,4.979,-1,3
714,7.42135,4.992,-1,3
715,7.42635,4.999,-1,3
716,7.43136,5.006,-1,3
717,7.43637,5.010,-1,3
718,7.44138,5.018,-1,3
719,7.44641,5.026,-1,3
720,7.45144,5.035,-1,3
721,7.45649,5.043,-1,3
722,7.46153,5.047,-1,3
723,7.46659,5.051,-1,3
724,7.47165,5.061,-1,3
725,7.47672,5.071,-1,3
726,7.48179,5.077,-1,3
727,7.48687,5.079,-1,3
728,7.49195,5.092,-1,3
729,7.50214,5.098,-1,3
730,7.50725,5.104,-1,3
731,7.51235,5.107,-1,3
732,7.51747,5.116,-1,3
733,7.52259,5.122,-1,3
734,7.52772,5.132,-1,3
735,7.53286,5.135,-1,3
736,7.53800,5.148,-1,3
737,7.54831,5.157,-1,3
738,7.55347,5.165,-1,3
739,7.55864,5.168,-1,3
740,7.56382,5.175,-1,3
741,7.56900,5.186,-1,3
742,7.57419,5.188,-1,3
743,7.57939,5.195,-1,3
744,7.58459,5.204,-1,3
745,7.58980,5.207,-1,3
746,7.59502,5.217,-1,3
747,7.60024,5.223,-1,3
748,7.60547,5.233,-1,3
749,7.61071,5.236,-1,3
750,7.61595,5.241,-1,3
751,7.62119,5.242,-1,3
752,7.62644,5.249,-1,3
753,7.63169,5.252,-1,3
754,7.63695,5.256,-1,3
755,7.64220,5.255,-1,3
756,7.64746,5.255,-1,3
757,7.65272,5.260,-1,3
758,7.66324,5.259,-1,3
759,7.66850,5.255,-1,3
760,7.67375,5.255,-1,3
761,7.67900,5.253,-1,3
762,7.68426,5.252,-1,3
763,7.68950,5.240,-1,3
764,7.69997,5.230,-1,3
765,7.70520,5.223,-1,3
766,7.71041,5.217,-1,3
767,7.71562,5.212,-1,3
768,7.72082,5.197,-1,3
769,7.72601,5.189,-1,3
770,7.73119,5.175,-1,3
771,7.73635,5.168,-1,3
772,7.74152,5.163,-1,3
773,7.74667,5.152,-1,3
774,7.75180,5.135,-1,3
775,7.75693,5.121,-1,3
776,7.76204,5.112,-1,3
777,7.76714,5.103,-1,3
778,7.77223,5.090,-1,3
779,7.77730,5.071,-1,3
780,7.78236,5.058,-1,3
781,7.78740,5.043,-1,3
782,7.79243,5.032,-1,3
783,7.79745,5.019,-1,3
784,7.80246,5.005,-1,3
785,7.80745,4.988,-1,3
786,7.81242,4.978,-1,3
787,7.81738,4.946,-1,3
788,7.82726,4.930,-1,3
789,7.83218,4.915,-1,3
790,7.83708,4.907,-1,3
791,7.84197,4.891,-1,3
792,7.84684,4.871,-1,3
793,7.85170,4.857,-1,3
794,7.85655,4.846,-1,3
795,7.86138,4.820,-1,3
796,7.87100,4.802,-1,3
797,7.87579,4.787,-1,3
798,7.88056,4.776,-1,3
799,7.88533,4.766,-1,3
800,7.89008,4.751,-1,3
801,7.89482,4.736,-1,3
802,7.89953,4.716,-1,3
803,7.90424,4.705,-1,3
804,7.90893,4.682,-1,3
805,7.91828,4.666,-1,3
806,7.92293,4.651,-1,3
807,7.93218,4.620,-1,3
808,7.93218,4.615,-1,3
809,7.93680,4.601,-1,3
810,7.94140,4.585,-1,3
811,7.94598,4.585,-1,3
812,7.95055,4.570,-1,3
813,7.95511,4.556,-1,3
814,7.95966,4.538,-1,3
815,7.96872,4.528,-1,3
816,7.97323,4.511,-1,3
817,7.97773,4.494,-1,3
818,7.98221,4.483,-1,3
819,7.98669,4.479,-1,3
820,7.99116,4.469,-1,3
821,7.99561,4.453,-1,3
822,8.00004,4.434,-1,3
823,8.00447,4.426,-1,3
824,8.00889,4.417,-1,3
825,8.01330,4.414,-1,3
826,8.01771,4.405,-1,3
827,8.02210,4.394,-1,3
828,8.02648,4.380,-1,3
829,8.03085,4.373,-1,3
830,8.03522,4.369,-1,3
831,8.03959,4.365,-1,3
832,8.04394,4.353,-1,3
833,8.04829,4.339,-1,3
834,8.05696,4.336,-1,3
835,8.06130,4.336,-1,3
836,8.06995,4.320,-1,3
837,8.07427,4.317,-1,3
838,8.07859,4.319,-1,3
839,8.08290,4.315,-1,3
840,8.08722,4.315,-1,3
841,8.09152,4.308,-1,3
842,8.09583,4.309,-1,3
843,8.10014,4.308,-1,3
844,8.10445,4.306,-1,3
845,8.10875,4.306,-1,3
846,8.11306,4.304,-1,3
847,8.11736,4.305,-1,3
848,8.12167,4.305,-1,3
849,8.12597,4.304,-1,3
850,8.13028,4.308,-1,3
851,8.13459,4.308,-1,3
852,8.13890,4.315,-1,3
853,8.14322,4.314,-1,3
854,8.14753,4.316,-1,3
855,8.15185,4.321,-1,3
856,8.15618,4.327,-1,3
857,8.16051,4.334,-1,3
858,8.16485,4.340,-1,3
859,8.16920,4.350,-1,3
860,8.17791,4.360,-1,3
861,8.18228,4.367,-1,3
862,8.18666,4.379,-1,3
863,8.19104,4.387,-1,3
864,8.19544,4.407,-1,3
865,8.20427,4.421,-1,3
866,8.20870,4.433,-1,3
867,8.21315,4.445,-1,3
868,8.21761,4.464,-1,3
869,8.22209,4.481,-1,3
870,8.22659,4.496,-1,3
871,8.23110,4.514,-1,3
872,8.23564,4.537,-1,3
873,8.24020,4.556,-1,3
