cnt,pos,speed,Dir,Force,
1,3.11149,1.128,-1,5
2,3.11261,1.122,-1,5
3,3.11373,1.121,-1,5
4,3.11487,1.133,-1,5
5,3.11601,1.143,-1,5
6,3.11715,1.138,-1,5
7,3.11829,1.138,-1,5
8,3.11944,1.148,-1,5
9,3.12059,1.157,-1,5
10,3.12174,1.151,-1,5
11,3.12289,1.148,-1,5
12,3.12405,1.156,-1,5
13,3.12522,1.168,-1,5
14,3.12638,1.166,-1,5
15,3.12754,1.155,-1,5
16,3.12870,1.161,-1,5
17,3.12987,1.170,-1,5
18,3.13104,1.169,-1,5
19,3.13336,1.163,-1,5
20,3.13454,1.176,-1,5
21,3.13571,1.173,-1,5
22,3.13688,1.164,-1,5
23,3.13804,1.167,-1,5
24,3.13922,1.178,-1,5
25,3.14040,1.176,-1,5
26,3.14157,1.170,-1,5
27,3.14273,1.168,-1,5
28,3.14508,1.171,-1,5
29,3.14625,1.166,-1,5
30,3.14741,1.166,-1,5
31,3.14858,1.167,-1,5
32,3.14973,1.153,-1,5
33,3.15087,1.141,-1,5
34,3.15202,1.144,-1,5
35,3.15317,1.152,-1,5
36,3.15432,1.147,-1,5
37,3.15545,1.135,-1,5
38,3.15659,1.138,-1,5
39,3.15773,1.145,-1,5
40,3.15887,1.141,-1,5
41,3.16000,1.125,-1,5
42,3.16112,1.120,-1,5
43,3.16225,1.133,-1,5
44,3.16339,1.137,-1,5
45,3.16451,1.122,-1,5
46,3.16562,1.110,-1,5
47,3.16673,1.114,-1,5
48,3.16785,1.117,-1,5
49,3.16895,1.103,-1,5
50,3.17004,1.089,-1,5
51,3.17114,1.093,-1,5
52,3.17224,1.098,-1,5
53,3.17332,1.085,-1,5
54,3.17438,1.064,-1,5
55,3.17545,1.064,-1,5
56,3.17652,1.068,-1,5
57,3.17758,1.040,-1,5
58,3.17965,1.035,-1,5
59,3.18070,1.042,-1,5
60,3.18174,1.041,-1,5
61,3.18276,1.020,-1,5
62,3.18376,1.011,-1,5
63,3.18579,1.017,-1,5
64,3.18579,1.004,-1,5
65,3.18679,1.004,-1,5
66,3.18778,0.985,-1,5
67,3.18974,0.990,-1,5
68,3.19073,0.986,-1,5
69,3.19169,0.963,-1,5
70,3.19264,0.944,-1,5
71,3.19359,0.952,-1,5
72,3.19455,0.963,-1,5
73,3.19551,0.956,-1,5
74,3.19644,0.927,-1,5
75,3.19735,0.913,-1,5
76,3.19827,0.925,-1,5
77,3.19920,0.931,-1,5
78,3.20012,0.916,-1,5
79,3.20101,0.890,-1,5
80,3.20189,0.884,-1,5
81,3.20279,0.899,-1,5
82,3.20370,0.905,-1,5
83,3.20458,0.882,-1,5
84,3.20544,0.858,-1,5
85,3.20630,0.858,-1,5
86,3.20717,0.869,-1,5
87,3.20803,0.835,-1,5
88,3.20968,0.819,-1,5
89,3.21051,0.825,-1,5
90,3.21217,0.824,-1,5
91,3.21297,0.805,-1,5
92,3.21377,0.798,-1,5
93,3.21458,0.807,-1,5
94,3.21538,0.806,-1,5
95,3.21617,0.793,-1,5
96,3.21695,0.781,-1,5
97,3.21774,0.783,-1,5
98,3.21853,0.790,-1,5
99,3.21931,0.781,-1,5
100,3.22007,0.765,-1,5
101,3.22083,0.757,-1,5
102,3.22160,0.764,-1,5
103,3.22237,0.770,-1,5
104,3.22312,0.755,-1,5
105,3.22386,0.741,-1,5
106,3.22460,0.742,-1,5
107,3.22535,0.752,-1,5
108,3.22611,0.751,-1,5
109,3.22685,0.741,-1,5
110,3.22758,0.733,-1,5
111,3.22831,0.735,-1,5
112,3.22905,0.738,-1,5
113,3.22979,0.734,-1,5
114,3.23051,0.724,-1,5
115,3.23123,0.723,-1,5
116,3.23196,0.730,-1,5
117,3.23269,0.718,-1,5
118,3.23412,0.712,-1,5
119,3.23484,0.714,-1,5
120,3.23556,0.722,-1,5
121,3.23627,0.716,-1,5
122,3.23698,0.707,-1,5
123,3.23768,0.708,-1,5
124,3.23910,0.707,-1,5
125,3.23980,0.702,-1,5
126,3.24050,0.703,-1,5
127,3.24121,0.705,-1,5
128,3.24192,0.709,-1,5
129,3.24262,0.705,-1,5
130,3.24332,0.702,-1,5
131,3.24403,0.701,-1,5
132,3.24473,0.705,-1,5
133,3.24544,0.706,-1,5
134,3.24614,0.703,-1,5
135,3.24684,0.699,-1,5
136,3.24753,0.697,-1,5
137,3.24823,0.700,-1,5
138,3.24893,0.697,-1,5
139,3.24963,0.696,-1,5
140,3.25032,0.694,-1,5
141,3.25102,0.697,-1,5
142,3.25171,0.692,-1,5
143,3.25240,0.691,-1,5
144,3.25377,0.684,-1,5
145,3.25445,0.682,-1,5
146,3.25514,0.684,-1,5
147,3.25650,0.682,-1,5
148,3.25718,0.681,-1,5
149,3.25786,0.684,-1,5
150,3.25855,0.686,-1,5
151,3.25923,0.685,-1,5
152,3.25992,0.683,-1,5
153,3.26060,0.683,-1,5
154,3.26128,0.684,-1,5
155,3.26197,0.683,-1,5
156,3.26265,0.683,-1,5
157,3.26333,0.683,-1,5
158,3.26402,0.685,-1,5
159,3.26470,0.685,-1,5
160,3.26539,0.686,-1,5
161,3.26607,0.681,-1,5
162,3.26675,0.685,-1,5
163,3.26744,0.684,-1,5
164,3.26813,0.689,-1,5
165,3.26881,0.687,-1,5
166,3.26950,0.690,-1,5
167,3.27089,0.694,-1,5
168,3.27158,0.693,-1,5
169,3.27228,0.698,-1,5
170,3.27298,0.698,-1,5
171,3.27368,0.702,-1,5
172,3.27438,0.701,-1,5
173,3.27508,0.700,-1,5
174,3.27648,0.699,-1,5
175,3.27718,0.699,-1,5
176,3.27787,0.698,-1,5
177,3.27857,0.700,-1,5
178,3.27927,0.699,-1,5
179,3.27997,0.700,-1,5
180,3.28067,0.696,-1,5
181,3.28137,0.699,-1,5
182,3.28207,0.698,-1,5
183,3.28277,0.702,-1,5
184,3.28347,0.699,-1,5
185,3.28417,0.701,-1,5
186,3.28487,0.698,-1,5
187,3.28557,0.699,-1,5
188,3.28627,0.700,-1,5
189,3.28697,0.701,-1,5
190,3.28767,0.702,-1,5
191,3.28837,0.699,-1,5
192,3.28906,0.695,-1,5
193,3.28976,0.693,-1,5
194,3.29045,0.693,-1,5
195,3.29184,0.692,-1,5
196,3.29253,0.689,-1,5
197,3.29322,0.692,-1,5
198,3.29460,0.693,-1,5
199,3.29529,0.689,-1,5
200,3.29598,0.691,-1,5
201,3.29667,0.693,-1,5
202,3.29737,0.698,-1,5
203,3.29807,0.695,-1,5
204,3.29876,0.695,-1,5
205,3.29946,0.694,-1,5
206,3.30016,0.699,-1,5
207,3.30085,0.697,-1,5
208,3.30155,0.699,-1,5
209,3.30225,0.698,-1,5
210,3.30295,0.700,-1,5
211,3.30365,0.698,-1,5
212,3.30434,0.698,-1,5
213,3.30504,0.696,-1,5
214,3.30574,0.696,-1,5
215,3.30643,0.696,-1,5
216,3.30713,0.694,-1,5
217,3.30782,0.689,-1,5
218,3.30920,0.689,-1,5
219,3.30988,0.688,-1,5
220,3.31057,0.688,-1,5
221,3.31126,0.688,-1,5
222,3.31195,0.688,-1,5
223,3.31264,0.685,-1,5
224,3.31400,0.684,-1,5
225,3.31469,0.682,-1,5
226,3.31537,0.682,-1,5
227,3.31605,0.681,-1,5
228,3.31673,0.683,-1,5
229,3.31741,0.679,-1,5
230,3.31809,0.680,-1,5
231,3.31877,0.677,-1,5
232,3.31945,0.680,-1,5
233,3.32012,0.676,-1,5
234,3.32080,0.673,-1,5
235,3.32147,0.668,-1,5
236,3.32213,0.669,-1,5
237,3.32280,0.668,-1,5
238,3.32347,0.665,-1,5
239,3.32413,0.663,-1,5
240,3.32479,0.663,-1,5
241,3.32546,0.665,-1,5
242,3.32613,0.668,-1,5
243,3.32679,0.664,-1,5
244,3.32812,0.665,-1,5
245,3.32879,0.667,-1,5
246,3.32945,0.668,-1,5
247,3.33012,0.666,-1,5
248,3.33145,0.662,-1,5
249,3.33211,0.660,-1,5
250,3.33276,0.658,-1,5
251,3.33342,0.654,-1,5
252,3.33408,0.658,-1,5
253,3.33473,0.658,-1,5
254,3.33539,0.658,-1,5
255,3.33605,0.657,-1,5
256,3.33670,0.654,-1,5
257,3.33736,0.653,-1,5
258,3.33801,0.654,-1,5
259,3.33866,0.651,-1,5
260,3.33931,0.653,-1,5
261,3.33997,0.653,-1,5
262,3.34062,0.651,-1,5
263,3.34127,0.651,-1,5
264,3.34192,0.650,-1,5
265,3.34257,0.649,-1,5
266,3.34322,0.650,-1,5
267,3.34387,0.650,-1,5
268,3.34452,0.652,-1,5
269,3.34517,0.653,-1,5
270,3.34582,0.649,-1,5
271,3.34712,0.649,-1,5
272,3.34776,0.645,-1,5
273,3.34841,0.648,-1,5
274,3.34971,0.648,-1,5
275,3.35036,0.649,-1,5
276,3.35100,0.648,-1,5
277,3.35165,0.647,-1,5
278,3.35230,0.651,-1,5
279,3.35295,0.650,-1,5
280,3.35360,0.651,-1,5
281,3.35426,0.652,-1,5
282,3.35491,0.653,-1,5
283,3.35556,0.655,-1,5
284,3.35622,0.657,-1,5
285,3.35687,0.654,-1,5
286,3.35753,0.658,-1,5
287,3.35819,0.661,-1,5
288,3.35886,0.664,-1,5
289,3.35952,0.664,-1,5
290,3.36018,0.663,-1,5
291,3.36085,0.664,-1,5
292,3.36151,0.664,-1,5
293,3.36218,0.664,-1,5
294,3.36351,0.668,-1,5
295,3.36418,0.670,-1,5
296,3.36485,0.667,-1,5
297,3.36551,0.665,-1,5
298,3.36618,0.667,-1,5
299,3.36685,0.667,-1,5
300,3.36752,0.673,-1,5
301,3.36886,0.672,-1,5
302,3.36953,0.670,-1,5
303,3.37020,0.669,-1,5
304,3.37087,0.671,-1,5
305,3.37154,0.668,-1,5
306,3.37221,0.674,-1,5
307,3.37289,0.674,-1,5
308,3.37356,0.677,-1,5
309,3.37424,0.676,-1,5
310,3.37492,0.676,-1,5
311,3.37560,0.679,-1,5
312,3.37628,0.681,-1,5
313,3.37696,0.684,-1,5
314,3.37765,0.684,-1,5
315,3.37833,0.685,-1,5
316,3.37901,0.685,-1,5
317,3.37970,0.686,-1,5
318,3.38038,0.683,-1,5
319,3.38107,0.685,-1,5
320,3.38175,0.685,-1,5
321,3.38314,0.691,-1,5
322,3.38383,0.693,-1,5
323,3.38452,0.690,-1,5
324,3.38521,0.695,-1,5
325,3.38661,0.704,-1,5
326,3.38732,0.705,-1,5
327,3.38802,0.704,-1,5
328,3.38872,0.702,-1,5
329,3.38942,0.703,-1,5
330,3.39013,0.709,-1,5
331,3.39084,0.712,-1,5
332,3.39156,0.716,-1,5
333,3.39227,0.714,-1,5
334,3.39299,0.714,-1,5
335,3.39370,0.714,-1,5
336,3.39442,0.714,-1,5
337,3.39513,0.717,-1,5
338,3.39585,0.717,-1,5
339,3.39657,0.721,-1,5
340,3.39729,0.722,-1,5
341,3.39801,0.721,-1,5
342,3.39874,0.722,-1,5
343,3.39946,0.722,-1,5
344,3.40018,0.726,-1,5
345,3.40091,0.729,-1,5
346,3.40237,0.731,-1,5
347,3.40310,0.727,-1,5
348,3.40383,0.728,-1,5
349,3.40456,0.735,-1,5
350,3.40531,0.741,-1,5
351,3.40679,0.743,-1,5
352,3.40753,0.740,-1,5
353,3.40827,0.741,-1,5
354,3.40902,0.747,-1,5
355,3.40977,0.750,-1,5
356,3.41052,0.752,-1,5
357,3.41127,0.751,-1,5
358,3.41203,0.752,-1,5
359,3.41278,0.754,-1,5
360,3.41354,0.758,-1,5
361,3.41430,0.762,-1,5
362,3.41507,0.767,-1,5
363,3.41584,0.769,-1,5
364,3.41660,0.767,-1,5
365,3.41737,0.767,-1,5
366,3.41814,0.767,-1,5
367,3.41891,0.771,-1,5
368,3.41968,0.776,-1,5
369,3.42047,0.783,-1,5
370,3.42125,0.781,-1,5
371,3.42280,0.778,-1,5
372,3.42359,0.783,-1,5
373,3.42438,0.790,-1,5
374,3.42517,0.792,-1,5
375,3.42596,0.788,-1,5
376,3.42674,0.782,-1,5
377,3.42752,0.784,-1,5
378,3.42831,0.792,-1,5
379,3.42911,0.799,-1,5
380,3.42991,0.799,-1,5
381,3.43150,0.794,-1,5
382,3.43230,0.797,-1,5
383,3.43310,0.803,-1,5
384,3.43391,0.809,-1,5
385,3.43472,0.809,-1,5
386,3.43553,0.807,-1,5
387,3.43633,0.805,-1,5
388,3.43714,0.811,-1,5
389,3.43796,0.817,-1,5
390,3.43878,0.821,-1,5
391,3.43960,0.821,-1,5
392,3.44042,0.819,-1,5
393,3.44124,0.818,-1,5
394,3.44206,0.820,-1,5
395,3.44289,0.827,-1,5
396,3.44372,0.832,-1,5
397,3.44455,0.829,-1,5
398,3.44538,0.829,-1,5
399,3.44704,0.833,-1,5
400,3.44788,0.840,-1,5
401,3.44872,0.842,-1,5
402,3.45040,0.838,-1,5
403,3.45124,0.838,-1,5
404,3.45209,0.847,-1,5
405,3.45294,0.855,-1,5
406,3.45380,0.855,-1,5
407,3.45465,0.850,-1,5
408,3.45550,0.848,-1,5
409,3.45635,0.853,-1,5
410,3.45721,0.862,-1,5
411,3.45808,0.866,-1,5
412,3.45894,0.859,-1,5
413,3.45979,0.854,-1,5
414,3.46065,0.857,-1,5
415,3.46151,0.867,-1,5
416,3.46239,0.872,-1,5
417,3.46326,0.872,-1,5
418,3.46413,0.866,-1,5
419,3.46499,0.866,-1,5
420,3.46586,0.870,-1,5
421,3.46762,0.882,-1,5
422,3.46850,0.880,-1,5
423,3.46938,0.876,-1,5
424,3.47026,0.881,-1,5
425,3.47115,0.890,-1,5
426,3.47204,0.896,-1,5
427,3.47294,0.893,-1,5
428,3.47382,0.886,-1,5
429,3.47560,0.894,-1,5
430,3.47651,0.908,-1,5
431,3.47742,0.910,-1,5
432,3.47832,0.900,-1,5
433,3.47922,0.897,-1,5
434,3.48012,0.904,-1,5
435,3.48103,0.914,-1,5
436,3.48195,0.915,-1,5
437,3.48286,0.911,-1,5
438,3.48377,0.906,-1,5
439,3.48468,0.913,-1,5
440,3.48561,0.926,-1,5
441,3.48654,0.932,-1,5
442,3.48746,0.922,-1,5
443,3.48837,0.915,-1,5
444,3.48930,0.921,-1,5
445,3.49023,0.934,-1,5
446,3.49117,0.942,-1,5
447,3.49211,0.936,-1,5
448,3.49304,0.935,-1,5
449,3.49492,0.948,-1,5
450,3.49588,0.955,-1,5
451,3.49682,0.947,-1,5
452,3.49776,0.938,-1,5
453,3.49870,0.956,-1,5
454,3.50063,0.970,-1,5
455,3.50159,0.959,-1,5
456,3.50254,0.951,-1,5
457,3.50349,0.950,-1,5
458,3.50446,0.967,-1,5
459,3.50543,0.976,-1,5
460,3.50640,0.972,-1,5
461,3.50736,0.956,-1,5
462,3.50832,0.962,-1,5
463,3.50930,0.981,-1,5
464,3.51030,0.994,-1,5
465,3.51128,0.982,-1,5
466,3.51224,0.966,-1,5
467,3.51321,0.967,-1,5
468,3.51420,0.991,-1,5
469,3.51521,1.004,-1,5
470,3.51620,0.991,-1,5
471,3.51717,0.976,-1,5
472,3.51815,0.980,-1,5
473,3.51916,1.006,-1,5
474,3.52017,1.014,-1,5
475,3.52117,0.996,-1,5
476,3.52215,0.990,-1,5
477,3.52416,1.022,-1,5
478,3.52519,1.029,-1,5
479,3.52620,0.988,-1,5
480,3.52819,1.002,-1,5
481,3.52922,1.033,-1,5
482,3.53026,1.038,-1,5
483,3.53127,1.014,-1,5
484,3.53227,0.998,-1,5
485,3.53329,1.021,-1,5
486,3.53434,1.051,-1,5
487,3.53539,1.046,-1,5
488,3.53640,1.015,-1,5
489,3.53741,1.005,-1,5
490,3.53844,1.033,-1,5
491,3.53950,1.060,-1,5
492,3.54055,1.050,-1,5
493,3.54157,1.021,-1,5
494,3.54259,1.017,-1,5
495,3.54364,1.046,-1,5
496,3.54470,1.065,-1,5
497,3.54575,1.046,-1,5
498,3.54677,1.024,-1,5
499,3.54780,1.030,-1,5
500,3.54994,1.072,-1,5
501,3.55098,1.047,-1,5
502,3.55201,1.031,-1,5
503,3.55306,1.045,-1,5
504,3.55413,1.073,-1,5
505,3.55521,1.073,-1,5
506,3.55730,1.045,-1,5
507,3.55836,1.062,-1,5
508,3.55944,1.080,-1,5
509,3.56051,1.071,-1,5
510,3.56157,1.055,-1,5
511,3.56263,1.058,-1,5
512,3.56370,1.072,-1,5
513,3.56478,1.081,-1,5
514,3.56585,1.073,-1,5
515,3.56692,1.065,-1,5
516,3.56799,1.066,-1,5
517,3.56906,1.073,-1,5
518,3.57014,1.078,-1,5
519,3.57122,1.079,-1,5
520,3.57229,1.078,-1,5
521,3.57337,1.074,-1,5
522,3.57444,1.074,-1,5
523,3.57552,1.079,-1,5
524,3.57661,1.086,-1,5
525,3.57769,1.086,-1,5
526,3.57877,1.078,-1,5
527,3.58093,1.089,-1,5
528,3.58203,1.097,-1,5
529,3.58312,1.086,-1,5
530,3.58419,1.072,-1,5
531,3.58527,1.077,-1,5
532,3.58636,1.096,-1,5
533,3.58746,1.098,-1,5
534,3.58854,1.082,-1,5
535,3.58962,1.073,-1,5
536,3.59070,1.098,-1,5
537,3.59289,1.090,-1,5
538,3.59396,1.074,-1,5
539,3.59396,1.073,-1,5
540,3.59504,1.089,-1,5
541,3.59613,1.089,-1,5
542,3.59722,1.095,-1,5
543,3.59830,1.081,-1,5
544,3.59937,1.070,-1,5
545,3.60045,1.085,-1,5
546,3.60262,1.085,-1,5
547,3.60369,1.074,-1,5
548,3.60476,1.072,-1,5
549,3.60584,1.077,-1,5
550,3.60691,1.076,-1,5
551,3.60798,1.070,-1,5
552,3.60905,1.069,-1,5
553,3.61012,1.071,-1,5
554,3.61119,1.070,-1,5
555,3.61332,1.063,-1,5
556,3.61439,1.066,-1,5
557,3.61545,1.061,-1,5
558,3.61651,1.056,-1,5
559,3.61756,1.051,-1,5
560,3.61862,1.059,-1,5
561,3.61968,1.055,-1,5
562,3.62073,1.037,-1,5
563,3.62280,1.035,-1,5
564,3.62385,1.046,-1,5
565,3.62490,1.051,-1,5
566,3.62594,1.037,-1,5
567,3.62696,1.024,-1,5
568,3.62799,1.028,-1,5
569,3.62903,1.039,-1,5
570,3.63006,1.034,-1,5
571,3.63108,1.016,-1,5
572,3.63209,1.008,-1,5
573,3.63310,1.015,-1,5
574,3.63412,1.024,-1,5
575,3.63514,1.018,-1,5
576,3.63615,1.003,-1,5
577,3.63714,0.994,-1,5
578,3.63814,1.002,-1,5
579,3.63914,1.002,-1,5
580,3.64014,0.993,-1,5
581,3.64112,0.981,-1,5
582,3.64210,0.989,-1,5
583,3.64407,0.984,-1,5
584,3.64504,0.971,-1,5
585,3.64600,0.961,-1,5
586,3.64792,0.964,-1,5
587,3.64889,0.961,-1,5
588,3.64983,0.943,-1,5
589,3.65077,0.937,-1,5
590,3.65171,0.942,-1,5
591,3.65265,0.946,-1,5
592,3.65359,0.934,-1,5
593,3.65450,0.913,-1,5
594,3.65541,0.908,-1,5
595,3.65633,0.919,-1,5
596,3.65725,0.922,-1,5
597,3.65816,0.907,-1,5
598,3.65904,0.887,-1,5
599,3.65993,0.883,-1,5
600,3.66082,0.893,-1,5
601,3.66171,0.896,-1,5
602,3.66260,0.882,-1,5
603,3.66345,0.857,-1,5
604,3.66430,0.866,-1,5
605,3.66517,0.866,-1,5
606,3.66604,0.874,-1,5
607,3.66774,0.833,-1,5
608,3.66856,0.818,-1,5
609,3.66938,0.828,-1,5
610,3.67023,0.845,-1,5
611,3.67107,0.838,-1,5
612,3.67188,0.788,-1,5
613,3.67346,0.793,-1,5
614,3.67427,0.813,-1,5
615,3.67509,0.815,-1,5
616,3.67588,0.792,-1,5
617,3.67664,0.761,-1,5
618,3.67740,0.755,-1,5
619,3.67817,0.771,-1,5
620,3.67895,0.785,-1,5
621,3.67973,0.774,-1,5
622,3.68047,0.744,-1,5
623,3.68120,0.727,-1,5
624,3.68193,0.731,-1,5
625,3.68267,0.747,-1,5
626,3.68342,0.750,-1,5
627,3.68415,0.727,-1,5
628,3.68486,0.704,-1,5
629,3.68555,0.698,-1,5
630,3.68626,0.707,-1,5
631,3.68698,0.716,-1,5
632,3.68768,0.704,-1,5
633,3.68837,0.689,-1,5
634,3.68905,0.684,-1,5
635,3.69042,0.687,-1,5
636,3.69110,0.681,-1,5
637,3.69176,0.664,-1,5
638,3.69241,0.652,-1,5
639,3.69307,0.657,-1,5
640,3.69373,0.663,-1,5
641,3.69505,0.648,-1,5
642,3.69568,0.633,-1,5
643,3.69631,0.635,-1,5
644,3.69696,0.645,-1,5
645,3.69760,0.646,-1,5
646,3.69824,0.639,-1,5
647,3.69886,0.622,-1,5
648,3.69948,0.614,-1,5
649,3.70010,0.618,-1,5
650,3.70072,0.625,-1,5
651,3.70134,0.620,-1,5
652,3.70195,0.608,-1,5
653,3.70255,0.601,-1,5
654,3.70315,0.605,-1,5
655,3.70377,0.611,-1,5
656,3.70437,0.607,-1,5
657,3.70497,0.597,-1,5
658,3.70556,0.588,-1,5
659,3.70615,0.589,-1,5
660,3.70674,0.595,-1,5
661,3.70734,0.587,-1,5
662,3.70850,0.577,-1,5
663,3.70908,0.575,-1,5
664,3.70966,0.582,-1,5
665,3.71024,0.583,-1,5
666,3.71082,0.578,-1,5
667,3.71139,0.569,-1,5
668,3.71196,0.569,-1,5
669,3.71311,0.578,-1,5
670,3.71369,0.573,-1,5
671,3.71425,0.564,-1,5
672,3.71481,0.561,-1,5
673,3.71538,0.565,-1,5
674,3.71595,0.571,-1,5
675,3.71652,0.569,-1,5
676,3.71708,0.562,-1,5
677,3.71764,0.558,-1,5
678,3.71820,0.560,-1,5
679,3.71876,0.565,-1,5
680,3.71933,0.564,-1,5
681,3.71989,0.560,-1,5
682,3.72044,0.556,-1,5
683,3.72100,0.560,-1,5
684,3.72157,0.565,-1,5
685,3.72213,0.564,-1,5
686,3.72269,0.559,-1,5
687,3.72325,0.557,-1,5
688,3.72380,0.558,-1,5
689,3.72437,0.563,-1,5
690,3.72493,0.564,-1,5
691,3.72606,0.562,-1,5
692,3.72662,0.561,-1,5
693,3.72718,0.565,-1,5
694,3.72775,0.568,-1,5
695,3.72831,0.565,-1,5
696,3.72888,0.563,-1,5
697,3.73001,0.565,-1,5
698,3.73057,0.569,-1,5
699,3.73114,0.569,-1,5
700,3.73171,0.566,-1,5
701,3.73227,0.564,-1,5
702,3.73284,0.568,-1,5
703,3.73341,0.570,-1,5
704,3.73398,0.572,-1,5
705,3.73455,0.570,-1,5
706,3.73512,0.570,-1,5
707,3.73570,0.572,-1,5
708,3.73627,0.574,-1,5
709,3.73685,0.576,-1,5
710,3.73742,0.574,-1,5
711,3.73799,0.571,-1,5
712,3.73856,0.572,-1,5
713,3.73914,0.575,-1,5
714,3.73972,0.577,-1,5
715,3.74029,0.577,-1,5
716,3.74087,0.575,-1,5
717,3.74144,0.576,-1,5
718,3.74202,0.579,-1,5
719,3.74260,0.580,-1,5
720,3.74376,0.578,-1,5
721,3.74434,0.580,-1,5
722,3.74493,0.585,-1,5
723,3.74551,0.584,-1,5
724,3.74609,0.583,-1,5
725,3.74667,0.581,-1,5
726,3.74784,0.584,-1,5
727,3.74842,0.585,-1,5
728,3.74901,0.585,-1,5
729,3.74959,0.585,-1,5
730,3.75018,0.586,-1,5
731,3.75077,0.587,-1,5
732,3.75135,0.589,-1,5
733,3.75194,0.588,-1,5
734,3.75253,0.588,-1,5
735,3.75312,0.588,-1,5
736,3.75371,0.591,-1,5
737,3.75430,0.593,-1,5
738,3.75490,0.593,-1,5
739,3.75549,0.590,-1,5
740,3.75607,0.589,-1,5
741,3.75666,0.590,-1,5
742,3.75725,0.590,-1,5
743,3.75785,0.591,-1,5
744,3.75844,0.590,-1,5
745,3.75903,0.592,-1,5
746,3.75962,0.593,-1,5
747,3.76021,0.592,-1,5
748,3.76080,0.591,-1,5
749,3.76198,0.591,-1,5
750,3.76257,0.591,-1,5
751,3.76316,0.591,-1,5
752,3.76375,0.590,-1,5
753,3.76434,0.589,-1,5
754,3.76493,0.588,-1,5
755,3.76611,0.588,-1,5
756,3.76669,0.588,-1,5
757,3.76728,0.587,-1,5
758,3.76787,0.587,-1,5
759,3.76846,0.589,-1,5
760,3.76904,0.587,-1,5
761,3.76963,0.585,-1,5
762,3.77021,0.583,-1,5
763,3.77079,0.584,-1,5
764,3.77138,0.585,-1,5
765,3.77196,0.583,-1,5
766,3.77254,0.582,-1,5
767,3.77313,0.584,-1,5
768,3.77371,0.585,-1,5
769,3.77429,0.582,-1,5
770,3.77487,0.582,-1,5
771,3.77546,0.581,-1,5
772,3.77604,0.581,-1,5
773,3.77662,0.580,-1,5
774,3.77720,0.581,-1,5
775,3.77778,0.581,-1,5
776,3.77836,0.580,-1,5
777,3.77894,0.579,-1,5
778,3.78009,0.578,-1,5
779,3.78067,0.579,-1,5
780,3.78183,0.579,-1,5
781,3.78241,0.581,-1,5
782,3.78299,0.581,-1,5
783,3.78357,0.581,-1,5
784,3.78415,0.579,-1,5
785,3.78473,0.578,-1,5
786,3.78531,0.577,-1,5
787,3.78588,0.576,-1,5
788,3.78646,0.575,-1,5
789,3.78704,0.577,-1,5
790,3.78761,0.575,-1,5
791,3.78819,0.574,-1,5
792,3.78876,0.574,-1,5
793,3.78934,0.576,-1,5
794,3.78991,0.575,-1,5
795,3.79049,0.575,-1,5
796,3.79106,0.573,-1,5
797,3.79163,0.575,-1,5
798,3.79221,0.577,-1,5
799,3.79278,0.573,-1,5
800,3.79335,0.570,-1,5
801,3.79392,0.570,-1,5
802,3.79449,0.571,-1,5
803,3.79506,0.569,-1,5
804,3.79620,0.568,-1,5
805,3.79677,0.570,-1,5
806,3.79734,0.570,-1,5
807,3.79791,0.569,-1,5
808,3.79905,0.569,-1,5
809,3.79962,0.570,-1,5
810,3.80019,0.568,-1,5
811,3.80075,0.569,-1,5
812,3.80132,0.569,-1,5
813,3.80189,0.567,-1,5
814,3.80246,0.567,-1,5
815,3.80302,0.566,-1,5
816,3.80359,0.565,-1,5
817,3.80415,0.566,-1,5
818,3.80472,0.565,-1,5
819,3.80528,0.566,-1,5
820,3.80585,0.567,-1,5
821,3.80642,0.569,-1,5
822,3.80699,0.568,-1,5
823,3.80756,0.567,-1,5
824,3.80812,0.568,-1,5
825,3.80869,0.569,-1,5
826,3.80926,0.568,-1,5
827,3.80983,0.568,-1,5
828,3.81040,0.568,-1,5
829,3.81154,0.570,-1,5
830,3.81210,0.567,-1,5
831,3.81267,0.568,-1,5
832,3.81324,0.568,-1,5
833,3.81381,0.569,-1,5
834,3.81438,0.568,-1,5
835,3.81494,0.569,-1,5
836,3.81608,0.570,-1,5
837,3.81665,0.570,-1,5
838,3.81722,0.569,-1,5
839,3.81779,0.568,-1,5
840,3.81836,0.568,-1,5
841,3.81893,0.569,-1,5
842,3.81950,0.570,-1,5
843,3.82007,0.569,-1,5
844,3.82064,0.570,-1,5
845,3.82121,0.570,-1,5
846,3.82178,0.570,-1,5
847,3.82235,0.570,-1,5
848,3.82292,0.569,-1,5
849,3.82349,0.569,-1,5
850,3.82406,0.570,-1,5
851,3.82463,0.572,-1,5
852,3.82520,0.572,-1,5
853,3.82577,0.570,-1,5
854,3.82634,0.568,-1,5
855,3.82691,0.571,-1,5
856,3.82748,0.572,-1,5
857,3.82805,0.571,-1,5
858,3.82920,0.573,-1,5
859,3.82977,0.577,-1,5
860,3.83035,0.576,-1,5
861,3.83092,0.574,-1,5
862,3.83150,0.573,-1,5
863,3.83207,0.579,-1,5
864,3.83323,0.576,-1,5
865,3.83380,0.575,-1,5
866,3.83438,0.578,-1,5
867,3.83496,0.581,-1,5
868,3.83554,0.582,-1,5
869,3.83612,0.580,-1,5
870,3.83670,0.580,-1,5
871,3.83729,0.585,-1,5
872,3.83787,0.586,-1,5
873,3.83846,0.588,-1,5
