cnt,pos,speed,Dir,Force,
1,4.18432,1.015,-1,5
2,4.18534,1.015,-1,5
3,4.18635,1.011,-1,5
4,4.18737,1.021,-1,5
5,4.18841,1.042,-1,5
6,4.18947,1.055,-1,5
7,4.19052,1.054,-1,5
8,4.19157,1.050,-1,5
9,4.19264,1.069,-1,5
10,4.19373,1.093,-1,5
11,4.19483,1.102,-1,5
12,4.19593,1.093,-1,5
13,4.19702,1.092,-1,5
14,4.19814,1.117,-1,5
15,4.19928,1.146,-1,5
16,4.20043,1.146,-1,5
17,4.20156,1.138,-1,5
18,4.20271,1.149,-1,5
19,4.20389,1.178,-1,5
20,4.20508,1.191,-1,5
21,4.20627,1.187,-1,5
22,4.20746,1.189,-1,5
23,4.20867,1.214,-1,5
24,4.20991,1.236,-1,5
25,4.21114,1.237,-1,5
26,4.21238,1.237,-1,5
27,4.21490,1.271,-1,5
28,4.21619,1.284,-1,5
29,4.21748,1.294,-1,5
30,4.21878,1.299,-1,5
31,4.22009,1.306,-1,5
32,4.22141,1.323,-1,5
33,4.22411,1.355,-1,5
34,4.22546,1.354,-1,5
35,4.22683,1.368,-1,5
36,4.22822,1.390,-1,5
37,4.22963,1.403,-1,5
38,4.23103,1.410,-1,5
39,4.23246,1.421,-1,5
40,4.23389,1.437,-1,5
41,4.23534,1.449,-1,5
42,4.23680,1.463,-1,5
43,4.23828,1.473,-1,5
44,4.23976,1.482,-1,5
45,4.24126,1.501,-1,5
46,4.24278,1.517,-1,5
47,4.24430,1.521,-1,5
48,4.24583,1.529,-1,5
49,4.24737,1.543,-1,5
50,4.24893,1.562,-1,5
51,4.25051,1.577,-1,5
52,4.25210,1.587,-1,5
53,4.25368,1.587,-1,5
54,4.25528,1.600,-1,5
55,4.25691,1.622,-1,5
56,4.25854,1.635,-1,5
57,4.26018,1.643,-1,5
58,4.26183,1.646,-1,5
59,4.26348,1.654,-1,5
60,4.26516,1.675,-1,5
61,4.26685,1.690,-1,5
62,4.26854,1.691,-1,5
63,4.27194,1.705,-1,5
64,4.27366,1.721,-1,5
65,4.27540,1.735,-1,5
66,4.27713,1.733,-1,5
67,4.28062,1.753,-1,5
68,4.28062,1.760,-1,5
69,4.28415,1.764,-1,5
70,4.28591,1.767,-1,5
71,4.28768,1.770,-1,5
72,4.28947,1.789,-1,5
73,4.29126,1.790,-1,5
74,4.29305,1.789,-1,5
75,4.29484,1.787,-1,5
76,4.29663,1.797,-1,5
77,4.29844,1.813,-1,5
78,4.30206,1.801,-1,5
79,4.30386,1.803,-1,5
80,4.30567,1.812,-1,5
81,4.30750,1.824,-1,5
82,4.31113,1.807,-1,5
83,4.31294,1.813,-1,5
84,4.31476,1.820,-1,5
85,4.31659,1.828,-1,5
86,4.31841,1.823,-1,5
87,4.32022,1.813,-1,5
88,4.32204,1.814,-1,5
89,4.32385,1.818,-1,5
90,4.32568,1.824,-1,5
91,4.32750,1.822,-1,5
92,4.32931,1.813,-1,5
93,4.33112,1.806,-1,5
94,4.33293,1.808,-1,5
95,4.33474,1.814,-1,5
96,4.33656,1.818,-1,5
97,4.33837,1.806,-1,5
98,4.34015,1.788,-1,5
99,4.34195,1.795,-1,5
100,4.34375,1.805,-1,5
101,4.34556,1.810,-1,5
102,4.34735,1.789,-1,5
103,4.34913,1.773,-1,5
104,4.35091,1.781,-1,5
105,4.35271,1.797,-1,5
106,4.35449,1.788,-1,5
107,4.35626,1.771,-1,5
108,4.35802,1.757,-1,5
109,4.35979,1.772,-1,5
110,4.36157,1.780,-1,5
111,4.36334,1.765,-1,5
112,4.36509,1.751,-1,5
113,4.36684,1.747,-1,5
114,4.36860,1.759,-1,5
115,4.37036,1.762,-1,5
116,4.37210,1.740,-1,5
117,4.37383,1.736,-1,5
118,4.37558,1.743,-1,5
119,4.37732,1.744,-1,5
120,4.37906,1.735,-1,5
121,4.38078,1.725,-1,5
122,4.38251,1.734,-1,5
123,4.38597,1.728,-1,5
124,4.38769,1.716,-1,5
125,4.38769,1.712,-1,5
126,4.38940,1.717,-1,5
127,4.39112,1.717,-1,5
128,4.39284,1.727,-1,5
129,4.39456,1.713,-1,5
130,4.39626,1.699,-1,5
131,4.39967,1.714,-1,5
132,4.40139,1.716,-1,5
133,4.40309,1.702,-1,5
134,4.40478,1.689,-1,5
135,4.40648,1.699,-1,5
136,4.40819,1.713,-1,5
137,4.40990,1.707,-1,5
138,4.41160,1.695,-1,5
139,4.41328,1.688,-1,5
140,4.41668,1.706,-1,5
141,4.41838,1.699,-1,5
142,4.42007,1.693,-1,5
143,4.42176,1.697,-1,5
144,4.42346,1.697,-1,5
145,4.42516,1.697,-1,5
146,4.42685,1.691,-1,5
147,4.42854,1.688,-1,5
148,4.43024,1.700,-1,5
149,4.43194,1.703,-1,5
150,4.43363,1.691,-1,5
151,4.43701,1.692,-1,5
152,4.43871,1.703,-1,5
153,4.44042,1.706,-1,5
154,4.44211,1.692,-1,5
155,4.44379,1.681,-1,5
156,4.44548,1.694,-1,5
157,4.44719,1.706,-1,5
158,4.44890,1.707,-1,5
159,4.45058,1.689,-1,5
160,4.45227,1.682,-1,5
161,4.45396,1.698,-1,5
162,4.45568,1.712,-1,5
163,4.45738,1.704,-1,5
164,4.45907,1.691,-1,5
165,4.46076,1.689,-1,5
166,4.46246,1.700,-1,5
167,4.46417,1.713,-1,5
168,4.46588,1.705,-1,5
169,4.46757,1.695,-1,5
170,4.46927,1.698,-1,5
171,4.47098,1.707,-1,5
172,4.47269,1.710,-1,5
173,4.47440,1.707,-1,5
174,4.47610,1.701,-1,5
175,4.47781,1.710,-1,5
176,4.47952,1.716,-1,5
177,4.48123,1.712,-1,5
178,4.48295,1.711,-1,5
179,4.48466,1.714,-1,5
180,4.48638,1.725,-1,5
181,4.48984,1.722,-1,5
182,4.48984,1.723,-1,5
183,4.49156,1.732,-1,5
184,4.49329,1.732,-1,5
185,4.49503,1.741,-1,5
186,4.49678,1.748,-1,5
187,4.49852,1.740,-1,5
188,4.50026,1.740,-1,5
189,4.50202,1.755,-1,5
190,4.50555,1.768,-1,5
191,4.50732,1.770,-1,5
192,4.50909,1.773,-1,5
193,4.51088,1.786,-1,5
194,4.51267,1.795,-1,5
195,4.51447,1.803,-1,5
196,4.51629,1.811,-1,5
197,4.51810,1.817,-1,5
198,4.51993,1.825,-1,5
199,4.52177,1.838,-1,5
200,4.52549,1.868,-1,5
201,4.52736,1.872,-1,5
202,4.52924,1.878,-1,5
203,4.53113,1.894,-1,5
204,4.53305,1.918,-1,5
205,4.53499,1.938,-1,5
206,4.53693,1.940,-1,5
207,4.53888,1.951,-1,5
208,4.54085,1.998,-1,5
209,4.54487,2.019,-1,5
210,4.54689,2.029,-1,5
211,4.54894,2.046,-1,5
212,4.55101,2.065,-1,5
213,4.55310,2.093,-1,5
214,4.55522,2.118,-1,5
215,4.55951,2.152,-1,5
216,4.56168,2.174,-1,5
217,4.56389,2.210,-1,5
218,4.56613,2.240,-1,5
219,4.56839,2.276,-1,5
220,4.57066,2.276,-1,5
221,4.57298,2.311,-1,5
222,4.57532,2.344,-1,5
223,4.57769,2.369,-1,5
224,4.58008,2.391,-1,5
225,4.58251,2.428,-1,5
226,4.58496,2.454,-1,5
227,4.58745,2.488,-1,5
228,4.58997,2.551,-1,5
229,4.59510,2.580,-1,5
230,4.59771,2.612,-1,5
231,4.60036,2.649,-1,5
232,4.60304,2.684,-1,5
233,4.60576,2.715,-1,5
234,4.60851,2.747,-1,5
235,4.61129,2.786,-1,5
236,4.61412,2.824,-1,5
237,4.61698,2.860,-1,5
238,4.61987,2.898,-1,5
239,4.62281,2.936,-1,5
240,4.62578,2.971,-1,5
241,4.62880,3.014,-1,5
242,4.63185,3.051,-1,5
243,4.63494,3.093,-1,5
244,4.63807,3.128,-1,5
245,4.64124,3.176,-1,5
246,4.64445,3.211,-1,5
247,4.64771,3.253,-1,5
248,4.65100,3.336,-1,5
249,4.65771,3.374,-1,5
250,4.66113,3.417,-1,5
251,4.66458,3.451,-1,5
252,4.66808,3.498,-1,5
253,4.67162,3.537,-1,5
254,4.67519,3.574,-1,5
255,4.67880,3.611,-1,5
256,4.68614,3.688,-1,5
257,4.68986,3.724,-1,5
258,4.69361,3.754,-1,5
259,4.69741,3.790,-1,5
260,4.70123,3.825,-1,5
261,4.70508,3.855,-1,5
262,4.70897,3.885,-1,5
263,4.71288,3.909,-1,5
264,4.71682,3.941,-1,5
265,4.72078,3.965,-1,5
266,4.72477,3.990,-1,5
267,4.72878,4.011,-1,5
268,4.73281,4.028,-1,5
269,4.73687,4.053,-1,5
270,4.74094,4.076,-1,5
271,4.74503,4.088,-1,5
272,4.74913,4.103,-1,5
273,4.75325,4.119,-1,5
274,4.75738,4.132,-1,5
275,4.76153,4.148,-1,5
276,4.76569,4.158,-1,5
277,4.76986,4.168,-1,5
278,4.77403,4.174,-1,5
279,4.77821,4.185,-1,5
280,4.78240,4.190,-1,5
281,4.78660,4.195,-1,5
282,4.79080,4.203,-1,5
283,4.79921,4.206,-1,5
284,4.80341,4.207,-1,5
285,4.80762,4.203,-1,5
286,4.81603,4.205,-1,5
287,4.82023,4.205,-1,5
288,4.82443,4.200,-1,5
289,4.82863,4.198,-1,5
290,4.83282,4.195,-1,5
291,4.83702,4.191,-1,5
292,4.84120,4.189,-1,5
293,4.84539,4.182,-1,5
294,4.84956,4.176,-1,5
295,4.85373,4.168,-1,5
296,4.86205,4.156,-1,5
297,4.86620,4.149,-1,5
298,4.87034,4.137,-1,5
299,4.87447,4.129,-1,5
300,4.87859,4.114,-1,5
301,4.88270,4.114,-1,5
302,4.88680,4.100,-1,5
303,4.89089,4.087,-1,5
304,4.89497,4.079,-1,5
305,4.89904,4.059,-1,5
306,4.90714,4.046,-1,5
307,4.91117,4.031,-1,5
308,4.91519,4.021,-1,5
309,4.91920,4.008,-1,5
310,4.92320,3.995,-1,5
311,4.92718,3.979,-1,5
312,4.93114,3.966,-1,5
313,4.93510,3.953,-1,5
314,4.93903,3.938,-1,5
315,4.94296,3.922,-1,5
316,4.94686,3.906,-1,5
317,4.95076,3.894,-1,5
318,4.95464,3.879,-1,5
319,4.95850,3.861,-1,5
320,4.96234,3.847,-1,5
321,4.96617,3.828,-1,5
322,4.96999,3.817,-1,5
323,4.97379,3.800,-1,5
324,4.97757,3.786,-1,5
325,4.98134,3.767,-1,5
326,4.98509,3.752,-1,5
327,4.98883,3.737,-1,5
328,4.99255,3.722,-1,5
329,4.99626,3.702,-1,5
330,4.99994,3.689,-1,5
331,5.00361,3.666,-1,5
332,5.00726,3.638,-1,5
333,5.01452,3.621,-1,5
334,5.01812,3.602,-1,5
335,5.02171,3.585,-1,5
336,5.02883,3.552,-1,5
337,5.03236,3.535,-1,5
338,5.03588,3.519,-1,5
339,5.03938,3.503,-1,5
340,5.04287,3.484,-1,5
341,5.04634,3.474,-1,5
342,5.04980,3.453,-1,5
343,5.05324,3.440,-1,5
344,5.05665,3.418,-1,5
345,5.06006,3.408,-1,5
346,5.06345,3.391,-1,5
347,5.06683,3.374,-1,5
348,5.07018,3.356,-1,5
349,5.07353,3.344,-1,5
350,5.07686,3.329,-1,5
351,5.08017,3.312,-1,5
352,5.08347,3.300,-1,5
353,5.08675,3.280,-1,5
354,5.09002,3.266,-1,5
355,5.09327,3.254,-1,5
356,5.09651,3.239,-1,5
357,5.09973,3.222,-1,5
358,5.10294,3.211,-1,5
359,5.10613,3.193,-1,5
360,5.10932,3.183,-1,5
361,5.11248,3.168,-1,5
362,5.11564,3.157,-1,5
363,5.11878,3.140,-1,5
364,5.12191,3.134,-1,5
365,5.12503,3.118,-1,5
366,5.13123,3.096,-1,5
367,5.13432,3.087,-1,5
368,5.13739,3.072,-1,5
369,5.14046,3.062,-1,5
370,5.14351,3.040,-1,5
371,5.14958,3.032,-1,5
372,5.15260,3.021,-1,5
373,5.15561,3.013,-1,5
374,5.15862,3.003,-1,5
375,5.16161,2.993,-1,5
376,5.16459,2.985,-1,5
377,5.16757,2.978,-1,5
378,5.17054,2.969,-1,5
379,5.17646,2.954,-1,5
380,5.17940,2.948,-1,5
381,5.18234,2.938,-1,5
382,5.18528,2.935,-1,5
383,5.18821,2.919,-1,5
384,5.19404,2.919,-1,5
385,5.19695,2.908,-1,5
386,5.19986,2.906,-1,5
387,5.20276,2.899,-1,5
388,5.20565,2.897,-1,5
389,5.20854,2.888,-1,5
390,5.21143,2.886,-1,5
391,5.21431,2.879,-1,5
392,5.21719,2.881,-1,5
393,5.22006,2.872,-1,5
394,5.22293,2.869,-1,5
395,5.22579,2.866,-1,5
396,5.22865,2.859,-1,5
397,5.23151,2.860,-1,5
398,5.23438,2.861,-1,5
399,5.23723,2.850,-1,5
400,5.24007,2.849,-1,5
401,5.24293,2.853,-1,5
402,5.24577,2.848,-1,5
403,5.24862,2.848,-1,5
404,5.25147,2.845,-1,5
405,5.25431,2.843,-1,5
406,5.25716,2.845,-1,5
407,5.26000,2.846,-1,5
408,5.26285,2.846,-1,5
409,5.26569,2.843,-1,5
410,5.26853,2.841,-1,5
411,5.27138,2.848,-1,5
412,5.27423,2.848,-1,5
413,5.27708,2.848,-1,5
414,5.28278,2.852,-1,5
415,5.28564,2.855,-1,5
416,5.28850,2.860,-1,5
417,5.29136,2.862,-1,5
418,5.29709,2.869,-1,5
419,5.29997,2.875,-1,5
420,5.30285,2.881,-1,5
421,5.30573,2.883,-1,5
422,5.30863,2.895,-1,5
423,5.31152,2.895,-1,5
424,5.31443,2.905,-1,5
425,5.31734,2.910,-1,5
426,5.32026,2.922,-1,5
427,5.32319,2.927,-1,5
428,5.32612,2.936,-1,5
429,5.32907,2.949,-1,5
430,5.33203,2.955,-1,5
431,5.33499,2.966,-1,5
432,5.33797,2.980,-1,5
433,5.34096,2.990,-1,5
434,5.34396,3.001,-1,5
435,5.34698,3.017,-1,5
436,5.35001,3.028,-1,5
437,5.35305,3.041,-1,5
438,5.35611,3.058,-1,5
439,5.35918,3.077,-1,5
440,5.36227,3.089,-1,5
441,5.36538,3.106,-1,5
442,5.36851,3.125,-1,5
443,5.37165,3.142,-1,5
444,5.37481,3.164,-1,5
445,5.37800,3.184,-1,5
446,5.38120,3.207,-1,5
447,5.38443,3.228,-1,5
448,5.38768,3.254,-1,5
449,5.39096,3.274,-1,5
450,5.39426,3.302,-1,5
451,5.39759,3.327,-1,5
452,5.40432,3.381,-1,5
453,5.40774,3.415,-1,5
454,5.41118,3.440,-1,5
455,5.41465,3.503,-1,5
456,5.41816,3.540,-1,5
457,5.42527,3.574,-1,5
458,5.42888,3.609,-1,5
459,5.43253,3.647,-1,5
460,5.43621,3.684,-1,5
461,5.43993,3.722,-1,5
462,5.44370,3.764,-1,5
463,5.44750,3.802,-1,5
464,5.45134,3.841,-1,5
465,5.45523,3.885,-1,5
466,5.46312,3.969,-1,5
467,5.46713,4.013,-1,5
468,5.47119,4.058,-1,5
469,5.47530,4.102,-1,5
470,5.47944,4.146,-1,5
471,5.48786,4.234,-1,5
472,5.49214,4.277,-1,5
473,5.49646,4.322,-1,5
474,5.50083,4.364,-1,5
475,5.50523,4.402,-1,5
476,5.50968,4.450,-1,5
477,5.51417,4.490,-1,5
478,5.51870,4.532,-1,5
479,5.52327,4.568,-1,5
480,5.52788,4.614,-1,5
481,5.53253,4.651,-1,5
482,5.53722,4.691,-1,5
483,5.54195,4.725,-1,5
484,5.54671,4.763,-1,5
485,5.55151,4.799,-1,5
486,5.55635,4.837,-1,5
487,5.56122,4.868,-1,5
488,5.56612,4.900,-1,5
489,5.57105,4.931,-1,5
490,5.57601,4.965,-1,5
491,5.58100,4.992,-1,5
492,5.58602,5.019,-1,5
493,5.59107,5.049,-1,5
494,5.59615,5.076,-1,5
495,5.60125,5.099,-1,5
496,5.60637,5.122,-1,5
497,5.61152,5.147,-1,5
498,5.61668,5.166,-1,5
499,5.62187,5.190,-1,5
500,5.62708,5.205,-1,5
501,5.63230,5.234,-1,5
502,5.63753,5.251,-1,5
503,5.64805,5.262,-1,5
504,5.65332,5.271,-1,5
505,5.65859,5.274,-1,5
506,5.66388,5.284,-1,5
507,5.66917,5.297,-1,5
508,5.67976,5.294,-1,5
509,5.68505,5.292,-1,5
510,5.69034,5.295,-1,5
511,5.69564,5.297,-1,5
512,5.70093,5.292,-1,5
513,5.70622,5.282,-1,5
514,5.71149,5.277,-1,5
515,5.71676,5.270,-1,5
516,5.72203,5.264,-1,5
517,5.72728,5.253,-1,5
518,5.73252,5.243,-1,5
519,5.73775,5.231,-1,5
520,5.74298,5.221,-1,5
521,5.74818,5.206,-1,5
522,5.75338,5.194,-1,5
523,5.75855,5.179,-1,5
524,5.76372,5.167,-1,5
525,5.76887,5.149,-1,5
526,5.77400,5.130,-1,5
527,5.77912,5.119,-1,5
528,5.78422,5.102,-1,5
529,5.78930,5.082,-1,5
530,5.79940,5.040,-1,5
531,5.79940,5.021,-1,5
532,5.80442,5.005,-1,5
533,5.80943,5.005,-1,5
534,5.81441,4.982,-1,5
535,5.81937,4.962,-1,5
536,5.82431,4.938,-1,5
537,5.82923,4.919,-1,5
538,5.83901,4.881,-1,5
539,5.84386,4.854,-1,5
540,5.84870,4.809,-1,5
541,5.86307,4.767,-1,5
542,5.86781,4.746,-1,5
543,5.87253,4.721,-1,5
544,5.87723,4.696,-1,5
545,5.88190,4.676,-1,5
546,5.88656,4.653,-1,5
547,5.89119,4.631,-1,5
548,5.89580,4.609,-1,5
549,5.90039,4.565,-1,5
550,5.90950,4.545,-1,5
551,5.91402,4.519,-1,5
552,5.91852,4.501,-1,5
553,5.92299,4.477,-1,5
554,5.92745,4.455,-1,5
555,5.93630,4.414,-1,5
556,5.94069,4.389,-1,5
557,5.94505,4.365,-1,5
558,5.94940,4.349,-1,5
559,5.95373,4.327,-1,5
560,5.95804,4.308,-1,5
561,5.96232,4.281,-1,5
562,5.96658,4.262,-1,5
563,5.97082,4.241,-1,5
564,5.97504,4.222,-1,5
565,5.97925,4.203,-1,5
566,5.98343,4.181,-1,5
567,5.98759,4.158,-1,5
568,5.99172,4.137,-1,5
569,5.99584,4.114,-1,5
570,5.99993,4.092,-1,5
571,6.00400,4.073,-1,5
572,6.00806,4.055,-1,5
573,6.01209,4.030,-1,5
574,6.01609,4.008,-1,5
575,6.02008,3.990,-1,5
576,6.02405,3.968,-1,5
577,6.02800,3.949,-1,5
578,6.03192,3.925,-1,5
579,6.03583,3.909,-1,5
580,6.03972,3.887,-1,5
581,6.04359,3.868,-1,5
582,6.04743,3.844,-1,5
583,6.05126,3.824,-1,5
584,6.05506,3.805,-1,5
585,6.05885,3.788,-1,5
586,6.06261,3.764,-1,5
587,6.06636,3.726,-1,5
588,6.07009,3.726,-1,5
589,6.07380,3.709,-1,5
590,6.07748,3.687,-1,5
591,6.08115,3.669,-1,5
592,6.08481,3.653,-1,5
593,6.08844,3.629,-1,5
594,6.09205,3.615,-1,5
595,6.09564,3.595,-1,5
596,6.09922,3.559,-1,5
597,6.10633,3.543,-1,5
598,6.10633,3.524,-1,5
599,6.10985,3.509,-1,5
600,6.11336,3.509,-1,5
601,6.11685,3.488,-1,5
602,6.12032,3.471,-1,5
603,6.12377,3.453,-1,5
604,6.12721,3.438,-1,5
605,6.13063,3.424,-1,5
606,6.13403,3.401,-1,5
607,6.13742,3.371,-1,5
608,6.14079,3.371,-1,5
609,6.14748,3.339,-1,5
610,6.15080,3.322,-1,5
611,6.15411,3.303,-1,5
612,6.15740,3.289,-1,5
613,6.16067,3.276,-1,5
614,6.16393,3.259,-1,5
615,6.16718,3.247,-1,5
616,6.17363,3.218,-1,5
617,6.17684,3.210,-1,5
618,6.18004,3.198,-1,5
619,6.18322,3.185,-1,5
620,6.18640,3.179,-1,5
621,6.18957,3.166,-1,5
622,6.19273,3.165,-1,5
623,6.19589,3.156,-1,5
624,6.19903,3.147,-1,5
625,6.20217,3.137,-1,5
626,6.20530,3.131,-1,5
627,6.20844,3.133,-1,5
628,6.21156,3.124,-1,5
629,6.21467,3.116,-1,5
630,6.21779,3.115,-1,5
631,6.22090,3.109,-1,5
632,6.22401,3.113,-1,5
633,6.22712,3.108,-1,5
634,6.23023,3.110,-1,5
635,6.23334,3.109,-1,5
636,6.23645,3.112,-1,5
637,6.23956,3.112,-1,5
638,6.24268,3.118,-1,5
639,6.24580,3.122,-1,5
640,6.24892,3.122,-1,5
641,6.25206,3.134,-1,5
642,6.25519,3.138,-1,5
643,6.25834,3.143,-1,5
644,6.26149,3.157,-1,5
645,6.26466,3.164,-1,5
646,6.26783,3.175,-1,5
647,6.27102,3.188,-1,5
648,6.27422,3.201,-1,5
649,6.27744,3.214,-1,5
650,6.28067,3.230,-1,5
651,6.28392,3.251,-1,5
652,6.28718,3.266,-1,5
653,6.29047,3.286,-1,5
654,6.29377,3.304,-1,5
655,6.29710,3.324,-1,5
656,6.30045,3.348,-1,5
657,6.30721,3.394,-1,5
658,6.30721,3.422,-1,5
659,6.31063,3.448,-1,5
660,6.31408,3.448,-1,5
661,6.31756,3.483,-1,5
662,6.32108,3.513,-1,5
663,6.32462,3.544,-1,5
664,6.32820,3.579,-1,5
665,6.33181,3.614,-1,5
666,6.33916,3.691,-1,5
667,6.34289,3.730,-1,5
668,6.34666,3.770,-1,5
669,6.35048,3.818,-1,5
670,6.35434,3.862,-1,5
671,6.35825,3.911,-1,5
672,6.36221,3.957,-1,5
673,6.37028,4.066,-1,5
674,6.37441,4.122,-1,5
675,6.37858,4.231,-1,5
676,6.38711,4.293,-1,5
677,6.38711,4.350,-1,5
678,6.39146,4.350,-1,5
679,6.39587,4.416,-1,5
680,6.40035,4.478,-1,5
681,6.40490,4.544,-1,5
682,6.40950,4.605,-1,5
683,6.41417,4.737,-1,5
684,6.42371,4.801,-1,5
685,6.42858,4.866,-1,5
686,6.43850,4.998,-1,5
687,6.44357,5.062,-1,5
688,6.44869,5.123,-1,5
689,6.45387,5.183,-1,5
690,6.45913,5.253,-1,5
691,6.46444,5.316,-1,5
692,6.46982,5.376,-1,5
693,6.47525,5.435,-1,5
694,6.48075,5.495,-1,5
695,6.48630,5.551,-1,5
696,6.49191,5.608,-1,5
697,6.49757,5.662,-1,5
698,6.50328,5.709,-1,5
699,6.50903,5.757,-1,5
700,6.51484,5.809,-1,5
701,6.52070,5.853,-1,5
702,6.52659,5.896,-1,5
703,6.53252,5.933,-1,5
704,6.53850,5.973,-1,5
705,6.54451,6.008,-1,5
706,6.55055,6.040,-1,5
707,6.55662,6.071,-1,5
708,6.56271,6.092,-1,5
709,6.56883,6.118,-1,5
710,6.57496,6.137,-1,5
711,6.58112,6.160,-1,5
712,6.58729,6.171,-1,5
713,6.59348,6.184,-1,5
714,6.59967,6.196,-1,5
715,6.60589,6.213,-1,5
716,6.61211,6.220,-1,5
717,6.61833,6.222,-1,5
718,6.62455,6.222,-1,5
719,6.63077,6.224,-1,5
720,6.63700,6.230,-1,5
721,6.64323,6.225,-1,5
722,6.64945,6.217,-1,5
723,6.66186,6.211,-1,5
724,6.66807,6.202,-1,5
725,6.67426,6.194,-1,5
726,6.68661,6.172,-1,5
727,6.69277,6.162,-1,5
728,6.69892,6.152,-1,5
729,6.70506,6.133,-1,5
730,6.71117,6.118,-1,5
731,6.71727,6.101,-1,5
732,6.72336,6.089,-1,5
733,6.72943,6.072,-1,5
734,6.73549,6.051,-1,5
735,6.74152,6.032,-1,5
736,6.74754,6.018,-1,5
737,6.75354,6.001,-1,5
738,6.75952,5.978,-1,5
739,6.76547,5.959,-1,5
740,6.77140,5.930,-1,5
741,6.77732,5.915,-1,5
742,6.78322,5.895,-1,5
743,6.78909,5.878,-1,5
744,6.79494,5.850,-1,5
745,6.80077,5.825,-1,5
746,6.80657,5.801,-1,5
747,6.81235,5.784,-1,5
748,6.81811,5.761,-1,5
749,6.82385,5.738,-1,5
750,6.82957,5.715,-1,5
751,6.83526,5.694,-1,5
752,6.84093,5.670,-1,5
753,6.84658,5.649,-1,5
754,6.85220,5.624,-1,5
755,6.85781,5.577,-1,5
756,6.86338,5.555,-1,5
757,6.86894,5.534,-1,5
758,6.87447,5.534,-1,5
759,6.87998,5.507,-1,5
760,6.88546,5.486,-1,5
761,6.89093,5.468,-1,5
762,6.89638,5.450,-1,5
763,6.90180,5.421,-1,5
764,6.91258,5.379,-1,5
765,6.91794,5.360,-1,5
766,6.92328,5.339,-1,5
767,6.92859,5.314,-1,5
768,6.93388,5.286,-1,5
769,6.93914,5.264,-1,5
770,6.94440,5.253,-1,5
771,6.94963,5.232,-1,5
772,6.95483,5.203,-1,5
773,6.96001,5.177,-1,5
774,6.96517,5.161,-1,5
775,6.97031,5.143,-1,5
776,6.97543,5.118,-1,5
777,6.98053,5.096,-1,5
778,6.98560,5.071,-1,5
779,6.99065,5.051,-1,5
780,6.99568,5.033,-1,5
781,7.00069,5.011,-1,5
782,7.00568,4.989,-1,5
783,7.01064,4.963,-1,5
784,7.02051,4.923,-1,5
785,7.02541,4.905,-1,5
786,7.03030,4.887,-1,5
787,7.03517,4.866,-1,5
788,7.04001,4.839,-1,5
789,7.04483,4.821,-1,5
790,7.04963,4.803,-1,5
791,7.05918,4.764,-1,5
792,7.06392,4.740,-1,5
793,7.06863,4.716,-1,5
794,7.07333,4.693,-1,5
795,7.07800,4.675,-1,5
796,7.08265,4.655,-1,5
797,7.08729,4.636,-1,5
798,7.09190,4.612,-1,5
799,7.09649,4.592,-1,5
800,7.10106,4.569,-1,5
801,7.10562,4.552,-1,5
802,7.11015,4.534,-1,5
803,7.11467,4.517,-1,5
804,7.11916,4.492,-1,5
805,7.12363,4.467,-1,5
806,7.12808,4.449,-1,5
807,7.13250,4.429,-1,5
808,7.13692,4.411,-1,5
809,7.14130,4.389,-1,5
810,7.14567,4.366,-1,5
811,7.15434,4.323,-1,5
812,7.15864,4.305,-1,5
813,7.16293,4.283,-1,5
814,7.16719,4.244,-1,5
815,7.17566,4.224,-1,5
816,7.17986,4.203,-1,5
817,7.18405,4.182,-1,5
818,7.18821,4.164,-1,5
819,7.19236,4.146,-1,5
820,7.19648,4.125,-1,5
821,7.20058,4.104,-1,5
822,7.20467,4.083,-1,5
823,7.20873,4.065,-1,5
824,7.21278,4.047,-1,5
825,7.21680,4.025,-1,5
826,7.22081,4.005,-1,5
827,7.22480,3.989,-1,5
828,7.22877,3.972,-1,5
829,7.23272,3.950,-1,5
830,7.23665,3.931,-1,5
831,7.24057,3.915,-1,5
832,7.24447,3.899,-1,5
833,7.24835,3.880,-1,5
834,7.25221,3.862,-1,5
835,7.25605,3.842,-1,5
836,7.25988,3.830,-1,5
837,7.26370,3.816,-1,5
838,7.26749,3.798,-1,5
839,7.27128,3.782,-1,5
840,7.27504,3.766,-1,5
841,7.27880,3.756,-1,5
842,7.28254,3.727,-1,5
843,7.28627,3.727,-1,5
844,7.28998,3.714,-1,5
845,7.29368,3.700,-1,5
846,7.29738,3.693,-1,5
847,7.30106,3.681,-1,5
848,7.30472,3.665,-1,5
849,7.30838,3.658,-1,5
850,7.31203,3.649,-1,5
851,7.31568,3.645,-1,5
852,7.31931,3.635,-1,5
853,7.32293,3.624,-1,5
854,7.32656,3.621,-1,5
855,7.33017,3.618,-1,5
856,7.33379,3.612,-1,5
857,7.33740,3.610,-1,5
858,7.34100,3.608,-1,5
859,7.34461,3.611,-1,5
860,7.34823,3.611,-1,5
861,7.35184,3.613,-1,5
862,7.35546,3.626,-1,5
863,7.35908,3.632,-1,5
864,7.36272,3.632,-1,5
865,7.36636,3.645,-1,5
866,7.37002,3.655,-1,5
867,7.37369,3.671,-1,5
868,7.37737,3.688,-1,5
869,7.38108,3.709,-1,5
870,7.38481,3.727,-1,5
871,7.39233,3.775,-1,5
872,7.39613,3.802,-1,5
873,7.39997,3.833,-1,5
