cnt,pos,speed,Dir,Force,
1,3.21624,2.114,-1,5
2,3.21833,2.092,-1,5
3,3.22042,2.092,-1,5
4,3.22251,2.092,-1,5
5,3.22462,2.110,-1,5
6,3.22672,2.101,-1,5
7,3.22882,2.101,-1,5
8,3.23093,2.110,-1,5
9,3.23305,2.114,-1,5
10,3.23512,2.071,-1,5
11,3.23723,2.114,-1,5
12,3.23932,2.088,-1,5
13,3.24144,2.114,-1,5
14,3.24352,2.088,-1,5
15,3.24562,2.101,-1,5
16,3.24770,2.080,-1,5
17,3.24981,2.110,-1,5
18,3.25192,2.105,-1,5
19,3.25402,2.101,-1,5
20,3.25611,2.092,-1,5
21,3.25822,2.110,-1,5
22,3.26032,2.097,-1,5
23,3.26241,2.088,-1,5
24,3.26451,2.105,-1,5
25,3.26661,2.092,-1,5
26,3.26870,2.097,-1,5
27,3.27079,2.092,-1,5
28,3.27288,2.084,-1,5
29,3.27497,2.088,-1,5
30,3.27707,2.101,-1,5
31,3.27913,2.067,-1,5
32,3.28120,2.067,-1,5
33,3.28329,2.088,-1,5
34,3.28538,2.088,-1,5
35,3.28745,2.075,-1,5
36,3.28954,2.084,-1,5
37,3.29161,2.075,-1,5
38,3.29572,2.062,-1,5
39,3.29779,2.062,-1,5
40,3.29779,2.067,-1,5
41,3.30192,2.071,-1,5
42,3.30398,2.058,-1,5
43,3.30605,2.067,-1,5
44,3.30810,2.054,-1,5
45,3.31015,2.045,-1,5
46,3.31219,2.041,-1,5
47,3.31421,2.023,-1,5
48,3.31624,2.032,-1,5
49,3.31828,2.041,-1,5
50,3.32031,2.023,-1,5
51,3.32234,2.036,-1,5
52,3.32435,2.010,-1,5
53,3.32638,2.028,-1,5
54,3.32839,2.006,-1,5
55,3.33040,2.015,-1,5
56,3.33242,2.015,-1,5
57,3.33640,1.989,-1,5
58,3.33839,1.989,-1,5
59,3.34038,1.989,-1,5
60,3.34038,1.976,-1,5
61,3.34431,1.959,-1,5
62,3.34431,1.959,-1,5
63,3.34822,1.954,-1,5
64,3.35020,1.972,-1,5
65,3.35216,1.967,-1,5
66,3.35412,1.954,-1,5
67,3.35606,1.941,-1,5
68,3.35800,1.941,-1,5
69,3.35992,1.924,-1,5
70,3.36186,1.933,-1,5
71,3.36377,1.916,-1,5
72,3.36570,1.929,-1,5
73,3.36762,1.920,-1,5
74,3.36954,1.920,-1,5
75,3.37146,1.916,-1,5
76,3.37335,1.894,-1,5
77,3.37525,1.898,-1,5
78,3.37715,1.898,-1,5
79,3.37904,1.894,-1,5
80,3.38092,1.877,-1,5
81,3.38279,1.872,-1,5
82,3.38467,1.877,-1,5
83,3.38651,1.847,-1,5
84,3.38839,1.872,-1,5
85,3.39025,1.859,-1,5
86,3.39208,1.838,-1,5
87,3.39395,1.864,-1,5
88,3.39580,1.851,-1,5
89,3.39763,1.834,-1,5
90,3.39946,1.829,-1,5
91,3.40129,1.829,-1,5
92,3.40310,1.808,-1,5
93,3.40492,1.821,-1,5
94,3.40673,1.812,-1,5
95,3.40852,1.795,-1,5
96,3.41032,1.790,-1,5
97,3.41209,1.778,-1,5
98,3.41387,1.778,-1,5
99,3.41565,1.778,-1,5
100,3.41743,1.778,-1,5
101,3.41919,1.765,-1,5
102,3.42095,1.765,-1,5
103,3.42271,1.756,-1,5
104,3.42620,1.752,-1,5
105,3.42793,1.726,-1,5
106,3.42965,1.721,-1,5
107,3.43138,1.730,-1,5
108,3.43312,1.739,-1,5
109,3.43483,1.717,-1,5
110,3.43655,1.717,-1,5
111,3.43826,1.713,-1,5
112,3.43995,1.691,-1,5
113,3.44165,1.696,-1,5
114,3.44335,1.704,-1,5
115,3.44505,1.696,-1,5
116,3.44675,1.704,-1,5
117,3.44845,1.700,-1,5
118,3.45011,1.661,-1,5
119,3.45349,1.683,-1,5
120,3.45349,1.678,-1,5
121,3.45682,1.652,-1,5
122,3.45851,1.683,-1,5
123,3.46019,1.683,-1,5
124,3.46184,1.652,-1,5
125,3.46350,1.657,-1,5
126,3.46517,1.674,-1,5
127,3.46683,1.657,-1,5
128,3.46851,1.683,-1,5
129,3.47017,1.657,-1,5
130,3.47182,1.648,-1,5
131,3.47348,1.661,-1,5
132,3.47511,1.635,-1,5
133,3.47677,1.661,-1,5
134,3.47841,1.639,-1,5
135,3.48005,1.639,-1,5
136,3.48168,1.631,-1,5
137,3.48332,1.639,-1,5
138,3.48496,1.639,-1,5
139,3.48660,1.639,-1,5
140,3.48822,1.618,-1,5
141,3.48983,1.614,-1,5
142,3.49146,1.631,-1,5
143,3.49309,1.631,-1,5
144,3.49473,1.635,-1,5
145,3.49635,1.618,-1,5
146,3.49795,1.601,-1,5
147,3.49957,1.618,-1,5
148,3.50117,1.609,-1,5
149,3.50279,1.614,-1,5
150,3.50438,1.596,-1,5
151,3.50598,1.596,-1,5
152,3.50758,1.601,-1,5
153,3.50919,1.605,-1,5
154,3.51079,1.601,-1,5
155,3.51239,1.605,-1,5
156,3.51398,1.588,-1,5
157,3.51557,1.592,-1,5
158,3.51715,1.579,-1,5
159,3.51874,1.588,-1,5
160,3.52032,1.583,-1,5
161,3.52189,1.566,-1,5
162,3.52347,1.583,-1,5
163,3.52505,1.579,-1,5
164,3.52660,1.549,-1,5
165,3.52819,1.588,-1,5
166,3.52975,1.566,-1,5
167,3.53131,1.557,-1,5
168,3.53286,1.553,-1,5
169,3.53445,1.583,-1,5
170,3.53600,1.549,-1,5
171,3.53758,1.583,-1,5
172,3.53911,1.527,-1,5
173,3.54067,1.562,-1,5
174,3.54222,1.536,-1,5
175,3.54529,1.536,-1,5
176,3.54684,1.549,-1,5
177,3.54835,1.510,-1,5
178,3.54991,1.557,-1,5
179,3.55143,1.523,-1,5
180,3.55293,1.501,-1,5
181,3.55447,1.536,-1,5
182,3.55599,1.523,-1,5
183,3.55751,1.519,-1,5
184,3.55902,1.514,-1,5
185,3.56053,1.510,-1,5
186,3.56204,1.497,-1,5
187,3.56354,1.497,-1,5
188,3.56654,1.514,-1,5
189,3.56805,1.510,-1,5
190,3.56957,1.514,-1,5
191,3.57103,1.467,-1,5
192,3.57253,1.497,-1,5
193,3.57403,1.501,-1,5
194,3.57552,1.493,-1,5
195,3.57699,1.471,-1,5
196,3.57847,1.475,-1,5
197,3.57996,1.493,-1,5
198,3.58146,1.497,-1,5
199,3.58295,1.488,-1,5
200,3.58442,1.475,-1,5
201,3.58593,1.506,-1,5
202,3.58742,1.493,-1,5
203,3.58890,1.475,-1,5
204,3.59037,1.471,-1,5
205,3.59185,1.480,-1,5
206,3.59333,1.484,-1,5
207,3.59480,1.467,-1,5
208,3.59629,1.493,-1,5
209,3.59777,1.480,-1,5
210,3.59923,1.458,-1,5
211,3.60072,1.488,-1,5
212,3.60220,1.484,-1,5
213,3.60369,1.484,-1,5
214,3.60516,1.475,-1,5
215,3.60663,1.467,-1,5
216,3.60811,1.480,-1,5
217,3.60960,1.493,-1,5
218,3.61107,1.463,-1,5
219,3.61255,1.488,-1,5
220,3.61403,1.480,-1,5
221,3.61549,1.454,-1,5
222,3.61697,1.480,-1,5
223,3.61842,1.454,-1,5
224,3.61989,1.471,-1,5
225,3.62136,1.467,-1,5
226,3.62280,1.445,-1,5
227,3.62427,1.467,-1,5
228,3.62574,1.467,-1,5
229,3.62718,1.441,-1,5
230,3.62863,1.454,-1,5
231,3.63009,1.458,-1,5
232,3.63155,1.463,-1,5
233,3.63299,1.432,-1,5
234,3.63444,1.454,-1,5
235,3.63590,1.458,-1,5
236,3.63734,1.441,-1,5
237,3.63877,1.428,-1,5
238,3.64022,1.450,-1,5
239,3.64166,1.441,-1,5
240,3.64307,1.411,-1,5
241,3.64450,1.432,-1,5
242,3.64592,1.424,-1,5
243,3.64737,1.441,-1,5
244,3.64879,1.419,-1,5
245,3.65020,1.419,-1,5
246,3.65165,1.441,-1,5
247,3.65308,1.432,-1,5
248,3.65448,1.402,-1,5
249,3.65591,1.428,-1,5
250,3.65733,1.419,-1,5
251,3.65873,1.406,-1,5
252,3.66015,1.415,-1,5
253,3.66156,1.415,-1,5
254,3.66297,1.402,-1,5
255,3.66438,1.411,-1,5
256,3.66580,1.419,-1,5
257,3.66719,1.394,-1,5
258,3.66859,1.398,-1,5
259,3.66999,1.398,-1,5
260,3.67138,1.411,-1,5
261,3.67418,1.381,-1,5
262,3.67418,1.402,-1,5
263,3.67696,1.381,-1,5
264,3.67696,1.406,-1,5
265,3.67975,1.385,-1,5
266,3.67975,1.398,-1,5
267,3.68253,1.381,-1,5
268,3.68393,1.398,-1,5
269,3.68529,1.363,-1,5
270,3.68669,1.398,-1,5
271,3.68805,1.363,-1,5
272,3.68943,1.376,-1,5
273,3.69079,1.368,-1,5
274,3.69217,1.381,-1,5
275,3.69355,1.381,-1,5
276,3.69491,1.368,-1,5
277,3.69628,1.368,-1,5
278,3.69765,1.376,-1,5
279,3.69903,1.372,-1,5
280,3.70040,1.376,-1,5
281,3.70178,1.381,-1,5
282,3.70315,1.363,-1,5
283,3.70453,1.385,-1,5
284,3.70592,1.394,-1,5
285,3.70729,1.368,-1,5
286,3.70867,1.381,-1,5
287,3.71006,1.385,-1,5
288,3.71143,1.372,-1,5
289,3.71280,1.372,-1,5
290,3.71420,1.398,-1,5
291,3.71559,1.389,-1,5
292,3.71697,1.381,-1,5
293,3.71838,1.406,-1,5
294,3.71978,1.402,-1,5
295,3.72118,1.406,-1,5
296,3.72259,1.402,-1,5
297,3.72398,1.398,-1,5
298,3.72539,1.402,-1,5
299,3.72678,1.398,-1,5
300,3.72821,1.424,-1,5
301,3.72964,1.428,-1,5
302,3.73105,1.411,-1,5
303,3.73248,1.432,-1,5
304,3.73392,1.437,-1,5
305,3.73533,1.419,-1,5
306,3.73676,1.424,-1,5
307,3.73820,1.441,-1,5
308,3.73963,1.428,-1,5
309,3.74108,1.450,-1,5
310,3.74254,1.463,-1,5
311,3.74397,1.432,-1,5
312,3.74543,1.463,-1,5
313,3.74687,1.437,-1,5
314,3.74836,1.488,-1,5
315,3.74982,1.463,-1,5
316,3.75132,1.497,-1,5
317,3.75280,1.480,-1,5
318,3.75428,1.484,-1,5
319,3.75576,1.480,-1,5
320,3.75726,1.501,-1,5
321,3.75875,1.488,-1,5
322,3.76027,1.514,-1,5
323,3.76177,1.506,-1,5
324,3.76328,1.510,-1,5
325,3.76480,1.519,-1,5
326,3.76632,1.514,-1,5
327,3.76785,1.536,-1,5
328,3.76940,1.549,-1,5
329,3.77092,1.523,-1,5
330,3.77247,1.545,-1,5
331,3.77403,1.557,-1,5
332,3.77559,1.566,-1,5
333,3.77716,1.570,-1,5
334,3.77874,1.575,-1,5
335,3.78032,1.579,-1,5
336,3.78191,1.592,-1,5
337,3.78350,1.592,-1,5
338,3.78509,1.592,-1,5
339,3.78668,1.583,-1,5
340,3.78992,1.631,-1,5
341,3.79155,1.631,-1,5
342,3.79319,1.639,-1,5
343,3.79483,1.635,-1,5
344,3.79648,1.648,-1,5
345,3.79814,1.665,-1,5
346,3.79979,1.648,-1,5
347,3.80146,1.670,-1,5
348,3.80313,1.674,-1,5
349,3.80480,1.661,-1,5
350,3.80650,1.700,-1,5
351,3.80819,1.691,-1,5
352,3.80989,1.700,-1,5
353,3.81158,1.691,-1,5
354,3.81328,1.704,-1,5
355,3.81501,1.726,-1,5
356,3.81672,1.717,-1,5
357,3.81847,1.747,-1,5
358,3.82023,1.760,-1,5
359,3.82197,1.743,-1,5
360,3.82374,1.765,-1,5
361,3.82552,1.778,-1,5
362,3.82728,1.773,-1,5
363,3.82905,1.782,-1,5
364,3.83083,1.782,-1,5
365,3.83264,1.803,-1,5
366,3.83444,1.803,-1,5
367,3.83627,1.825,-1,5
368,3.83806,1.795,-1,5
369,3.83990,1.834,-1,5
370,3.84359,1.847,-1,5
371,3.84543,1.838,-1,5
372,3.84729,1.859,-1,5
373,3.84916,1.868,-1,5
374,3.85105,1.898,-1,5
375,3.85293,1.872,-1,5
376,3.85483,1.907,-1,5
377,3.85674,1.903,-1,5
378,3.85862,1.881,-1,5
379,3.86053,1.911,-1,5
380,3.86245,1.924,-1,5
381,3.86438,1.929,-1,5
382,3.86632,1.941,-1,5
383,3.86827,1.946,-1,5
384,3.87022,1.950,-1,5
385,3.87218,1.963,-1,5
386,3.87414,1.963,-1,5
387,3.87609,1.950,-1,5
388,3.87806,1.963,-1,5
389,3.88004,1.980,-1,5
390,3.88200,1.959,-1,5
391,3.88399,1.993,-1,5
392,3.88599,2.002,-1,5
393,3.88798,1.993,-1,5
394,3.88999,2.002,-1,5
395,3.89200,2.010,-1,5
396,3.89401,2.015,-1,5
397,3.89603,2.019,-1,5
398,3.89805,2.023,-1,5
399,3.90009,2.041,-1,5
400,3.90212,2.028,-1,5
401,3.90416,2.041,-1,5
402,3.90621,2.049,-1,5
403,3.90826,2.045,-1,5
404,3.91032,2.062,-1,5
405,3.91236,2.041,-1,5
406,3.91444,2.075,-1,5
407,3.91652,2.088,-1,5
408,3.91861,2.088,-1,5
409,3.92069,2.080,-1,5
410,3.92278,2.092,-1,5
411,3.92488,2.092,-1,5
412,3.92697,2.097,-1,5
413,3.92907,2.101,-1,5
414,3.93118,2.110,-1,5
415,3.93331,2.123,-1,5
416,3.93545,2.149,-1,5
417,3.93759,2.136,-1,5
418,3.93973,2.136,-1,5
419,3.94187,2.149,-1,5
420,3.94403,2.153,-1,5
421,3.94620,2.170,-1,5
422,3.94835,2.153,-1,5
423,3.95052,2.174,-1,5
424,3.95269,2.161,-1,5
425,3.95487,2.183,-1,5
426,3.95704,2.174,-1,5
427,3.95924,2.196,-1,5
428,3.96144,2.205,-1,5
429,3.96364,2.192,-1,5
430,3.96584,2.205,-1,5
431,3.96805,2.209,-1,5
432,3.97027,2.218,-1,5
433,3.97249,2.213,-1,5
434,3.97470,2.226,-1,5
435,3.97914,2.213,-1,5
436,3.98138,2.239,-1,5
437,3.98362,2.243,-1,5
438,3.98587,2.243,-1,5
439,3.98813,2.265,-1,5
440,3.99040,2.265,-1,5
441,3.99266,2.261,-1,5
442,3.99490,2.239,-1,5
443,3.99717,2.269,-1,5
444,3.99944,2.274,-1,5
445,4.00172,2.282,-1,5
446,4.00403,2.308,-1,5
447,4.00631,2.278,-1,5
448,4.01089,2.300,-1,5
449,4.01320,2.317,-1,5
450,4.01551,2.304,-1,5
451,4.01551,2.317,-1,5
452,4.02014,2.317,-1,5
453,4.02247,2.330,-1,5
454,4.02481,2.343,-1,5
455,4.02713,2.321,-1,5
456,4.02948,2.343,-1,5
457,4.03184,2.364,-1,5
458,4.03423,2.386,-1,5
459,4.03660,2.369,-1,5
460,4.03897,2.377,-1,5
461,4.04134,2.369,-1,5
462,4.04373,2.390,-1,5
463,4.04611,2.382,-1,5
464,4.04850,2.386,-1,5
465,4.05090,2.403,-1,5
466,4.05330,2.399,-1,5
467,4.05569,2.394,-1,5
468,4.05813,2.433,-1,5
469,4.06055,2.425,-1,5
470,4.06297,2.416,-1,5
471,4.06540,2.429,-1,5
472,4.06784,2.438,-1,5
473,4.07026,2.425,-1,5
474,4.07270,2.438,-1,5
475,4.07514,2.442,-1,5
476,4.07760,2.459,-1,5
477,4.08006,2.459,-1,5
478,4.08250,2.446,-1,5
479,4.08495,2.451,-1,5
480,4.08741,2.455,-1,5
481,4.08986,2.455,-1,5
482,4.09232,2.455,-1,5
483,4.09480,2.481,-1,5
484,4.09727,2.472,-1,5
485,4.09974,2.472,-1,5
486,4.10222,2.476,-1,5
487,4.10468,2.463,-1,5
488,4.10715,2.468,-1,5
489,4.10964,2.489,-1,5
490,4.11213,2.489,-1,5
491,4.11461,2.476,-1,5
492,4.11709,2.481,-1,5
493,4.11957,2.485,-1,5
494,4.12205,2.476,-1,5
495,4.12454,2.494,-1,5
496,4.12704,2.498,-1,5
497,4.12950,2.463,-1,5
498,4.13200,2.498,-1,5
499,4.13450,2.498,-1,5
500,4.13700,2.498,-1,5
501,4.13949,2.494,-1,5
502,4.14197,2.476,-1,5
503,4.14446,2.494,-1,5
504,4.14696,2.498,-1,5
505,4.14946,2.498,-1,5
506,4.15196,2.502,-1,5
507,4.15448,2.515,-1,5
508,4.15696,2.481,-1,5
509,4.15945,2.498,-1,5
510,4.16194,2.489,-1,5
511,4.16442,2.476,-1,5
512,4.16691,2.494,-1,5
513,4.16941,2.494,-1,5
514,4.17190,2.489,-1,5
515,4.17439,2.494,-1,5
516,4.17689,2.502,-1,5
517,4.17938,2.489,-1,5
518,4.18187,2.489,-1,5
519,4.18435,2.476,-1,5
520,4.18683,2.485,-1,5
521,4.18931,2.476,-1,5
522,4.19178,2.472,-1,5
523,4.19425,2.468,-1,5
524,4.19672,2.468,-1,5
525,4.19922,2.502,-1,5
526,4.20169,2.468,-1,5
527,4.20416,2.476,-1,5
528,4.20664,2.472,-1,5
529,4.20909,2.459,-1,5
530,4.21154,2.442,-1,5
531,4.21400,2.459,-1,5
532,4.21647,2.476,-1,5
533,4.21895,2.476,-1,5
534,4.22138,2.433,-1,5
535,4.22384,2.459,-1,5
536,4.22629,2.451,-1,5
537,4.22877,2.481,-1,5
538,4.23123,2.459,-1,5
539,4.23369,2.459,-1,5
540,4.23615,2.455,-1,5
541,4.23858,2.438,-1,5
542,4.24103,2.451,-1,5
543,4.24349,2.455,-1,5
544,4.24597,2.476,-1,5
545,4.24842,2.455,-1,5
546,4.25087,2.446,-1,5
547,4.25333,2.468,-1,5
548,4.25578,2.451,-1,5
549,4.25824,2.455,-1,5
550,4.26069,2.455,-1,5
551,4.26316,2.463,-1,5
552,4.26564,2.481,-1,5
553,4.26809,2.451,-1,5
554,4.27057,2.481,-1,5
555,4.27305,2.481,-1,5
556,4.27553,2.481,-1,5
557,4.27798,2.451,-1,5
558,4.28046,2.476,-1,5
559,4.28543,2.476,-1,5
560,4.28543,2.494,-1,5
561,4.29039,2.459,-1,5
562,4.29039,2.533,-1,5
563,4.29292,2.533,-1,5
564,4.29791,2.498,-1,5
565,4.29791,2.498,-1,5
566,4.30290,2.494,-1,5
567,4.30541,2.511,-1,5
568,4.30794,2.528,-1,5
569,4.31045,2.511,-1,5
570,4.31295,2.502,-1,5
571,4.31549,2.541,-1,5
572,4.31802,2.524,-1,5
573,4.32055,2.528,-1,5
574,4.32307,2.528,-1,5
575,4.32562,2.541,-1,5
576,4.32815,2.533,-1,5
577,4.33069,2.545,-1,5
578,4.33323,2.541,-1,5
579,4.33577,2.537,-1,5
580,4.33831,2.537,-1,5
581,4.34088,2.567,-1,5
582,4.34343,2.554,-1,5
583,4.34599,2.563,-1,5
584,4.34855,2.558,-1,5
585,4.35111,2.558,-1,5
586,4.35365,2.545,-1,5
587,4.35623,2.580,-1,5
588,4.35882,2.589,-1,5
589,4.36140,2.580,-1,5
590,4.36400,2.593,-1,5
591,4.36657,2.576,-1,5
592,4.36918,2.606,-1,5
593,4.37177,2.593,-1,5
594,4.37437,2.597,-1,5
595,4.37697,2.606,-1,5
596,4.37958,2.610,-1,5
597,4.38219,2.610,-1,5
598,4.38482,2.623,-1,5
599,4.38746,2.640,-1,5
600,4.39008,2.627,-1,5
601,4.39273,2.649,-1,5
602,4.39539,2.658,-1,5
603,4.39802,2.627,-1,5
604,4.40066,2.645,-1,5
605,4.40331,2.649,-1,5
606,4.40599,2.679,-1,5
607,4.40865,2.662,-1,5
608,4.41130,2.649,-1,5
609,4.41399,2.692,-1,5
610,4.41668,2.684,-1,5
611,4.41935,2.675,-1,5
612,4.42205,2.701,-1,5
613,4.42472,2.662,-1,5
614,4.42743,2.709,-1,5
615,4.43013,2.696,-1,5
616,4.43282,2.696,-1,5
617,4.43556,2.705,-1,5
618,4.43827,2.705,-1,5
619,4.44099,2.718,-1,5
620,4.44369,2.705,-1,5
621,4.44641,2.718,-1,5
622,4.45186,2.731,-1,5
623,4.45458,2.722,-1,5
624,4.45733,2.748,-1,5
625,4.46006,2.731,-1,5
626,4.46281,2.753,-1,5
627,4.46554,2.731,-1,5
628,4.46828,2.735,-1,5
629,4.47103,2.753,-1,5
630,4.47380,2.765,-1,5
631,4.47654,2.744,-1,5
632,4.47929,2.753,-1,5
633,4.48208,2.791,-1,5
634,4.48485,2.770,-1,5
635,4.48764,2.791,-1,5
636,4.49041,2.765,-1,5
637,4.49318,2.770,-1,5
638,4.49597,2.787,-1,5
639,4.49876,2.787,-1,5
640,4.50158,2.817,-1,5
641,4.50437,2.791,-1,5
642,4.50718,2.817,-1,5
643,4.51000,2.817,-1,5
644,4.51281,2.804,-1,5
645,4.51845,2.817,-1,5
646,4.52128,2.826,-1,5
647,4.52411,2.830,-1,5
648,4.52696,2.847,-1,5
649,4.52980,2.843,-1,5
650,4.53263,2.835,-1,5
651,4.53549,2.856,-1,5
652,4.53832,2.826,-1,5
653,4.54116,2.843,-1,5
654,4.54400,2.843,-1,5
655,4.54684,2.839,-1,5
656,4.54970,2.860,-1,5
657,4.55256,2.860,-1,5
658,4.55541,2.852,-1,5
659,4.55828,2.869,-1,5
660,4.56111,2.826,-1,5
661,4.56399,2.882,-1,5
662,4.56683,2.839,-1,5
663,4.56972,2.886,-1,5
664,4.57255,2.839,-1,5
665,4.57544,2.882,-1,5
666,4.57830,2.860,-1,5
667,4.58115,2.856,-1,5
668,4.58403,2.878,-1,5
669,4.58688,2.852,-1,5
670,4.58974,2.860,-1,5
671,4.59259,2.852,-1,5
672,4.59547,2.873,-1,5
673,4.59835,2.886,-1,5
674,4.60124,2.891,-1,5
675,4.60411,2.869,-1,5
676,4.60698,2.869,-1,5
677,4.60986,2.878,-1,5
678,4.61273,2.873,-1,5
679,4.61561,2.878,-1,5
680,4.61849,2.878,-1,5
681,4.62135,2.865,-1,5
682,4.62425,2.899,-1,5
683,4.62714,2.886,-1,5
684,4.63002,2.882,-1,5
685,4.63287,2.852,-1,5
686,4.63576,2.886,-1,5
687,4.63864,2.878,-1,5
688,4.64153,2.891,-1,5
689,4.64440,2.873,-1,5
690,4.64729,2.886,-1,5
691,4.65016,2.869,-1,5
692,4.65302,2.865,-1,5
693,4.65591,2.886,-1,5
694,4.65877,2.860,-1,5
695,4.66162,2.856,-1,5
696,4.66448,2.860,-1,5
697,4.66737,2.882,-1,5
698,4.67024,2.878,-1,5
699,4.67310,2.856,-1,5
700,4.67597,2.869,-1,5
701,4.67882,2.852,-1,5
702,4.68168,2.860,-1,5
703,4.68453,2.852,-1,5
704,4.68738,2.852,-1,5
705,4.69024,2.865,-1,5
706,4.69310,2.865,-1,5
707,4.69591,2.869,-1,5
708,4.70161,2.826,-1,5
709,4.70447,2.865,-1,5
710,4.70728,2.809,-1,5
711,4.71012,2.835,-1,5
712,4.71294,2.826,-1,5
713,4.71577,2.826,-1,5
714,4.71862,2.847,-1,5
715,4.72142,2.800,-1,5
716,4.72424,2.826,-1,5
717,4.72704,2.800,-1,5
718,4.72985,2.804,-1,5
719,4.73264,2.796,-1,5
720,4.73545,2.809,-1,5
721,4.73823,2.783,-1,5
722,4.74103,2.800,-1,5
723,4.74382,2.787,-1,5
724,4.74660,2.783,-1,5
725,4.74936,2.757,-1,5
726,4.75216,2.800,-1,5
727,4.75490,2.744,-1,5
728,4.75764,2.740,-1,5
729,4.76040,2.757,-1,5
730,4.76315,2.748,-1,5
731,4.76864,2.761,-1,5
732,4.77136,2.718,-1,5
733,4.77406,2.701,-1,5
734,4.77406,2.718,-1,5
735,4.77678,2.718,-1,5
736,4.77948,2.696,-1,5
737,4.78220,2.722,-1,5
738,4.78489,2.688,-1,5
739,4.78755,2.701,-1,5
740,4.79026,2.701,-1,5
741,4.79293,2.675,-1,5
742,4.79560,2.666,-1,5
743,4.79825,2.653,-1,5
744,4.80091,2.658,-1,5
745,4.80354,2.636,-1,5
746,4.80619,2.645,-1,5
747,4.80882,2.632,-1,5
748,4.81147,2.649,-1,5
749,4.81409,2.623,-1,5
750,4.81669,2.602,-1,5
751,4.81930,2.606,-1,5
752,4.82191,2.606,-1,5
753,4.82449,2.589,-1,5
754,4.82708,2.589,-1,5
755,4.82965,2.567,-1,5
756,4.83222,2.576,-1,5
757,4.83480,2.571,-1,5
758,4.83736,2.567,-1,5
759,4.83992,2.554,-1,5
760,4.84246,2.541,-1,5
761,4.84499,2.533,-1,5
762,4.84752,2.533,-1,5
763,4.85005,2.524,-1,5
764,4.85259,2.541,-1,5
765,4.85509,2.498,-1,5
766,4.85758,2.489,-1,5
767,4.86010,2.520,-1,5
768,4.86261,2.511,-1,5
769,4.86509,2.485,-1,5
770,4.86757,2.476,-1,5
771,4.87004,2.468,-1,5
772,4.87249,2.455,-1,5
773,4.87495,2.455,-1,5
774,4.87739,2.446,-1,5
775,4.87985,2.455,-1,5
776,4.88231,2.463,-1,5
777,4.88474,2.433,-1,5
778,4.88715,2.407,-1,5
779,4.88956,2.407,-1,5
780,4.89197,2.416,-1,5
781,4.89437,2.394,-1,5
782,4.89675,2.382,-1,5
783,4.89914,2.386,-1,5
784,4.90151,2.377,-1,5
785,4.90387,2.356,-1,5
786,4.90625,2.386,-1,5
787,4.90861,2.343,-1,5
788,4.91096,2.343,-1,5
789,4.91330,2.325,-1,5
790,4.91794,2.317,-1,5
791,4.91794,2.334,-1,5
792,4.92028,2.334,-1,5
793,4.92490,2.312,-1,5
794,4.92720,2.308,-1,5
795,4.92950,2.295,-1,5
796,4.93176,2.261,-1,5
797,4.93405,2.291,-1,5
798,4.93632,2.269,-1,5
799,4.93859,2.269,-1,5
800,4.94083,2.243,-1,5
801,4.94308,2.248,-1,5
802,4.94532,2.235,-1,5
803,4.94753,2.218,-1,5
804,4.94977,2.239,-1,5
805,4.95201,2.235,-1,5
806,4.95423,2.222,-1,5
807,4.95644,2.209,-1,5
808,4.95864,2.200,-1,5
809,4.96085,2.209,-1,5
810,4.96303,2.183,-1,5
811,4.96521,2.183,-1,5
812,4.96739,2.183,-1,5
813,4.96955,2.166,-1,5
814,4.97172,2.166,-1,5
815,4.97388,2.157,-1,5
816,4.97602,2.144,-1,5
817,4.97816,2.136,-1,5
818,4.98030,2.136,-1,5
819,4.98244,2.136,-1,5
820,4.98455,2.118,-1,5
821,4.98668,2.127,-1,5
822,4.98880,2.118,-1,5
823,4.99089,2.088,-1,5
824,4.99299,2.101,-1,5
825,4.99508,2.092,-1,5
826,4.99717,2.088,-1,5
827,4.99925,2.084,-1,5
828,5.00132,2.071,-1,5
829,5.00340,2.071,-1,5
830,5.00545,2.054,-1,5
831,5.00750,2.049,-1,5
832,5.00953,2.036,-1,5
833,5.01156,2.028,-1,5
834,5.01359,2.023,-1,5
835,5.01560,2.015,-1,5
836,5.01761,2.006,-1,5
837,5.01962,2.010,-1,5
838,5.02162,2.002,-1,5
839,5.02361,1.989,-1,5
840,5.02560,1.993,-1,5
841,5.02759,1.989,-1,5
842,5.02955,1.959,-1,5
843,5.03151,1.959,-1,5
844,5.03346,1.950,-1,5
845,5.03541,1.950,-1,5
846,5.03735,1.941,-1,5
847,5.03930,1.950,-1,5
848,5.04122,1.920,-1,5
849,5.04313,1.916,-1,5
850,5.04506,1.924,-1,5
851,5.04698,1.920,-1,5
852,5.04889,1.911,-1,5
853,5.05079,1.898,-1,5
854,5.05269,1.898,-1,5
855,5.05458,1.894,-1,5
856,5.05645,1.868,-1,5
857,5.05833,1.881,-1,5
858,5.06020,1.868,-1,5
859,5.06207,1.872,-1,5
860,5.06395,1.877,-1,5
861,5.06582,1.872,-1,5
862,5.06768,1.864,-1,5
863,5.06953,1.847,-1,5
864,5.07138,1.847,-1,5
865,5.07323,1.855,-1,5
866,5.07692,1.834,-1,5
867,5.07874,1.825,-1,5
868,5.08057,1.834,-1,5
869,5.08240,1.825,-1,5
870,5.08423,1.829,-1,5
871,5.08604,1.808,-1,5
872,5.08785,1.812,-1,5
873,5.08966,1.816,-1,5
