cnt,pos,speed,Dir,Force,
1,3.20753,0.859,-1,5
2,3.20842,0.884,-1,5
3,3.20929,0.876,-1,5
4,3.21018,0.889,-1,5
5,3.21105,0.863,-1,5
6,3.21194,0.897,-1,5
7,3.21281,0.871,-1,5
8,3.21369,0.880,-1,5
9,3.21458,0.884,-1,5
10,3.21545,0.876,-1,5
11,3.21635,0.893,-1,5
12,3.21722,0.876,-1,5
13,3.21812,0.897,-1,5
14,3.21900,0.876,-1,5
15,3.21990,0.902,-1,5
16,3.22077,0.876,-1,5
17,3.22167,0.897,-1,5
18,3.22256,0.889,-1,5
19,3.22346,0.897,-1,5
20,3.22436,0.897,-1,5
21,3.22525,0.893,-1,5
22,3.22616,0.915,-1,5
23,3.22705,0.889,-1,5
24,3.22796,0.910,-1,5
25,3.22886,0.902,-1,5
26,3.22978,0.919,-1,5
27,3.23068,0.897,-1,5
28,3.23160,0.923,-1,5
29,3.23250,0.902,-1,5
30,3.23339,0.889,-1,5
31,3.23430,0.910,-1,5
32,3.23520,0.893,-1,5
33,3.23613,0.932,-1,5
34,3.23704,0.906,-1,5
35,3.23795,0.919,-1,5
36,3.23886,0.910,-1,5
37,3.23978,0.919,-1,5
38,3.24070,0.915,-1,5
39,3.24162,0.923,-1,5
40,3.24254,0.923,-1,5
41,3.24345,0.910,-1,5
42,3.24440,0.941,-1,5
43,3.24531,0.915,-1,5
44,3.24622,0.915,-1,5
45,3.24716,0.936,-1,5
46,3.24808,0.923,-1,5
47,3.24903,0.945,-1,5
48,3.24995,0.919,-1,5
49,3.25088,0.928,-1,5
50,3.25183,0.958,-1,5
51,3.25276,0.928,-1,5
52,3.25370,0.941,-1,5
53,3.25467,0.971,-1,5
54,3.25561,0.936,-1,5
55,3.25654,0.932,-1,5
56,3.25751,0.971,-1,5
57,3.25845,0.941,-1,5
58,3.25941,0.958,-1,5
59,3.26035,0.945,-1,5
60,3.26129,0.941,-1,5
61,3.26227,0.971,-1,5
62,3.26323,0.962,-1,5
63,3.26419,0.962,-1,5
64,3.26514,0.953,-1,5
65,3.26610,0.953,-1,5
66,3.26708,0.984,-1,5
67,3.26804,0.958,-1,5
68,3.26902,0.979,-1,5
69,3.26997,0.953,-1,5
70,3.27096,0.988,-1,5
71,3.27192,0.966,-1,5
72,3.27290,0.975,-1,5
73,3.27387,0.966,-1,5
74,3.27486,0.992,-1,5
75,3.27583,0.971,-1,5
76,3.27683,0.997,-1,5
77,3.27779,0.962,-1,5
78,3.27877,0.984,-1,5
79,3.27974,0.966,-1,5
80,3.28072,0.979,-1,5
81,3.28170,0.984,-1,5
82,3.28270,0.997,-1,5
83,3.28367,0.975,-1,5
84,3.28467,0.997,-1,5
85,3.28565,0.979,-1,5
86,3.28665,1.001,-1,5
87,3.28762,0.971,-1,5
88,3.28862,1.001,-1,5
89,3.28961,0.988,-1,5
90,3.29062,1.010,-1,5
91,3.29159,0.971,-1,5
92,3.29258,0.988,-1,5
93,3.29355,0.971,-1,5
94,3.29455,1.001,-1,5
95,3.29552,0.975,-1,5
96,3.29654,1.014,-1,5
97,3.29751,0.975,-1,5
98,3.29852,1.005,-1,5
99,3.29950,0.984,-1,5
100,3.30051,1.005,-1,5
101,3.30150,0.992,-1,5
102,3.30250,1.005,-1,5
103,3.30348,0.979,-1,5
104,3.30449,1.005,-1,5
105,3.30548,0.988,-1,5
106,3.30648,1.005,-1,5
107,3.30746,0.979,-1,5
108,3.30846,0.997,-1,5
109,3.30945,0.988,-1,5
110,3.31043,0.984,-1,5
111,3.31144,1.005,-1,5
112,3.31241,0.979,-1,5
113,3.31340,0.984,-1,5
114,3.31439,0.988,-1,5
115,3.31538,0.992,-1,5
116,3.31635,0.975,-1,5
117,3.31737,1.018,-1,5
118,3.31835,0.975,-1,5
119,3.31933,0.988,-1,5
120,3.32033,0.992,-1,5
121,3.32131,0.979,-1,5
122,3.32230,0.997,-1,5
123,3.32329,0.984,-1,5
124,3.32427,0.979,-1,5
125,3.32525,0.979,-1,5
126,3.32624,0.997,-1,5
127,3.32723,0.984,-1,5
128,3.32821,0.979,-1,5
129,3.32919,0.984,-1,5
130,3.33017,0.979,-1,5
131,3.33116,0.992,-1,5
132,3.33214,0.975,-1,5
133,3.33311,0.971,-1,5
134,3.33409,0.984,-1,5
135,3.33505,0.958,-1,5
136,3.33602,0.975,-1,5
137,3.33698,0.962,-1,5
138,3.33796,0.975,-1,5
139,3.33893,0.966,-1,5
140,3.33988,0.958,-1,5
141,3.34086,0.975,-1,5
142,3.34183,0.966,-1,5
143,3.34279,0.966,-1,5
144,3.34375,0.953,-1,5
145,3.34471,0.966,-1,5
146,3.34565,0.941,-1,5
147,3.34661,0.958,-1,5
148,3.34756,0.953,-1,5
149,3.34853,0.962,-1,5
150,3.34947,0.945,-1,5
151,3.35043,0.962,-1,5
152,3.35138,0.945,-1,5
153,3.35233,0.949,-1,5
154,3.35328,0.953,-1,5
155,3.35420,0.923,-1,5
156,3.35515,0.949,-1,5
157,3.35609,0.936,-1,5
158,3.35703,0.945,-1,5
159,3.35796,0.928,-1,5
160,3.35890,0.941,-1,5
161,3.35982,0.915,-1,5
162,3.36076,0.941,-1,5
163,3.36167,0.910,-1,5
164,3.36259,0.928,-1,5
165,3.36350,0.910,-1,5
166,3.36444,0.932,-1,5
167,3.36535,0.915,-1,5
168,3.36628,0.928,-1,5
169,3.36719,0.906,-1,5
170,3.36811,0.923,-1,5
171,3.36902,0.915,-1,5
172,3.36993,0.906,-1,5
173,3.37083,0.902,-1,5
174,3.37173,0.897,-1,5
175,3.37263,0.906,-1,5
176,3.37352,0.889,-1,5
177,3.37443,0.906,-1,5
178,3.37532,0.893,-1,5
179,3.37621,0.893,-1,5
180,3.37711,0.893,-1,5
181,3.37799,0.884,-1,5
182,3.37889,0.893,-1,5
183,3.37976,0.871,-1,5
184,3.38065,0.893,-1,5
185,3.38152,0.871,-1,5
186,3.38240,0.880,-1,5
187,3.38328,0.876,-1,5
188,3.38414,0.867,-1,5
189,3.38503,0.884,-1,5
190,3.38587,0.846,-1,5
191,3.38674,0.863,-1,5
192,3.38760,0.863,-1,5
193,3.38845,0.850,-1,5
194,3.38931,0.859,-1,5
195,3.39016,0.854,-1,5
196,3.39101,0.846,-1,5
197,3.39185,0.846,-1,5
198,3.39270,0.841,-1,5
199,3.39355,0.850,-1,5
200,3.39440,0.850,-1,5
201,3.39522,0.828,-1,5
202,3.39606,0.837,-1,5
203,3.39688,0.824,-1,5
204,3.39772,0.837,-1,5
205,3.39853,0.811,-1,5
206,3.39935,0.815,-1,5
207,3.40016,0.811,-1,5
208,3.40097,0.815,-1,5
209,3.40179,0.815,-1,5
210,3.40258,0.790,-1,5
211,3.40339,0.807,-1,5
212,3.40418,0.798,-1,5
213,3.40497,0.785,-1,5
214,3.40576,0.785,-1,5
215,3.40654,0.790,-1,5
216,3.40732,0.777,-1,5
217,3.40809,0.768,-1,5
218,3.40886,0.772,-1,5
219,3.40962,0.759,-1,5
220,3.41039,0.768,-1,5
221,3.41116,0.768,-1,5
222,3.41190,0.742,-1,5
223,3.41265,0.751,-1,5
224,3.41339,0.742,-1,5
225,3.41413,0.738,-1,5
226,3.41488,0.755,-1,5
227,3.41562,0.733,-1,5
228,3.41634,0.725,-1,5
229,3.41708,0.742,-1,5
230,3.41780,0.716,-1,5
231,3.41853,0.729,-1,5
232,3.41925,0.720,-1,5
233,3.41995,0.703,-1,5
234,3.42067,0.712,-1,5
235,3.42137,0.708,-1,5
236,3.42208,0.703,-1,5
237,3.42278,0.699,-1,5
238,3.42347,0.699,-1,5
239,3.42416,0.682,-1,5
240,3.42486,0.703,-1,5
241,3.42554,0.677,-1,5
242,3.42621,0.677,-1,5
243,3.42690,0.686,-1,5
244,3.42755,0.651,-1,5
245,3.42821,0.677,-1,5
246,3.42953,0.643,-1,5
247,3.43018,0.651,-1,5
248,3.43085,0.673,-1,5
249,3.43149,0.639,-1,5
250,3.43214,0.651,-1,5
251,3.43281,0.664,-1,5
252,3.43343,0.626,-1,5
253,3.43406,0.626,-1,5
254,3.43471,0.651,-1,5
255,3.43533,0.617,-1,5
256,3.43595,0.626,-1,5
257,3.43659,0.643,-1,5
258,3.43721,0.617,-1,5
259,3.43781,0.604,-1,5
260,3.43844,0.630,-1,5
261,3.43966,0.604,-1,5
262,3.43966,0.608,-1,5
263,3.44086,0.595,-1,5
264,3.44086,0.582,-1,5
265,3.44203,0.582,-1,5
266,3.44203,0.604,-1,5
267,3.44263,0.604,-1,5
268,3.44321,0.582,-1,5
269,3.44439,0.600,-1,5
270,3.44495,0.561,-1,5
271,3.44553,0.578,-1,5
272,3.44609,0.565,-1,5
273,3.44668,0.582,-1,5
274,3.44724,0.565,-1,5
275,3.44780,0.561,-1,5
276,3.44838,0.574,-1,5
277,3.44892,0.544,-1,5
278,3.44947,0.548,-1,5
279,3.45002,0.552,-1,5
280,3.45059,0.565,-1,5
281,3.45112,0.539,-1,5
282,3.45167,0.544,-1,5
283,3.45221,0.544,-1,5
284,3.45277,0.561,-1,5
285,3.45331,0.535,-1,5
286,3.45383,0.526,-1,5
287,3.45436,0.531,-1,5
288,3.45492,0.552,-1,5
289,3.45544,0.526,-1,5
290,3.45597,0.531,-1,5
291,3.45650,0.526,-1,5
292,3.45704,0.535,-1,5
293,3.45757,0.531,-1,5
294,3.45810,0.531,-1,5
295,3.45863,0.531,-1,5
296,3.45915,0.522,-1,5
297,3.45970,0.552,-1,5
298,3.46021,0.505,-1,5
299,3.46072,0.518,-1,5
300,3.46124,0.513,-1,5
301,3.46176,0.522,-1,5
302,3.46229,0.531,-1,5
303,3.46281,0.518,-1,5
304,3.46332,0.513,-1,5
305,3.46383,0.509,-1,5
306,3.46436,0.526,-1,5
307,3.46489,0.535,-1,5
308,3.46541,0.513,-1,5
309,3.46592,0.513,-1,5
310,3.46644,0.522,-1,5
311,3.46696,0.513,-1,5
312,3.46750,0.544,-1,5
313,3.46802,0.518,-1,5
314,3.46855,0.526,-1,5
315,3.46906,0.518,-1,5
316,3.47011,0.531,-1,5
317,3.47064,0.526,-1,5
318,3.47116,0.526,-1,5
319,3.47168,0.518,-1,5
320,3.47220,0.522,-1,5
321,3.47273,0.531,-1,5
322,3.47328,0.548,-1,5
323,3.47380,0.522,-1,5
324,3.47433,0.526,-1,5
325,3.47485,0.522,-1,5
326,3.47540,0.548,-1,5
327,3.47594,0.539,-1,5
328,3.47648,0.544,-1,5
329,3.47703,0.544,-1,5
330,3.47758,0.548,-1,5
331,3.47813,0.552,-1,5
332,3.47867,0.544,-1,5
333,3.47922,0.548,-1,5
334,3.47978,0.557,-1,5
335,3.48035,0.574,-1,5
336,3.48091,0.565,-1,5
337,3.48147,0.557,-1,5
338,3.48205,0.582,-1,5
339,3.48263,0.578,-1,5
340,3.48321,0.574,-1,5
341,3.48378,0.608,-1,5
342,3.48439,0.608,-1,5
343,3.48558,0.600,-1,5
344,3.48558,0.613,-1,5
345,3.48620,0.617,-1,5
346,3.48742,0.604,-1,5
347,3.48803,0.617,-1,5
348,3.48869,0.651,-1,5
349,3.48869,0.626,-1,5
350,3.48931,0.626,-1,5
351,3.48994,0.626,-1,5
352,3.49061,0.673,-1,5
353,3.49126,0.647,-1,5
354,3.49192,0.664,-1,5
355,3.49261,0.686,-1,5
356,3.49328,0.669,-1,5
357,3.49396,0.686,-1,5
358,3.49467,0.712,-1,5
359,3.49537,0.695,-1,5
360,3.49607,0.703,-1,5
361,3.49680,0.729,-1,5
362,3.49752,0.716,-1,5
363,3.49825,0.733,-1,5
364,3.49900,0.746,-1,5
365,3.49974,0.742,-1,5
366,3.50050,0.764,-1,5
367,3.50125,0.751,-1,5
368,3.50201,0.759,-1,5
369,3.50281,0.798,-1,5
370,3.50359,0.777,-1,5
371,3.50439,0.807,-1,5
372,3.50519,0.798,-1,5
373,3.50601,0.815,-1,5
374,3.50684,0.833,-1,5
375,3.50766,0.820,-1,5
376,3.50851,0.854,-1,5
377,3.50935,0.837,-1,5
378,3.51022,0.867,-1,5
379,3.51108,0.859,-1,5
380,3.51194,0.867,-1,5
381,3.51284,0.897,-1,5
382,3.51373,0.884,-1,5
383,3.51463,0.906,-1,5
384,3.51553,0.902,-1,5
385,3.51646,0.923,-1,5
386,3.51736,0.906,-1,5
387,3.51831,0.945,-1,5
388,3.51923,0.928,-1,5
389,3.52017,0.936,-1,5
390,3.52113,0.962,-1,5
391,3.52209,0.953,-1,5
392,3.52307,0.984,-1,5
393,3.52405,0.975,-1,5
394,3.52503,0.988,-1,5
395,3.52703,1.010,-1,5
396,3.52804,1.010,-1,5
397,3.52903,0.997,-1,5
398,3.53007,1.040,-1,5
399,3.53110,1.027,-1,5
400,3.53214,1.044,-1,5
401,3.53317,1.027,-1,5
402,3.53426,1.092,-1,5
403,3.53531,1.048,-1,5
404,3.53637,1.061,-1,5
405,3.53748,1.109,-1,5
406,3.53855,1.070,-1,5
407,3.53966,1.109,-1,5
408,3.54075,1.087,-1,5
409,3.54183,1.087,-1,5
410,3.54407,1.109,-1,5
411,3.54521,1.135,-1,5
412,3.54634,1.130,-1,5
413,3.54748,1.148,-1,5
414,3.54862,1.135,-1,5
415,3.54980,1.178,-1,5
416,3.55095,1.148,-1,5
417,3.55212,1.178,-1,5
418,3.55330,1.178,-1,5
419,3.55450,1.195,-1,5
420,3.55570,1.208,-1,5
421,3.55689,1.186,-1,5
422,3.55810,1.212,-1,5
423,3.55932,1.217,-1,5
424,3.56055,1.234,-1,5
425,3.56178,1.230,-1,5
426,3.56300,1.221,-1,5
427,3.56425,1.243,-1,5
428,3.56551,1.268,-1,5
429,3.56677,1.251,-1,5
430,3.56806,1.294,-1,5
431,3.56934,1.277,-1,5
432,3.57062,1.281,-1,5
433,3.57191,1.294,-1,5
434,3.57322,1.307,-1,5
435,3.57452,1.299,-1,5
436,3.57584,1.320,-1,5
437,3.57716,1.320,-1,5
438,3.57847,1.316,-1,5
439,3.57983,1.355,-1,5
440,3.58120,1.368,-1,5
441,3.58253,1.337,-1,5
442,3.58391,1.376,-1,5
443,3.58530,1.389,-1,5
444,3.58667,1.368,-1,5
445,3.58807,1.398,-1,5
446,3.58947,1.402,-1,5
447,3.59087,1.402,-1,5
448,3.59228,1.406,-1,5
449,3.59370,1.424,-1,5
450,3.59512,1.424,-1,5
451,3.59656,1.432,-1,5
452,3.59800,1.445,-1,5
453,3.59943,1.432,-1,5
454,3.60090,1.471,-1,5
455,3.60236,1.454,-1,5
456,3.60383,1.475,-1,5
457,3.60680,1.484,-1,5
458,3.60680,1.493,-1,5
459,3.60829,1.519,-1,5
460,3.60981,1.519,-1,5
461,3.61132,1.519,-1,5
462,3.61284,1.519,-1,5
463,3.61437,1.532,-1,5
464,3.61743,1.540,-1,5
465,3.61898,1.549,-1,5
466,3.62053,1.545,-1,5
467,3.62208,1.557,-1,5
468,3.62365,1.562,-1,5
469,3.62522,1.575,-1,5
470,3.62678,1.557,-1,5
471,3.62836,1.583,-1,5
472,3.62995,1.592,-1,5
473,3.63156,1.605,-1,5
474,3.63315,1.592,-1,5
475,3.63474,1.592,-1,5
476,3.63637,1.631,-1,5
477,3.63799,1.618,-1,5
478,3.63963,1.639,-1,5
479,3.64126,1.626,-1,5
480,3.64286,1.605,-1,5
481,3.64450,1.652,-1,5
482,3.64615,1.652,-1,5
483,3.64780,1.652,-1,5
484,3.64947,1.665,-1,5
485,3.65114,1.670,-1,5
486,3.65281,1.670,-1,5
487,3.65615,1.678,-1,5
488,3.65784,1.683,-1,5
489,3.65954,1.704,-1,5
490,3.66124,1.700,-1,5
491,3.66294,1.696,-1,5
492,3.66465,1.713,-1,5
493,3.66636,1.713,-1,5
494,3.66809,1.726,-1,5
495,3.66980,1.717,-1,5
496,3.67153,1.726,-1,5
497,3.67326,1.734,-1,5
498,3.67500,1.734,-1,5
499,3.67675,1.756,-1,5
500,3.67850,1.743,-1,5
501,3.68026,1.765,-1,5
502,3.68203,1.769,-1,5
503,3.68380,1.769,-1,5
504,3.68556,1.756,-1,5
505,3.68735,1.790,-1,5
506,3.68911,1.765,-1,5
507,3.69090,1.786,-1,5
508,3.69268,1.786,-1,5
509,3.69448,1.799,-1,5
510,3.69627,1.786,-1,5
511,3.69808,1.812,-1,5
512,3.69989,1.808,-1,5
513,3.70170,1.816,-1,5
514,3.70352,1.816,-1,5
515,3.70534,1.821,-1,5
516,3.70717,1.825,-1,5
517,3.70900,1.838,-1,5
518,3.71084,1.834,-1,5
519,3.71267,1.834,-1,5
520,3.71452,1.851,-1,5
521,3.71637,1.851,-1,5
522,3.71824,1.868,-1,5
523,3.72010,1.859,-1,5
524,3.72197,1.872,-1,5
525,3.72384,1.864,-1,5
526,3.72571,1.872,-1,5
527,3.72759,1.881,-1,5
528,3.72948,1.890,-1,5
529,3.73137,1.894,-1,5
530,3.73325,1.877,-1,5
531,3.73515,1.898,-1,5
532,3.73704,1.890,-1,5
533,3.73894,1.903,-1,5
534,3.74085,1.907,-1,5
535,3.74276,1.916,-1,5
536,3.74466,1.898,-1,5
537,3.74656,1.903,-1,5
538,3.74850,1.933,-1,5
539,3.75043,1.933,-1,5
540,3.75235,1.924,-1,5
541,3.75430,1.941,-1,5
542,3.75623,1.933,-1,5
543,3.75815,1.920,-1,5
544,3.76009,1.933,-1,5
545,3.76203,1.933,-1,5
546,3.76397,1.941,-1,5
547,3.76591,1.941,-1,5
548,3.76786,1.959,-1,5
549,3.76982,1.959,-1,5
550,3.77372,1.950,-1,5
551,3.77568,1.967,-1,5
552,3.77766,1.976,-1,5
553,3.77963,1.967,-1,5
554,3.78161,1.980,-1,5
555,3.78357,1.963,-1,5
556,3.78554,1.972,-1,5
557,3.78751,1.972,-1,5
558,3.78951,1.989,-1,5
559,3.79149,1.989,-1,5
560,3.79549,2.006,-1,5
561,3.79751,2.015,-1,5
562,3.79751,2.002,-1,5
563,3.80151,1.998,-1,5
564,3.80353,2.023,-1,5
565,3.80555,2.019,-1,5
566,3.80757,2.023,-1,5
567,3.80957,1.993,-1,5
568,3.81160,2.032,-1,5
569,3.81363,2.032,-1,5
570,3.81565,2.023,-1,5
571,3.81770,2.049,-1,5
572,3.81977,2.071,-1,5
573,3.82178,2.006,-1,5
574,3.82384,2.058,-1,5
575,3.82589,2.049,-1,5
576,3.82793,2.045,-1,5
577,3.83000,2.062,-1,5
578,3.83206,2.067,-1,5
579,3.83410,2.041,-1,5
580,3.83616,2.058,-1,5
581,3.83822,2.058,-1,5
582,3.84029,2.075,-1,5
583,3.84236,2.067,-1,5
584,3.84444,2.080,-1,5
585,3.84649,2.054,-1,5
586,3.84857,2.080,-1,5
587,3.85065,2.080,-1,5
588,3.85273,2.075,-1,5
589,3.85481,2.080,-1,5
590,3.85689,2.080,-1,5
591,3.85896,2.071,-1,5
592,3.86103,2.071,-1,5
593,3.86312,2.088,-1,5
594,3.86520,2.084,-1,5
595,3.86729,2.092,-1,5
596,3.86939,2.092,-1,5
597,3.87148,2.097,-1,5
598,3.87357,2.092,-1,5
599,3.87567,2.092,-1,5
600,3.87776,2.097,-1,5
601,3.87984,2.080,-1,5
602,3.88191,2.071,-1,5
603,3.88403,2.114,-1,5
604,3.88612,2.097,-1,5
605,3.88822,2.092,-1,5
606,3.89031,2.088,-1,5
607,3.89242,2.114,-1,5
608,3.89453,2.110,-1,5
609,3.89663,2.101,-1,5
610,3.89872,2.088,-1,5
611,3.90081,2.097,-1,5
612,3.90291,2.092,-1,5
613,3.90501,2.105,-1,5
614,3.90921,2.101,-1,5
615,3.90921,2.092,-1,5
616,3.91341,2.101,-1,5
617,3.91552,2.110,-1,5
618,3.91763,2.114,-1,5
619,3.91975,2.114,-1,5
620,3.92186,2.114,-1,5
621,3.92398,2.123,-1,5
622,3.92609,2.105,-1,5
623,3.92818,2.097,-1,5
624,3.93029,2.110,-1,5
625,3.93241,2.114,-1,5
626,3.93453,2.123,-1,5
627,3.93664,2.105,-1,5
628,3.93875,2.114,-1,5
629,3.94086,2.114,-1,5
630,3.94299,2.123,-1,5
631,3.94512,2.136,-1,5
632,3.94724,2.114,-1,5
633,3.94937,2.136,-1,5
634,3.95149,2.118,-1,5
635,3.95361,2.123,-1,5
636,3.95574,2.131,-1,5
637,3.95788,2.140,-1,5
638,3.96003,2.144,-1,5
639,3.96216,2.131,-1,5
640,3.96429,2.131,-1,5
641,3.96644,2.144,-1,5
642,3.96857,2.136,-1,5
643,3.97071,2.136,-1,5
644,3.97285,2.144,-1,5
645,3.97498,2.131,-1,5
646,3.97712,2.140,-1,5
647,3.97924,2.123,-1,5
648,3.98138,2.131,-1,5
649,3.98352,2.149,-1,5
650,3.98567,2.144,-1,5
651,3.98782,2.149,-1,5
652,3.98997,2.153,-1,5
653,3.99214,2.166,-1,5
654,3.99427,2.136,-1,5
655,3.99642,2.149,-1,5
656,3.99857,2.153,-1,5
657,4.00071,2.140,-1,5
658,4.00287,2.157,-1,5
659,4.00503,2.161,-1,5
660,4.00718,2.144,-1,5
661,4.00934,2.166,-1,5
662,4.01150,2.161,-1,5
663,4.01368,2.179,-1,5
664,4.01585,2.170,-1,5
665,4.01803,2.183,-1,5
666,4.02020,2.166,-1,5
667,4.02238,2.174,-1,5
668,4.02457,2.196,-1,5
669,4.02675,2.174,-1,5
670,4.02895,2.200,-1,5
671,4.03115,2.209,-1,5
672,4.03337,2.218,-1,5
673,4.03559,2.218,-1,5
674,4.03779,2.200,-1,5
675,4.04001,2.222,-1,5
676,4.04225,2.235,-1,5
677,4.04447,2.222,-1,5
678,4.04671,2.243,-1,5
679,4.04894,2.231,-1,5
680,4.05120,2.256,-1,5
681,4.05344,2.243,-1,5
682,4.05569,2.252,-1,5
683,4.05797,2.278,-1,5
684,4.06026,2.282,-1,5
685,4.06253,2.278,-1,5
686,4.06482,2.282,-1,5
687,4.06710,2.282,-1,5
688,4.06938,2.282,-1,5
689,4.07169,2.308,-1,5
690,4.07401,2.321,-1,5
691,4.07632,2.308,-1,5
692,4.07863,2.317,-1,5
693,4.08096,2.325,-1,5
694,4.08327,2.308,-1,5
695,4.08561,2.338,-1,5
696,4.08795,2.343,-1,5
697,4.09030,2.347,-1,5
698,4.09264,2.343,-1,5
699,4.09499,2.356,-1,5
700,4.09971,2.369,-1,5
701,4.10208,2.364,-1,5
702,4.10445,2.373,-1,5
703,4.10683,2.377,-1,5
704,4.10921,2.386,-1,5
705,4.11161,2.394,-1,5
706,4.11399,2.377,-1,5
707,4.11638,2.394,-1,5
708,4.11879,2.407,-1,5
709,4.12120,2.416,-1,5
710,4.12361,2.403,-1,5
711,4.12601,2.403,-1,5
712,4.12843,2.416,-1,5
713,4.13085,2.429,-1,5
714,4.13329,2.438,-1,5
715,4.13572,2.433,-1,5
716,4.13815,2.433,-1,5
717,4.14060,2.429,-1,5
718,4.14303,2.429,-1,5
719,4.14793,2.451,-1,5
720,4.14793,2.472,-1,5
721,4.15287,2.468,-1,5
722,4.15532,2.455,-1,5
723,4.15778,2.455,-1,5
724,4.16024,2.463,-1,5
725,4.16271,2.468,-1,5
726,4.16517,2.463,-1,5
727,4.16765,2.481,-1,5
728,4.17013,2.481,-1,5
729,4.17260,2.472,-1,5
730,4.17509,2.489,-1,5
731,4.17759,2.494,-1,5
732,4.18007,2.485,-1,5
733,4.18256,2.489,-1,5
734,4.18504,2.481,-1,5
735,4.18752,2.476,-1,5
736,4.19000,2.485,-1,5
737,4.19249,2.485,-1,5
738,4.19499,2.498,-1,5
739,4.19748,2.498,-1,5
740,4.19998,2.494,-1,5
741,4.20247,2.494,-1,5
742,4.20500,2.524,-1,5
743,4.20747,2.476,-1,5
744,4.20996,2.485,-1,5
745,4.21244,2.485,-1,5
746,4.21496,2.515,-1,5
747,4.21746,2.502,-1,5
748,4.21995,2.494,-1,5
749,4.22245,2.494,-1,5
750,4.22496,2.515,-1,5
751,4.22746,2.494,-1,5
752,4.22996,2.502,-1,5
753,4.23245,2.494,-1,5
754,4.23495,2.494,-1,5
755,4.23744,2.494,-1,5
756,4.23995,2.515,-1,5
757,4.24245,2.498,-1,5
758,4.24495,2.498,-1,5
759,4.24747,2.515,-1,5
760,4.24996,2.498,-1,5
761,4.25248,2.515,-1,5
762,4.25497,2.494,-1,5
763,4.25747,2.494,-1,5
764,4.25996,2.498,-1,5
765,4.26244,2.476,-1,5
766,4.26495,2.507,-1,5
767,4.26745,2.502,-1,5
768,4.26994,2.489,-1,5
769,4.27243,2.494,-1,5
770,4.27494,2.507,-1,5
771,4.27743,2.489,-1,5
772,4.27991,2.485,-1,5
773,4.28240,2.485,-1,5
774,4.28490,2.502,-1,5
775,4.28739,2.485,-1,5
776,4.28985,2.459,-1,5
777,4.29233,2.485,-1,5
778,4.29732,2.481,-1,5
779,4.29978,2.459,-1,5
780,4.30225,2.472,-1,5
781,4.30472,2.472,-1,5
782,4.30718,2.455,-1,5
783,4.30963,2.455,-1,5
784,4.31209,2.459,-1,5
785,4.31455,2.472,-1,5
786,4.31948,2.455,-1,5
787,4.32193,2.451,-1,5
788,4.32435,2.420,-1,5
789,4.32680,2.451,-1,5
790,4.32680,2.425,-1,5
791,4.33163,2.412,-1,5
792,4.33407,2.433,-1,5
793,4.33647,2.407,-1,5
794,4.33889,2.412,-1,5
795,4.34131,2.420,-1,5
796,4.34371,2.399,-1,5
797,4.34610,2.394,-1,5
798,4.34849,2.394,-1,5
799,4.35091,2.412,-1,5
800,4.35327,2.360,-1,5
801,4.35563,2.360,-1,5
802,4.35800,2.377,-1,5
803,4.36038,2.382,-1,5
804,4.36279,2.403,-1,5
805,4.36512,2.334,-1,5
806,4.36747,2.347,-1,5
807,4.36982,2.347,-1,5
808,4.37217,2.356,-1,5
809,4.37451,2.334,-1,5
810,4.37685,2.347,-1,5
811,4.37917,2.321,-1,5
812,4.38150,2.325,-1,5
813,4.38384,2.338,-1,5
814,4.38618,2.338,-1,5
815,4.38849,2.317,-1,5
816,4.39081,2.321,-1,5
817,4.39310,2.291,-1,5
818,4.39541,2.308,-1,5
819,4.39771,2.300,-1,5
820,4.39999,2.278,-1,5
821,4.40227,2.282,-1,5
822,4.40455,2.274,-1,5
823,4.40682,2.278,-1,5
824,4.40909,2.265,-1,5
825,4.41134,2.248,-1,5
826,4.41361,2.269,-1,5
827,4.41588,2.274,-1,5
828,4.41812,2.243,-1,5
829,4.42037,2.243,-1,5
830,4.42260,2.231,-1,5
831,4.42481,2.209,-1,5
832,4.42703,2.226,-1,5
833,4.42925,2.222,-1,5
834,4.43148,2.226,-1,5
835,4.43369,2.205,-1,5
836,4.43588,2.196,-1,5
837,4.43808,2.200,-1,5
838,4.44026,2.174,-1,5
839,4.44244,2.187,-1,5
840,4.44461,2.166,-1,5
841,4.44676,2.149,-1,5
842,4.44892,2.166,-1,5
843,4.45105,2.131,-1,5
844,4.45320,2.149,-1,5
845,4.45533,2.127,-1,5
846,4.45747,2.140,-1,5
847,4.45959,2.118,-1,5
848,4.46169,2.105,-1,5
849,4.46380,2.105,-1,5
850,4.46589,2.088,-1,5
851,4.46796,2.075,-1,5
852,4.47004,2.080,-1,5
853,4.47211,2.067,-1,5
854,4.47417,2.058,-1,5
855,4.47825,2.032,-1,5
856,4.48029,2.045,-1,5
857,4.48233,2.041,-1,5
858,4.48436,2.023,-1,5
859,4.48636,2.006,-1,5
860,4.48837,2.010,-1,5
861,4.49036,1.985,-1,5
862,4.49234,1.980,-1,5
863,4.49431,1.972,-1,5
864,4.49629,1.976,-1,5
865,4.49825,1.963,-1,5
866,4.50022,1.967,-1,5
867,4.50217,1.950,-1,5
868,4.50410,1.929,-1,5
869,4.50602,1.929,-1,5
870,4.50795,1.929,-1,5
871,4.51179,1.907,-1,5
872,4.51368,1.894,-1,5
873,4.51558,1.894,-1,5
