cnt,pos,speed,Dir,Force,
1,3.21013,0.375,-1,5
2,3.21051,0.380,-1,5
3,3.21089,0.380,-1,5
4,3.21127,0.384,-1,5
5,3.21167,0.393,-1,5
6,3.21206,0.393,-1,5
7,3.21243,0.375,-1,5
8,3.21283,0.397,-1,5
9,3.21322,0.388,-1,5
10,3.21362,0.401,-1,5
11,3.21401,0.388,-1,5
12,3.21441,0.401,-1,5
13,3.21480,0.388,-1,5
14,3.21520,0.406,-1,5
15,3.21561,0.406,-1,5
16,3.21602,0.414,-1,5
17,3.21643,0.401,-1,5
18,3.21682,0.397,-1,5
19,3.21722,0.401,-1,5
20,3.21764,0.414,-1,5
21,3.21805,0.414,-1,5
22,3.21846,0.406,-1,5
23,3.21887,0.414,-1,5
24,3.21928,0.406,-1,5
25,3.21970,0.427,-1,5
26,3.22011,0.410,-1,5
27,3.22052,0.401,-1,5
28,3.22093,0.410,-1,5
29,3.22134,0.418,-1,5
30,3.22177,0.427,-1,5
31,3.22219,0.418,-1,5
32,3.22260,0.414,-1,5
33,3.22344,0.427,-1,5
34,3.22344,0.431,-1,5
35,3.22388,0.423,-1,5
36,3.22430,0.423,-1,5
37,3.22472,0.423,-1,5
38,3.22514,0.423,-1,5
39,3.22602,0.423,-1,5
40,3.22602,0.423,-1,5
41,3.22645,0.427,-1,5
42,3.22688,0.436,-1,5
43,3.22733,0.449,-1,5
44,3.22777,0.440,-1,5
45,3.22821,0.436,-1,5
46,3.22865,0.444,-1,5
47,3.22910,0.466,-1,5
48,3.23002,0.453,-1,5
49,3.23046,0.449,-1,5
50,3.23092,0.453,-1,5
51,3.23138,0.466,-1,5
52,3.23186,0.475,-1,5
53,3.23232,0.457,-1,5
54,3.23278,0.466,-1,5
55,3.23324,0.457,-1,5
56,3.23372,0.479,-1,5
57,3.23418,0.466,-1,5
58,3.23465,0.466,-1,5
59,3.23511,0.462,-1,5
60,3.23561,0.496,-1,5
61,3.23609,0.483,-1,5
62,3.23657,0.488,-1,5
63,3.23706,0.488,-1,5
64,3.23754,0.496,-1,5
65,3.23804,0.496,-1,5
66,3.23851,0.492,-1,5
67,3.23901,0.488,-1,5
68,3.24001,0.513,-1,5
69,3.24051,0.500,-1,5
70,3.24101,0.500,-1,5
71,3.24152,0.509,-1,5
72,3.24204,0.522,-1,5
73,3.24254,0.496,-1,5
74,3.24304,0.505,-1,5
75,3.24355,0.513,-1,5
76,3.24407,0.513,-1,5
77,3.24459,0.526,-1,5
78,3.24512,0.526,-1,5
79,3.24563,0.509,-1,5
80,3.24616,0.526,-1,5
81,3.24669,0.535,-1,5
82,3.24722,0.526,-1,5
83,3.24774,0.522,-1,5
84,3.24827,0.535,-1,5
85,3.24881,0.539,-1,5
86,3.24937,0.552,-1,5
87,3.24989,0.526,-1,5
88,3.25043,0.535,-1,5
89,3.25097,0.539,-1,5
90,3.25154,0.574,-1,5
91,3.25208,0.539,-1,5
92,3.25263,0.548,-1,5
93,3.25317,0.548,-1,5
94,3.25372,0.548,-1,5
95,3.25431,0.582,-1,5
96,3.25486,0.557,-1,5
97,3.25541,0.552,-1,5
98,3.25597,0.552,-1,5
99,3.25652,0.557,-1,5
100,3.25711,0.582,-1,5
101,3.25766,0.557,-1,5
102,3.25821,0.552,-1,5
103,3.25877,0.557,-1,5
104,3.25935,0.578,-1,5
105,3.25992,0.574,-1,5
106,3.26047,0.552,-1,5
107,3.26104,0.561,-1,5
108,3.26160,0.565,-1,5
109,3.26218,0.582,-1,5
110,3.26274,0.552,-1,5
111,3.26331,0.574,-1,5
112,3.26387,0.561,-1,5
113,3.26445,0.582,-1,5
114,3.26501,0.561,-1,5
115,3.26557,0.557,-1,5
116,3.26613,0.557,-1,5
117,3.26672,0.591,-1,5
118,3.26727,0.557,-1,5
119,3.26783,0.561,-1,5
120,3.26840,0.569,-1,5
121,3.26897,0.569,-1,5
122,3.26953,0.557,-1,5
123,3.27009,0.557,-1,5
124,3.27067,0.578,-1,5
125,3.27122,0.557,-1,5
126,3.27177,0.544,-1,5
127,3.27232,0.552,-1,5
128,3.27289,0.569,-1,5
129,3.27343,0.548,-1,5
130,3.27398,0.548,-1,5
131,3.27453,0.544,-1,5
132,3.27510,0.569,-1,5
133,3.27564,0.539,-1,5
134,3.27618,0.548,-1,5
135,3.27674,0.557,-1,5
136,3.27728,0.539,-1,5
137,3.27781,0.535,-1,5
138,3.27834,0.531,-1,5
139,3.27890,0.557,-1,5
140,3.27942,0.518,-1,5
141,3.27995,0.526,-1,5
142,3.28047,0.526,-1,5
143,3.28101,0.539,-1,5
144,3.28154,0.526,-1,5
145,3.28206,0.522,-1,5
146,3.28259,0.531,-1,5
147,3.28313,0.539,-1,5
148,3.28364,0.513,-1,5
149,3.28416,0.522,-1,5
150,3.28471,0.544,-1,5
151,3.28522,0.509,-1,5
152,3.28573,0.513,-1,5
153,3.28624,0.505,-1,5
154,3.28677,0.531,-1,5
155,3.28727,0.500,-1,5
156,3.28776,0.496,-1,5
157,3.28828,0.513,-1,5
158,3.28879,0.518,-1,5
159,3.28929,0.500,-1,5
160,3.28979,0.496,-1,5
161,3.29030,0.505,-1,5
162,3.29080,0.509,-1,5
163,3.29130,0.500,-1,5
164,3.29179,0.483,-1,5
165,3.29228,0.492,-1,5
166,3.29278,0.500,-1,5
167,3.29325,0.475,-1,5
168,3.29374,0.483,-1,5
169,3.29423,0.492,-1,5
170,3.29520,0.483,-1,5
171,3.29568,0.483,-1,5
172,3.29617,0.488,-1,5
173,3.29666,0.488,-1,5
174,3.29713,0.475,-1,5
175,3.29761,0.475,-1,5
176,3.29809,0.479,-1,5
177,3.29857,0.483,-1,5
178,3.29904,0.466,-1,5
179,3.29950,0.466,-1,5
180,3.29999,0.470,-1,5
181,3.30092,0.466,-1,5
182,3.30092,0.466,-1,5
183,3.30139,0.475,-1,5
184,3.30186,0.475,-1,5
185,3.30234,0.475,-1,5
186,3.30280,0.466,-1,5
187,3.30326,0.457,-1,5
188,3.30420,0.475,-1,5
189,3.30466,0.466,-1,5
190,3.30512,0.457,-1,5
191,3.30559,0.466,-1,5
192,3.30606,0.470,-1,5
193,3.30653,0.470,-1,5
194,3.30698,0.453,-1,5
195,3.30744,0.462,-1,5
196,3.30790,0.462,-1,5
197,3.30836,0.462,-1,5
198,3.30883,0.462,-1,5
199,3.30928,0.457,-1,5
200,3.30975,0.470,-1,5
201,3.31022,0.470,-1,5
202,3.31069,0.470,-1,5
203,3.31116,0.462,-1,5
204,3.31162,0.466,-1,5
205,3.31209,0.466,-1,5
206,3.31255,0.466,-1,5
207,3.31303,0.475,-1,5
208,3.31349,0.466,-1,5
209,3.31396,0.470,-1,5
210,3.31444,0.475,-1,5
211,3.31491,0.470,-1,5
212,3.31538,0.475,-1,5
213,3.31585,0.470,-1,5
214,3.31632,0.466,-1,5
215,3.31680,0.479,-1,5
216,3.31730,0.500,-1,5
217,3.31777,0.470,-1,5
218,3.31826,0.488,-1,5
219,3.31873,0.470,-1,5
220,3.31921,0.488,-1,5
221,3.31971,0.492,-1,5
222,3.32019,0.483,-1,5
223,3.32069,0.500,-1,5
224,3.32117,0.479,-1,5
225,3.32166,0.496,-1,5
226,3.32216,0.496,-1,5
227,3.32266,0.496,-1,5
228,3.32314,0.483,-1,5
229,3.32364,0.500,-1,5
230,3.32414,0.500,-1,5
231,3.32463,0.492,-1,5
232,3.32515,0.518,-1,5
233,3.32565,0.500,-1,5
234,3.32617,0.522,-1,5
235,3.32668,0.509,-1,5
236,3.32718,0.500,-1,5
237,3.32770,0.513,-1,5
238,3.32821,0.509,-1,5
239,3.32873,0.526,-1,5
240,3.32925,0.518,-1,5
241,3.32977,0.522,-1,5
242,3.33029,0.522,-1,5
243,3.33081,0.518,-1,5
244,3.33136,0.548,-1,5
245,3.33188,0.518,-1,5
246,3.33241,0.535,-1,5
247,3.33294,0.526,-1,5
248,3.33349,0.552,-1,5
249,3.33402,0.531,-1,5
250,3.33456,0.544,-1,5
251,3.33510,0.531,-1,5
252,3.33564,0.544,-1,5
253,3.33620,0.561,-1,5
254,3.33673,0.535,-1,5
255,3.33728,0.548,-1,5
256,3.33785,0.565,-1,5
257,3.33841,0.565,-1,5
258,3.33897,0.557,-1,5
259,3.33953,0.557,-1,5
260,3.34010,0.574,-1,5
261,3.34068,0.578,-1,5
262,3.34124,0.565,-1,5
263,3.34182,0.578,-1,5
264,3.34242,0.595,-1,5
265,3.34299,0.578,-1,5
266,3.34415,0.582,-1,5
267,3.34475,0.604,-1,5
268,3.34534,0.587,-1,5
269,3.34593,0.587,-1,5
270,3.34654,0.608,-1,5
271,3.34712,0.587,-1,5
272,3.34774,0.613,-1,5
273,3.34835,0.617,-1,5
274,3.34897,0.617,-1,5
275,3.34959,0.617,-1,5
276,3.35020,0.643,-1,5
277,3.35085,0.630,-1,5
278,3.35148,0.630,-1,5
279,3.35210,0.660,-1,5
280,3.35340,0.639,-1,5
281,3.35404,0.639,-1,5
282,3.35470,0.664,-1,5
283,3.35535,0.647,-1,5
284,3.35601,0.656,-1,5
285,3.35669,0.682,-1,5
286,3.35735,0.660,-1,5
287,3.35802,0.669,-1,5
288,3.35871,0.690,-1,5
289,3.35938,0.673,-1,5
290,3.36006,0.682,-1,5
291,3.36077,0.708,-1,5
292,3.36146,0.690,-1,5
293,3.36216,0.699,-1,5
294,3.36287,0.712,-1,5
295,3.36357,0.703,-1,5
296,3.36432,0.742,-1,5
297,3.36503,0.712,-1,5
298,3.36575,0.725,-1,5
299,3.36651,0.755,-1,5
300,3.36725,0.738,-1,5
301,3.36800,0.751,-1,5
302,3.36876,0.764,-1,5
303,3.36951,0.755,-1,5
304,3.37030,0.781,-1,5
305,3.37106,0.768,-1,5
306,3.37184,0.777,-1,5
307,3.37263,0.794,-1,5
308,3.37341,0.772,-1,5
309,3.37422,0.811,-1,5
310,3.37501,0.794,-1,5
311,3.37581,0.802,-1,5
312,3.37665,0.833,-1,5
313,3.37747,0.820,-1,5
314,3.37830,0.837,-1,5
315,3.37914,0.841,-1,5
316,3.37998,0.833,-1,5
317,3.38084,0.867,-1,5
318,3.38169,0.850,-1,5
319,3.38256,0.863,-1,5
320,3.38343,0.876,-1,5
321,3.38431,0.876,-1,5
322,3.38520,0.889,-1,5
323,3.38607,0.876,-1,5
324,3.38697,0.897,-1,5
325,3.38788,0.910,-1,5
326,3.38879,0.906,-1,5
327,3.38971,0.923,-1,5
328,3.39062,0.915,-1,5
329,3.39250,0.949,-1,5
330,3.39345,0.945,-1,5
331,3.39441,0.962,-1,5
332,3.39537,0.962,-1,5
333,3.39633,0.962,-1,5
334,3.39731,0.975,-1,5
335,3.39827,0.966,-1,5
336,3.39928,1.001,-1,5
337,3.40025,0.979,-1,5
338,3.40126,1.005,-1,5
339,3.40226,1.005,-1,5
340,3.40328,1.014,-1,5
341,3.40431,1.031,-1,5
342,3.40532,1.014,-1,5
343,3.40637,1.044,-1,5
344,3.40740,1.044,-1,5
345,3.40844,1.044,-1,5
346,3.40949,1.061,-1,5
347,3.41055,1.061,-1,5
348,3.41161,1.066,-1,5
349,3.41268,1.066,-1,5
350,3.41374,1.096,-1,5
351,3.41592,1.087,-1,5
352,3.41704,1.117,-1,5
353,3.41814,1.096,-1,5
354,3.41925,1.113,-1,5
355,3.42035,1.104,-1,5
356,3.42149,1.130,-1,5
357,3.42262,1.135,-1,5
358,3.42376,1.139,-1,5
359,3.42492,1.156,-1,5
360,3.42605,1.135,-1,5
361,3.42720,1.148,-1,5
362,3.42834,1.143,-1,5
363,3.42951,1.169,-1,5
364,3.43069,1.182,-1,5
365,3.43185,1.161,-1,5
366,3.43305,1.195,-1,5
367,3.43423,1.178,-1,5
368,3.43542,1.199,-1,5
369,3.43664,1.212,-1,5
370,3.43784,1.204,-1,5
371,3.43906,1.217,-1,5
372,3.44028,1.225,-1,5
373,3.44149,1.204,-1,5
374,3.44272,1.238,-1,5
375,3.44395,1.230,-1,5
376,3.44521,1.251,-1,5
377,3.44647,1.264,-1,5
378,3.44771,1.243,-1,5
379,3.44898,1.264,-1,5
380,3.45022,1.243,-1,5
381,3.45151,1.290,-1,5
382,3.45281,1.303,-1,5
383,3.45407,1.255,-1,5
384,3.45536,1.290,-1,5
385,3.45663,1.277,-1,5
386,3.45794,1.303,-1,5
387,3.45924,1.303,-1,5
388,3.46056,1.316,-1,5
389,3.46187,1.312,-1,5
390,3.46319,1.320,-1,5
391,3.46452,1.329,-1,5
392,3.46585,1.333,-1,5
393,3.46720,1.350,-1,5
394,3.46855,1.355,-1,5
395,3.46990,1.342,-1,5
396,3.47126,1.363,-1,5
397,3.47261,1.350,-1,5
398,3.47399,1.376,-1,5
399,3.47535,1.363,-1,5
400,3.47673,1.385,-1,5
401,3.47813,1.394,-1,5
402,3.47949,1.363,-1,5
403,3.48090,1.411,-1,5
404,3.48231,1.406,-1,5
405,3.48369,1.381,-1,5
406,3.48510,1.415,-1,5
407,3.48654,1.432,-1,5
408,3.48793,1.394,-1,5
409,3.48935,1.424,-1,5
410,3.49079,1.432,-1,5
411,3.49222,1.432,-1,5
412,3.49366,1.441,-1,5
413,3.49511,1.454,-1,5
414,3.49657,1.454,-1,5
415,3.49801,1.445,-1,5
416,3.49948,1.467,-1,5
417,3.50094,1.463,-1,5
418,3.50241,1.471,-1,5
419,3.50387,1.454,-1,5
420,3.50533,1.467,-1,5
421,3.50684,1.501,-1,5
422,3.50832,1.488,-1,5
423,3.50979,1.471,-1,5
424,3.51130,1.506,-1,5
425,3.51280,1.501,-1,5
426,3.51433,1.523,-1,5
427,3.51580,1.475,-1,5
428,3.51731,1.506,-1,5
429,3.51881,1.506,-1,5
430,3.52033,1.523,-1,5
431,3.52184,1.501,-1,5
432,3.52336,1.523,-1,5
433,3.52489,1.532,-1,5
434,3.52639,1.497,-1,5
435,3.52793,1.545,-1,5
436,3.52946,1.532,-1,5
437,3.53099,1.523,-1,5
438,3.53253,1.540,-1,5
439,3.53407,1.545,-1,5
440,3.53562,1.570,-1,5
441,3.53719,1.570,-1,5
442,3.54028,1.562,-1,5
443,3.54028,1.536,-1,5
444,3.54181,1.562,-1,5
445,3.54337,1.562,-1,5
446,3.54649,1.557,-1,5
447,3.54805,1.557,-1,5
448,3.54963,1.583,-1,5
449,3.55120,1.566,-1,5
450,3.55275,1.549,-1,5
451,3.55434,1.588,-1,5
452,3.55592,1.583,-1,5
453,3.55751,1.588,-1,5
454,3.55908,1.570,-1,5
455,3.56067,1.596,-1,5
456,3.56226,1.583,-1,5
457,3.56384,1.583,-1,5
458,3.56545,1.605,-1,5
459,3.56704,1.592,-1,5
460,3.56864,1.605,-1,5
461,3.57025,1.609,-1,5
462,3.57186,1.609,-1,5
463,3.57348,1.622,-1,5
464,3.57509,1.609,-1,5
465,3.57668,1.592,-1,5
466,3.57830,1.618,-1,5
467,3.57993,1.626,-1,5
468,3.58156,1.635,-1,5
469,3.58320,1.639,-1,5
470,3.58483,1.631,-1,5
471,3.58647,1.639,-1,5
472,3.58812,1.648,-1,5
473,3.58977,1.644,-1,5
474,3.59141,1.644,-1,5
475,3.59306,1.648,-1,5
476,3.59470,1.644,-1,5
477,3.59637,1.670,-1,5
478,3.59803,1.657,-1,5
479,3.59968,1.648,-1,5
480,3.60134,1.670,-1,5
481,3.60302,1.674,-1,5
482,3.60469,1.674,-1,5
483,3.60637,1.678,-1,5
484,3.60805,1.683,-1,5
485,3.60974,1.691,-1,5
486,3.61144,1.700,-1,5
487,3.61314,1.691,-1,5
488,3.61484,1.700,-1,5
489,3.61655,1.713,-1,5
490,3.61823,1.683,-1,5
491,3.61994,1.713,-1,5
492,3.62166,1.717,-1,5
493,3.62338,1.717,-1,5
494,3.62509,1.713,-1,5
495,3.62680,1.704,-1,5
496,3.62852,1.726,-1,5
497,3.63026,1.734,-1,5
498,3.63199,1.739,-1,5
499,3.63374,1.743,-1,5
500,3.63549,1.752,-1,5
501,3.63723,1.743,-1,5
502,3.63896,1.730,-1,5
503,3.64072,1.760,-1,5
504,3.64246,1.739,-1,5
505,3.64422,1.760,-1,5
506,3.64597,1.747,-1,5
507,3.64774,1.769,-1,5
508,3.64951,1.773,-1,5
509,3.65129,1.782,-1,5
510,3.65306,1.769,-1,5
511,3.65483,1.773,-1,5
512,3.65659,1.760,-1,5
513,3.65839,1.795,-1,5
514,3.66018,1.790,-1,5
515,3.66197,1.790,-1,5
516,3.66377,1.799,-1,5
517,3.66556,1.795,-1,5
518,3.66737,1.803,-1,5
519,3.66917,1.799,-1,5
520,3.67097,1.808,-1,5
521,3.67277,1.799,-1,5
522,3.67458,1.812,-1,5
523,3.67641,1.821,-1,5
524,3.67823,1.825,-1,5
525,3.68007,1.842,-1,5
526,3.68190,1.825,-1,5
527,3.68373,1.834,-1,5
528,3.68556,1.825,-1,5
529,3.68741,1.855,-1,5
530,3.68924,1.834,-1,5
531,3.69109,1.847,-1,5
532,3.69292,1.825,-1,5
533,3.69478,1.868,-1,5
534,3.69663,1.842,-1,5
535,3.69849,1.868,-1,5
536,3.70036,1.864,-1,5
537,3.70223,1.872,-1,5
538,3.70410,1.872,-1,5
539,3.70599,1.885,-1,5
540,3.70789,1.898,-1,5
541,3.70976,1.877,-1,5
542,3.71164,1.877,-1,5
543,3.71353,1.894,-1,5
544,3.71543,1.898,-1,5
545,3.71734,1.907,-1,5
546,3.71924,1.903,-1,5
547,3.72116,1.916,-1,5
548,3.72306,1.907,-1,5
549,3.72497,1.907,-1,5
550,3.72690,1.929,-1,5
551,3.72884,1.941,-1,5
552,3.73078,1.937,-1,5
553,3.73272,1.941,-1,5
554,3.73466,1.937,-1,5
555,3.73660,1.946,-1,5
556,3.73855,1.946,-1,5
557,3.74050,1.950,-1,5
558,3.74246,1.963,-1,5
559,3.74440,1.941,-1,5
560,3.74637,1.967,-1,5
561,3.74835,1.980,-1,5
562,3.75033,1.976,-1,5
563,3.75230,1.976,-1,5
564,3.75430,1.993,-1,5
565,3.75629,1.989,-1,5
566,3.76025,1.998,-1,5
567,3.76223,1.989,-1,5
568,3.76422,1.989,-1,5
569,3.76422,1.993,-1,5
570,3.76622,1.993,-1,5
571,3.76821,1.998,-1,5
572,3.77021,2.002,-1,5
573,3.77221,2.006,-1,5
574,3.77624,2.019,-1,5
575,3.77825,2.015,-1,5
576,3.78026,2.010,-1,5
577,3.78229,2.028,-1,5
578,3.78430,2.010,-1,5
579,3.78632,2.015,-1,5
580,3.78834,2.028,-1,5
581,3.79038,2.036,-1,5
582,3.79242,2.041,-1,5
583,3.79446,2.041,-1,5
584,3.79650,2.041,-1,5
585,3.79856,2.054,-1,5
586,3.80058,2.023,-1,5
587,3.80265,2.067,-1,5
588,3.80677,2.075,-1,5
589,3.80882,2.054,-1,5
590,3.81089,2.071,-1,5
591,3.81295,2.058,-1,5
592,3.81502,2.071,-1,5
593,3.81711,2.088,-1,5
594,3.81916,2.054,-1,5
595,3.82126,2.101,-1,5
596,3.82335,2.088,-1,5
597,3.82544,2.092,-1,5
598,3.82753,2.084,-1,5
599,3.82963,2.101,-1,5
600,3.83171,2.084,-1,5
601,3.83381,2.101,-1,5
602,3.83590,2.088,-1,5
603,3.83801,2.105,-1,5
604,3.84011,2.105,-1,5
605,3.84224,2.131,-1,5
606,3.84436,2.114,-1,5
607,3.84646,2.101,-1,5
608,3.84858,2.123,-1,5
609,3.85070,2.123,-1,5
610,3.85282,2.118,-1,5
611,3.85495,2.131,-1,5
612,3.85708,2.127,-1,5
613,3.85920,2.118,-1,5
614,3.86132,2.118,-1,5
615,3.86346,2.144,-1,5
616,3.86561,2.144,-1,5
617,3.86775,2.149,-1,5
618,3.86991,2.153,-1,5
619,3.87206,2.153,-1,5
620,3.87419,2.131,-1,5
621,3.87634,2.149,-1,5
622,3.87848,2.140,-1,5
623,3.88062,2.144,-1,5
624,3.88278,2.157,-1,5
625,3.88492,2.136,-1,5
626,3.88708,2.161,-1,5
627,3.88923,2.149,-1,5
628,3.89139,2.161,-1,5
629,3.89355,2.166,-1,5
630,3.89572,2.166,-1,5
631,3.89789,2.166,-1,5
632,3.90004,2.157,-1,5
633,3.90220,2.157,-1,5
634,3.90437,2.170,-1,5
635,3.90653,2.161,-1,5
636,3.90870,2.170,-1,5
637,3.91086,2.161,-1,5
638,3.91302,2.161,-1,5
639,3.91520,2.179,-1,5
640,3.91738,2.179,-1,5
641,3.91956,2.179,-1,5
642,3.92175,2.187,-1,5
643,3.92394,2.192,-1,5
644,3.92612,2.179,-1,5
645,3.92828,2.166,-1,5
646,3.93047,2.183,-1,5
647,3.93266,2.192,-1,5
648,3.93485,2.196,-1,5
649,3.93704,2.187,-1,5
650,3.93923,2.187,-1,5
651,3.94143,2.196,-1,5
652,3.94364,2.213,-1,5
653,3.94584,2.200,-1,5
654,3.94804,2.196,-1,5
655,3.95025,2.213,-1,5
656,3.95244,2.196,-1,5
657,3.95465,2.209,-1,5
658,3.95685,2.196,-1,5
659,3.95907,2.222,-1,5
660,3.96131,2.235,-1,5
661,3.96351,2.200,-1,5
662,3.96573,2.222,-1,5
663,3.96795,2.218,-1,5
664,3.97017,2.226,-1,5
665,3.97239,2.218,-1,5
666,3.97460,2.209,-1,5
667,3.97682,2.218,-1,5
668,3.97902,2.200,-1,5
669,3.98124,2.226,-1,5
670,3.98346,2.222,-1,5
671,3.98569,2.222,-1,5
672,3.98792,2.231,-1,5
673,3.99016,2.239,-1,5
674,3.99239,2.235,-1,5
675,3.99459,2.196,-1,5
676,3.99681,2.226,-1,5
677,3.99904,2.226,-1,5
678,4.00126,2.218,-1,5
679,4.00350,2.239,-1,5
680,4.00573,2.239,-1,5
681,4.00795,2.218,-1,5
682,4.01019,2.239,-1,5
683,4.01242,2.226,-1,5
684,4.01465,2.235,-1,5
685,4.01687,2.222,-1,5
686,4.01911,2.235,-1,5
687,4.02134,2.235,-1,5
688,4.02357,2.231,-1,5
689,4.02581,2.239,-1,5
690,4.02805,2.239,-1,5
691,4.03029,2.239,-1,5
692,4.03479,2.261,-1,5
693,4.03703,2.248,-1,5
694,4.03927,2.239,-1,5
695,4.04152,2.248,-1,5
696,4.04377,2.252,-1,5
697,4.04603,2.252,-1,5
698,4.04827,2.243,-1,5
699,4.05051,2.239,-1,5
700,4.05277,2.256,-1,5
701,4.05500,2.231,-1,5
702,4.05726,2.265,-1,5
703,4.05951,2.252,-1,5
704,4.06178,2.265,-1,5
705,4.06406,2.278,-1,5
706,4.06630,2.243,-1,5
707,4.06854,2.239,-1,5
708,4.07079,2.252,-1,5
709,4.07305,2.256,-1,5
710,4.07530,2.252,-1,5
711,4.07755,2.248,-1,5
712,4.07983,2.287,-1,5
713,4.08207,2.239,-1,5
714,4.08432,2.243,-1,5
715,4.08880,2.239,-1,5
716,4.08880,2.243,-1,5
717,4.09104,2.243,-1,5
718,4.09329,2.235,-1,5
719,4.09553,2.235,-1,5
720,4.09777,2.243,-1,5
721,4.10002,2.248,-1,5
722,4.10227,2.248,-1,5
723,4.10449,2.243,-1,5
724,4.10673,2.243,-1,5
725,4.10896,2.231,-1,5
726,4.11120,2.235,-1,5
727,4.11342,2.226,-1,5
728,4.11565,2.231,-1,5
729,4.11786,2.209,-1,5
730,4.12010,2.235,-1,5
731,4.12232,2.218,-1,5
732,4.12454,2.226,-1,5
733,4.12675,2.209,-1,5
734,4.12896,2.209,-1,5
735,4.13120,2.235,-1,5
736,4.13340,2.209,-1,5
737,4.13561,2.205,-1,5
738,4.13782,2.209,-1,5
739,4.14002,2.205,-1,5
740,4.14220,2.174,-1,5
741,4.14441,2.213,-1,5
742,4.14662,2.209,-1,5
743,4.14881,2.192,-1,5
744,4.15102,2.205,-1,5
745,4.15321,2.192,-1,5
746,4.15539,2.187,-1,5
747,4.15757,2.174,-1,5
748,4.15975,2.183,-1,5
749,4.16194,2.192,-1,5
750,4.16409,2.149,-1,5
751,4.16628,2.183,-1,5
752,4.16844,2.166,-1,5
753,4.17061,2.170,-1,5
754,4.17276,2.149,-1,5
755,4.17494,2.183,-1,5
756,4.17710,2.161,-1,5
757,4.17925,2.149,-1,5
758,4.18141,2.153,-1,5
759,4.18354,2.136,-1,5
760,4.18567,2.127,-1,5
761,4.18780,2.131,-1,5
762,4.18993,2.131,-1,5
763,4.19206,2.127,-1,5
764,4.19418,2.118,-1,5
765,4.19630,2.123,-1,5
766,4.19842,2.118,-1,5
767,4.20052,2.105,-1,5
768,4.20264,2.114,-1,5
769,4.20475,2.110,-1,5
770,4.20685,2.105,-1,5
771,4.20892,2.071,-1,5
772,4.21100,2.075,-1,5
773,4.21308,2.084,-1,5
774,4.21515,2.067,-1,5
775,4.21722,2.071,-1,5
776,4.21929,2.075,-1,5
777,4.22134,2.049,-1,5
778,4.22339,2.049,-1,5
779,4.22545,2.036,-1,5
780,4.22748,2.041,-1,5
781,4.22952,2.041,-1,5
782,4.23155,2.023,-1,5
783,4.23358,2.023,-1,5
784,4.23559,1.998,-1,5
785,4.23759,2.010,-1,5
786,4.24160,2.006,-1,5
787,4.24360,1.998,-1,5
788,4.24559,1.989,-1,5
789,4.24758,1.993,-1,5
790,4.24956,1.976,-1,5
791,4.25153,1.967,-1,5
792,4.25349,1.963,-1,5
793,4.25543,1.946,-1,5
794,4.25739,1.959,-1,5
795,4.25934,1.946,-1,5
796,4.26127,1.933,-1,5
797,4.26319,1.920,-1,5
798,4.26512,1.933,-1,5
799,4.26704,1.911,-1,5
800,4.26895,1.916,-1,5
801,4.27085,1.903,-1,5
802,4.27465,1.890,-1,5
803,4.27465,1.872,-1,5
804,4.27839,1.872,-1,5
805,4.27839,1.872,-1,5
806,4.28214,1.872,-1,5
807,4.28214,1.855,-1,5
808,4.28400,1.855,-1,5
809,4.28770,1.851,-1,5
810,4.28954,1.834,-1,5
811,4.29136,1.825,-1,5
812,4.29319,1.829,-1,5
813,4.29501,1.821,-1,5
814,4.29683,1.825,-1,5
815,4.29862,1.782,-1,5
816,4.30042,1.799,-1,5
817,4.30221,1.795,-1,5
818,4.30399,1.778,-1,5
819,4.30577,1.778,-1,5
820,4.30751,1.743,-1,5
821,4.30927,1.760,-1,5
822,4.31102,1.752,-1,5
823,4.31275,1.734,-1,5
824,4.31450,1.747,-1,5
825,4.31624,1.734,-1,5
826,4.31796,1.721,-1,5
827,4.31969,1.730,-1,5
828,4.32138,1.691,-1,5
829,4.32306,1.683,-1,5
830,4.32476,1.696,-1,5
831,4.32645,1.691,-1,5
832,4.32810,1.657,-1,5
833,4.32976,1.652,-1,5
834,4.33141,1.652,-1,5
835,4.33307,1.657,-1,5
836,4.33471,1.639,-1,5
837,4.33632,1.618,-1,5
838,4.33794,1.618,-1,5
839,4.33956,1.622,-1,5
840,4.34118,1.614,-1,5
841,4.34278,1.605,-1,5
842,4.34436,1.579,-1,5
843,4.34594,1.583,-1,5
844,4.34752,1.579,-1,5
845,4.34908,1.557,-1,5
846,4.35064,1.562,-1,5
847,4.35217,1.527,-1,5
848,4.35371,1.545,-1,5
849,4.35526,1.540,-1,5
850,4.35679,1.536,-1,5
851,4.35829,1.497,-1,5
852,4.35979,1.506,-1,5
853,4.36131,1.514,-1,5
854,4.36281,1.501,-1,5
855,4.36427,1.458,-1,5
856,4.36721,1.467,-1,5
857,4.36866,1.450,-1,5
858,4.37009,1.432,-1,5
859,4.37153,1.441,-1,5
860,4.37296,1.428,-1,5
861,4.37436,1.402,-1,5
862,4.37577,1.411,-1,5
863,4.37716,1.389,-1,5
864,4.37854,1.381,-1,5
865,4.37992,1.376,-1,5
866,4.38127,1.355,-1,5
867,4.38265,1.381,-1,5
868,4.38398,1.333,-1,5
869,4.38535,1.368,-1,5
870,4.38667,1.320,-1,5
871,4.38801,1.342,-1,5
872,4.38930,1.281,-1,5
873,4.39060,1.307,-1,5
