cnt,pos,speed,Dir,Force,
1,3.46464,1.001,-1,5
2,3.46564,1.005,-1,5
3,3.46663,0.984,-1,5
4,3.46764,1.018,-1,5
5,3.46865,1.005,-1,5
6,3.46963,0.979,-1,5
7,3.47064,1.014,-1,5
8,3.47163,0.992,-1,5
9,3.47263,0.992,-1,5
10,3.47364,1.014,-1,5
11,3.47463,0.988,-1,5
12,3.47563,1.005,-1,5
13,3.47664,1.005,-1,5
14,3.47765,1.010,-1,5
15,3.47864,0.988,-1,5
16,3.47963,0.997,-1,5
17,3.48065,1.014,-1,5
18,3.48165,1.001,-1,5
19,3.48266,1.010,-1,5
20,3.48364,0.984,-1,5
21,3.48466,1.022,-1,5
22,3.48567,1.005,-1,5
23,3.48669,1.018,-1,5
24,3.48768,0.997,-1,5
25,3.48869,1.010,-1,5
26,3.48968,0.988,-1,5
27,3.49070,1.018,-1,5
28,3.49170,1.005,-1,5
29,3.49273,1.022,-1,5
30,3.49373,1.001,-1,5
31,3.49476,1.027,-1,5
32,3.49576,1.001,-1,5
33,3.49678,1.022,-1,5
34,3.49777,0.992,-1,5
35,3.49880,1.027,-1,5
36,3.49980,1.001,-1,5
37,3.50082,1.018,-1,5
38,3.50181,0.992,-1,5
39,3.50283,1.022,-1,5
40,3.50383,0.997,-1,5
41,3.50485,1.018,-1,5
42,3.50585,1.001,-1,5
43,3.50687,1.022,-1,5
44,3.50787,1.001,-1,5
45,3.50890,1.027,-1,5
46,3.50990,1.001,-1,5
47,3.51092,1.018,-1,5
48,3.51192,1.001,-1,5
49,3.51294,1.022,-1,5
50,3.51395,1.010,-1,5
51,3.51497,1.022,-1,5
52,3.51597,1.001,-1,5
53,3.51698,1.005,-1,5
54,3.51797,0.992,-1,5
55,3.51900,1.027,-1,5
56,3.52000,1.001,-1,5
57,3.52102,0.997,-1,5
58,3.52201,0.997,-1,5
59,3.52303,1.018,-1,5
60,3.52404,1.010,-1,5
61,3.52506,0.984,-1,5
62,3.52706,1.014,-1,5
63,3.52807,1.010,-1,5
64,3.52907,1.001,-1,5
65,3.53008,1.010,-1,5
66,3.53109,1.010,-1,5
67,3.53209,1.005,-1,5
68,3.53308,0.992,-1,5
69,3.53411,1.027,-1,5
70,3.53511,1.001,-1,5
71,3.53610,0.992,-1,5
72,3.53714,1.040,-1,5
73,3.53813,0.984,-1,5
74,3.53911,0.984,-1,5
75,3.54013,1.022,-1,5
76,3.54112,0.988,-1,5
77,3.54212,1.001,-1,5
78,3.54311,0.988,-1,5
79,3.54509,0.992,-1,5
80,3.54609,1.001,-1,5
81,3.54708,0.992,-1,5
82,3.54806,0.979,-1,5
83,3.54906,0.992,-1,5
84,3.55004,0.988,-1,5
85,3.55101,0.971,-1,5
86,3.55201,0.992,-1,5
87,3.55297,0.962,-1,5
88,3.55397,1.001,-1,5
89,3.55494,0.971,-1,5
90,3.55592,0.984,-1,5
91,3.55689,0.966,-1,5
92,3.55788,0.988,-1,5
93,3.55884,0.962,-1,5
94,3.55982,0.975,-1,5
95,3.56077,0.953,-1,5
96,3.56174,0.971,-1,5
97,3.56268,0.941,-1,5
98,3.56364,0.962,-1,5
99,3.56459,0.945,-1,5
100,3.56555,0.966,-1,5
101,3.56649,0.941,-1,5
102,3.56746,0.962,-1,5
103,3.56839,0.932,-1,5
104,3.56935,0.962,-1,5
105,3.57028,0.928,-1,5
106,3.57122,0.941,-1,5
107,3.57214,0.923,-1,5
108,3.57308,0.936,-1,5
109,3.57400,0.923,-1,5
110,3.57492,0.919,-1,5
111,3.57584,0.919,-1,5
112,3.57673,0.893,-1,5
113,3.57766,0.928,-1,5
114,3.57857,0.906,-1,5
115,3.57948,0.919,-1,5
116,3.58037,0.889,-1,5
117,3.58129,0.915,-1,5
118,3.58217,0.884,-1,5
119,3.58309,0.915,-1,5
120,3.58397,0.880,-1,5
121,3.58485,0.884,-1,5
122,3.58573,0.876,-1,5
123,3.58660,0.876,-1,5
124,3.58749,0.889,-1,5
125,3.58835,0.859,-1,5
126,3.58923,0.876,-1,5
127,3.59008,0.850,-1,5
128,3.59093,0.854,-1,5
129,3.59177,0.841,-1,5
130,3.59262,0.846,-1,5
131,3.59348,0.859,-1,5
132,3.59430,0.820,-1,5
133,3.59514,0.841,-1,5
134,3.59597,0.828,-1,5
135,3.59680,0.811,-1,5
136,3.59761,0.811,-1,5
137,3.59843,0.820,-1,5
138,3.59923,0.833,-1,5
139,3.60006,0.833,-1,5
140,3.60086,0.790,-1,5
141,3.60245,0.798,-1,5
142,3.60326,0.811,-1,5
143,3.60403,0.768,-1,5
144,3.60481,0.785,-1,5
145,3.60559,0.772,-1,5
146,3.60636,0.777,-1,5
147,3.60712,0.755,-1,5
148,3.60788,0.764,-1,5
149,3.60864,0.759,-1,5
150,3.60940,0.755,-1,5
151,3.61015,0.751,-1,5
152,3.61088,0.738,-1,5
153,3.61163,0.746,-1,5
154,3.61235,0.725,-1,5
155,3.61307,0.725,-1,5
156,3.61379,0.708,-1,5
157,3.61519,0.695,-1,5
158,3.61590,0.703,-1,5
159,3.61660,0.699,-1,5
160,3.61728,0.682,-1,5
161,3.61795,0.669,-1,5
162,3.61863,0.682,-1,5
163,3.61929,0.660,-1,5
164,3.61993,0.643,-1,5
165,3.62058,0.651,-1,5
166,3.62124,0.656,-1,5
167,3.62186,0.626,-1,5
168,3.62248,0.617,-1,5
169,3.62312,0.639,-1,5
170,3.62373,0.608,-1,5
171,3.62432,0.591,-1,5
172,3.62492,0.600,-1,5
173,3.62552,0.604,-1,5
174,3.62610,0.574,-1,5
175,3.62667,0.569,-1,5
176,3.62724,0.574,-1,5
177,3.62780,0.565,-1,5
178,3.62835,0.548,-1,5
179,3.62888,0.531,-1,5
180,3.62944,0.552,-1,5
181,3.62996,0.522,-1,5
182,3.63048,0.518,-1,5
183,3.63098,0.505,-1,5
184,3.63151,0.526,-1,5
185,3.63200,0.496,-1,5
186,3.63249,0.483,-1,5
187,3.63296,0.470,-1,5
188,3.63345,0.492,-1,5
189,3.63391,0.462,-1,5
190,3.63436,0.449,-1,5
191,3.63480,0.444,-1,5
192,3.63525,0.449,-1,5
193,3.63570,0.444,-1,5
194,3.63611,0.418,-1,5
195,3.63653,0.414,-1,5
196,3.63693,0.401,-1,5
197,3.63735,0.418,-1,5
198,3.63773,0.380,-1,5
199,3.63811,0.380,-1,5
200,3.63848,0.375,-1,5
201,3.63884,0.358,-1,5
202,3.63921,0.367,-1,5
203,3.63957,0.358,-1,5
204,3.63990,0.337,-1,5
205,3.64023,0.328,-1,5
206,3.64055,0.324,-1,5
207,3.64086,0.306,-1,5
208,3.64117,0.311,-1,5
209,3.64148,0.306,-1,5
210,3.64176,0.285,-1,5
211,3.64203,0.267,-1,5
212,3.64230,0.267,-1,5
213,3.64256,0.246,-1,5
214,3.64280,0.259,-1,5
215,3.64306,0.259,-1,5
216,3.64353,0.224,-1,5
217,3.64375,0.216,-1,5
218,3.64375,0.211,-1,5
219,3.64416,0.203,-1,5
220,3.64435,0.190,-1,5
221,3.64453,0.181,-1,5
222,3.64471,0.177,-1,5
223,3.64489,0.177,-1,5
224,3.64504,0.155,-1,5
225,3.64520,0.160,-1,5
226,3.64535,0.147,-1,5
227,3.64548,0.129,-1,5
228,3.64572,0.121,-1,5
229,3.64572,0.099,-1,5
230,3.64582,0.099,-1,5
231,3.64602,0.095,-1,5
232,3.64602,0.078,-1,5
233,3.64609,0.073,-1,5
234,3.64624,0.069,-1,5
235,3.64628,0.047,-1,5
236,3.64633,0.047,-1,5
237,3.64637,0.043,-1,5
238,3.64640,0.030,-1,5
239,3.64643,0.022,-1,5
240,3.64644,0.013,-1,5
241,3.64645,0.009,-1,5
242,3.64644,-0.004,-1,5
243,3.64644,-0.004,-1,5
244,3.64642,-0.017,-1,5
245,3.64640,-0.022,-1,5
246,3.64637,-0.030,-1,5
247,3.64633,-0.039,-1,5
248,3.64629,-0.043,-1,5
249,3.64624,-0.047,-1,5
250,3.64618,-0.056,-1,5
251,3.64612,-0.060,-1,5
252,3.64605,-0.078,-1,5
253,3.64597,-0.073,-1,5
254,3.64589,-0.082,-1,5
255,3.64581,-0.082,-1,5
256,3.64572,-0.091,-1,5
257,3.64561,-0.104,-1,5
258,3.64551,-0.104,-1,5
259,3.64540,-0.108,-1,5
260,3.64528,-0.125,-1,5
261,3.64516,-0.121,-1,5
262,3.64501,-0.142,-1,5
263,3.64488,-0.134,-1,5
264,3.64473,-0.147,-1,5
265,3.64458,-0.151,-1,5
266,3.64444,-0.142,-1,5
267,3.64427,-0.173,-1,5
268,3.64411,-0.160,-1,5
269,3.64394,-0.173,-1,5
270,3.64375,-0.181,-1,5
271,3.64358,-0.173,-1,5
272,3.64339,-0.190,-1,5
273,3.64319,-0.203,-1,5
274,3.64298,-0.211,-1,5
275,3.64277,-0.211,-1,5
276,3.64255,-0.216,-1,5
277,3.64234,-0.216,-1,5
278,3.64212,-0.220,-1,5
279,3.64188,-0.233,-1,5
280,3.64165,-0.233,-1,5
281,3.64141,-0.237,-1,5
282,3.64115,-0.259,-1,5
283,3.64089,-0.267,-1,5
284,3.64063,-0.255,-1,5
285,3.64037,-0.263,-1,5
286,3.64010,-0.272,-1,5
287,3.63982,-0.272,-1,5
288,3.63955,-0.276,-1,5
289,3.63925,-0.298,-1,5
290,3.63894,-0.306,-1,5
291,3.63864,-0.302,-1,5
292,3.63836,-0.285,-1,5
293,3.63804,-0.319,-1,5
294,3.63772,-0.315,-1,5
295,3.63741,-0.311,-1,5
296,3.63707,-0.345,-1,5
297,3.63674,-0.328,-1,5
298,3.63607,-0.341,-1,5
299,3.63573,-0.337,-1,5
300,3.63538,-0.349,-1,5
301,3.63501,-0.371,-1,5
302,3.63501,-0.371,-1,5
303,3.63465,-0.358,-1,5
304,3.63429,-0.367,-1,5
305,3.63356,-0.367,-1,5
306,3.63318,-0.380,-1,5
307,3.63279,-0.388,-1,5
308,3.63240,-0.384,-1,5
309,3.63202,-0.384,-1,5
310,3.63163,-0.388,-1,5
311,3.63122,-0.410,-1,5
312,3.63081,-0.410,-1,5
313,3.63041,-0.406,-1,5
314,3.63000,-0.410,-1,5
315,3.62960,-0.401,-1,5
316,3.62916,-0.431,-1,5
317,3.62874,-0.427,-1,5
318,3.62831,-0.423,-1,5
319,3.62789,-0.427,-1,5
320,3.62746,-0.427,-1,5
321,3.62701,-0.449,-1,5
322,3.62657,-0.436,-1,5
323,3.62569,-0.444,-1,5
324,3.62569,-0.444,-1,5
325,3.62477,-0.475,-1,5
326,3.62477,-0.462,-1,5
327,3.62431,-0.462,-1,5
328,3.62385,-0.462,-1,5
329,3.62291,-0.483,-1,5
330,3.62243,-0.475,-1,5
331,3.62196,-0.475,-1,5
332,3.62148,-0.475,-1,5
333,3.62101,-0.479,-1,5
334,3.62050,-0.509,-1,5
335,3.62001,-0.483,-1,5
336,3.61953,-0.488,-1,5
337,3.61903,-0.496,-1,5
338,3.61852,-0.509,-1,5
339,3.61801,-0.509,-1,5
340,3.61751,-0.496,-1,5
341,3.61702,-0.496,-1,5
342,3.61650,-0.522,-1,5
343,3.61597,-0.526,-1,5
344,3.61545,-0.518,-1,5
345,3.61494,-0.513,-1,5
346,3.61441,-0.531,-1,5
347,3.61389,-0.522,-1,5
348,3.61334,-0.548,-1,5
349,3.61281,-0.531,-1,5
350,3.61226,-0.544,-1,5
351,3.61173,-0.531,-1,5
352,3.61117,-0.565,-1,5
353,3.61063,-0.539,-1,5
354,3.61007,-0.557,-1,5
355,3.60952,-0.548,-1,5
356,3.60896,-0.561,-1,5
357,3.60839,-0.578,-1,5
358,3.60783,-0.557,-1,5
359,3.60726,-0.574,-1,5
360,3.60669,-0.565,-1,5
361,3.60613,-0.565,-1,5
362,3.60554,-0.587,-1,5
363,3.60497,-0.565,-1,5
364,3.60439,-0.582,-1,5
365,3.60380,-0.587,-1,5
366,3.60323,-0.578,-1,5
367,3.60263,-0.595,-1,5
368,3.60204,-0.591,-1,5
369,3.60145,-0.591,-1,5
370,3.60087,-0.600,-1,5
371,3.60027,-0.600,-1,5
372,3.59965,-0.613,-1,5
373,3.59905,-0.604,-1,5
374,3.59845,-0.595,-1,5
375,3.59785,-0.600,-1,5
376,3.59724,-0.608,-1,5
377,3.59601,-0.621,-1,5
378,3.59540,-0.617,-1,5
379,3.59477,-0.621,-1,5
380,3.59416,-0.617,-1,5
381,3.59354,-0.617,-1,5
382,3.59291,-0.626,-1,5
383,3.59228,-0.630,-1,5
384,3.59166,-0.630,-1,5
385,3.59102,-0.639,-1,5
386,3.59038,-0.634,-1,5
387,3.58975,-0.634,-1,5
388,3.58912,-0.626,-1,5
389,3.58847,-0.651,-1,5
390,3.58783,-0.639,-1,5
391,3.58719,-0.647,-1,5
392,3.58652,-0.669,-1,5
393,3.58587,-0.647,-1,5
394,3.58522,-0.647,-1,5
395,3.58455,-0.673,-1,5
396,3.58390,-0.651,-1,5
397,3.58324,-0.660,-1,5
398,3.58256,-0.677,-1,5
399,3.58124,-0.664,-1,5
400,3.58124,-0.690,-1,5
401,3.57989,-0.664,-1,5
402,3.57922,-0.664,-1,5
403,3.57853,-0.695,-1,5
404,3.57785,-0.673,-1,5
405,3.57718,-0.669,-1,5
406,3.57649,-0.695,-1,5
407,3.57581,-0.677,-1,5
408,3.57514,-0.677,-1,5
409,3.57444,-0.695,-1,5
410,3.57376,-0.682,-1,5
411,3.57306,-0.703,-1,5
412,3.57236,-0.699,-1,5
413,3.57166,-0.699,-1,5
414,3.57095,-0.712,-1,5
415,3.57025,-0.695,-1,5
416,3.56955,-0.699,-1,5
417,3.56882,-0.729,-1,5
418,3.56813,-0.695,-1,5
419,3.56742,-0.712,-1,5
420,3.56669,-0.729,-1,5
421,3.56597,-0.716,-1,5
422,3.56523,-0.742,-1,5
423,3.56452,-0.712,-1,5
424,3.56380,-0.720,-1,5
425,3.56307,-0.729,-1,5
426,3.56235,-0.720,-1,5
427,3.56163,-0.716,-1,5
428,3.56089,-0.746,-1,5
429,3.56016,-0.729,-1,5
430,3.55942,-0.733,-1,5
431,3.55868,-0.742,-1,5
432,3.55793,-0.755,-1,5
433,3.55717,-0.759,-1,5
434,3.55642,-0.742,-1,5
435,3.55568,-0.742,-1,5
436,3.55492,-0.764,-1,5
437,3.55417,-0.746,-1,5
438,3.55342,-0.755,-1,5
439,3.55263,-0.785,-1,5
440,3.55189,-0.742,-1,5
441,3.55113,-0.759,-1,5
442,3.55036,-0.768,-1,5
443,3.54960,-0.764,-1,5
444,3.54880,-0.794,-1,5
445,3.54804,-0.768,-1,5
446,3.54728,-0.755,-1,5
447,3.54648,-0.807,-1,5
448,3.54572,-0.759,-1,5
449,3.54493,-0.785,-1,5
450,3.54413,-0.798,-1,5
451,3.54336,-0.772,-1,5
452,3.54258,-0.781,-1,5
453,3.54178,-0.802,-1,5
454,3.54100,-0.781,-1,5
455,3.54020,-0.794,-1,5
456,3.53941,-0.790,-1,5
457,3.53861,-0.807,-1,5
458,3.53782,-0.798,-1,5
459,3.53702,-0.837,-1,5
460,3.53618,-0.794,-1,5
461,3.53458,-0.807,-1,5
462,3.53375,-0.828,-1,5
463,3.53294,-0.815,-1,5
464,3.53213,-0.802,-1,5
465,3.53131,-0.828,-1,5
466,3.53049,-0.815,-1,5
467,3.52967,-0.820,-1,5
468,3.52884,-0.828,-1,5
469,3.52802,-0.820,-1,5
470,3.52721,-0.815,-1,5
471,3.52635,-0.854,-1,5
472,3.52553,-0.824,-1,5
473,3.52471,-0.815,-1,5
474,3.52387,-0.837,-1,5
475,3.52303,-0.837,-1,5
476,3.52218,-0.837,-1,5
477,3.52052,-0.824,-1,5
478,3.51966,-0.854,-1,5
479,3.51882,-0.841,-1,5
480,3.51796,-0.859,-1,5
481,3.51712,-0.846,-1,5
482,3.51629,-0.828,-1,5
483,3.51542,-0.871,-1,5
484,3.51457,-0.850,-1,5
485,3.51370,-0.871,-1,5
486,3.51284,-0.859,-1,5
487,3.51197,-0.871,-1,5
488,3.51110,-0.863,-1,5
489,3.51025,-0.850,-1,5
490,3.50937,-0.884,-1,5
491,3.50851,-0.859,-1,5
492,3.50762,-0.893,-1,5
493,3.50675,-0.863,-1,5
494,3.50587,-0.884,-1,5
495,3.50500,-0.867,-1,5
496,3.50412,-0.880,-1,5
497,3.50325,-0.876,-1,5
498,3.50238,-0.863,-1,5
499,3.50149,-0.897,-1,5
500,3.50061,-0.871,-1,5
501,3.49972,-0.893,-1,5
502,3.49885,-0.876,-1,5
503,3.49793,-0.910,-1,5
504,3.49705,-0.884,-1,5
505,3.49615,-0.897,-1,5
506,3.49526,-0.893,-1,5
507,3.49435,-0.906,-1,5
508,3.49345,-0.902,-1,5
509,3.49257,-0.884,-1,5
510,3.49165,-0.919,-1,5
511,3.49075,-0.902,-1,5
512,3.48984,-0.910,-1,5
513,3.48894,-0.893,-1,5
514,3.48804,-0.906,-1,5
515,3.48714,-0.897,-1,5
516,3.48624,-0.902,-1,5
517,3.48532,-0.919,-1,5
518,3.48440,-0.919,-1,5
519,3.48348,-0.923,-1,5
520,3.48258,-0.902,-1,5
521,3.48165,-0.928,-1,5
522,3.48074,-0.910,-1,5
523,3.47981,-0.932,-1,5
524,3.47889,-0.919,-1,5
525,3.47798,-0.910,-1,5
526,3.47610,-0.941,-1,5
527,3.47610,-0.928,-1,5
528,3.47517,-0.919,-1,5
529,3.47425,-0.919,-1,5
530,3.47237,-0.953,-1,5
531,3.47144,-0.932,-1,5
532,3.47050,-0.936,-1,5
533,3.46955,-0.958,-1,5
534,3.46861,-0.936,-1,5
535,3.46767,-0.945,-1,5
536,3.46669,-0.971,-1,5
537,3.46575,-0.945,-1,5
538,3.46480,-0.949,-1,5
