cnt,pos,speed,Dir,Force,
1,3.29786,1.661,-1,5
2,3.29954,1.678,-1,5
3,3.30123,1.688,-1,5
4,3.30292,1.689,-1,5
5,3.30461,1.696,-1,5
6,3.30631,1.702,-1,5
7,3.30803,1.718,-1,5
8,3.30976,1.731,-1,5
9,3.31149,1.731,-1,5
10,3.31323,1.734,-1,5
11,3.31497,1.747,-1,5
12,3.31674,1.761,-1,5
13,3.31850,1.768,-1,5
14,3.32027,1.766,-1,5
15,3.32204,1.773,-1,5
16,3.32383,1.790,-1,5
17,3.32563,1.800,-1,5
18,3.32743,1.800,-1,5
19,3.32923,1.797,-1,5
20,3.33104,1.811,-1,5
21,3.33287,1.833,-1,5
22,3.33471,1.836,-1,5
23,3.33654,1.826,-1,5
24,3.33837,1.833,-1,5
25,3.34022,1.854,-1,5
26,3.34209,1.872,-1,5
27,3.34396,1.864,-1,5
28,3.34581,1.856,-1,5
29,3.34769,1.871,-1,5
30,3.34958,1.892,-1,5
31,3.35148,1.904,-1,5
32,3.35337,1.890,-1,5
33,3.35526,1.884,-1,5
34,3.35716,1.906,-1,5
35,3.35909,1.926,-1,5
36,3.36102,1.930,-1,5
37,3.36294,1.919,-1,5
38,3.36486,1.921,-1,5
39,3.36680,1.939,-1,5
40,3.36875,1.954,-1,5
41,3.37071,1.959,-1,5
42,3.37266,1.953,-1,5
43,3.37461,1.954,-1,5
44,3.37658,1.965,-1,5
45,3.37856,1.983,-1,5
46,3.38056,1.995,-1,5
47,3.38254,1.983,-1,5
48,3.38452,1.977,-1,5
49,3.38651,1.992,-1,5
50,3.38853,2.017,-1,5
51,3.39055,2.023,-1,5
52,3.39256,2.008,-1,5
53,3.39456,2.007,-1,5
54,3.39659,2.022,-1,5
55,3.39863,2.042,-1,5
56,3.40068,2.047,-1,5
57,3.40271,2.037,-1,5
58,3.40475,2.036,-1,5
59,3.40679,2.045,-1,5
60,3.40886,2.064,-1,5
61,3.41093,2.072,-1,5
62,3.41299,2.061,-1,5
63,3.41504,2.052,-1,5
64,3.41711,2.063,-1,5
65,3.41920,2.090,-1,5
66,3.42129,2.090,-1,5
67,3.42336,2.075,-1,5
68,3.42542,2.064,-1,5
69,3.42751,2.088,-1,5
70,3.42961,2.100,-1,5
71,3.43171,2.096,-1,5
72,3.43379,2.081,-1,5
73,3.43587,2.084,-1,5
74,3.43797,2.099,-1,5
75,3.44007,2.103,-1,5
76,3.44217,2.098,-1,5
77,3.44426,2.090,-1,5
78,3.44635,2.092,-1,5
79,3.44846,2.100,-1,5
80,3.45056,2.095,-1,5
81,3.45265,2.091,-1,5
82,3.45474,2.091,-1,5
83,3.45684,2.092,-1,5
84,3.45893,2.098,-1,5
85,3.46103,2.095,-1,5
86,3.46312,2.088,-1,5
87,3.46520,2.084,-1,5
88,3.46729,2.087,-1,5
89,3.47145,2.080,-1,5
90,3.47145,2.078,-1,5
91,3.47561,2.078,-1,5
92,3.47561,2.070,-1,5
93,3.47975,2.066,-1,5
94,3.47975,2.065,-1,5
95,3.48388,2.067,-1,5
96,3.48388,2.055,-1,5
97,3.48798,2.049,-1,5
98,3.49003,2.048,-1,5
99,3.49208,2.052,-1,5
100,3.49412,2.041,-1,5
101,3.49615,2.028,-1,5
102,3.49818,2.031,-1,5
103,3.50021,2.028,-1,5
104,3.50224,2.026,-1,5
105,3.50425,2.012,-1,5
106,3.50625,2.006,-1,5
107,3.50826,2.006,-1,5
108,3.51026,2.000,-1,5
109,3.51226,1.996,-1,5
110,3.51424,1.985,-1,5
111,3.51622,1.980,-1,5
112,3.51819,1.973,-1,5
113,3.52017,1.973,-1,5
114,3.52214,1.973,-1,5
115,3.52410,1.958,-1,5
116,3.52799,1.946,-1,5
117,3.52994,1.952,-1,5
118,3.52994,1.944,-1,5
119,3.53189,1.944,-1,5
120,3.53381,1.923,-1,5
121,3.53573,1.919,-1,5
122,3.53766,1.927,-1,5
123,3.53959,1.929,-1,5
124,3.54149,1.907,-1,5
125,3.54339,1.892,-1,5
126,3.54529,1.900,-1,5
127,3.54719,1.906,-1,5
128,3.54908,1.893,-1,5
129,3.55096,1.875,-1,5
130,3.55283,1.871,-1,5
131,3.55471,1.880,-1,5
132,3.55658,1.872,-1,5
133,3.55844,1.858,-1,5
134,3.56029,1.851,-1,5
135,3.56214,1.846,-1,5
136,3.56398,1.847,-1,5
137,3.56582,1.838,-1,5
138,3.56765,1.830,-1,5
139,3.56948,1.827,-1,5
140,3.57130,1.819,-1,5
141,3.57311,1.809,-1,5
142,3.57491,1.806,-1,5
143,3.57672,1.804,-1,5
144,3.57852,1.802,-1,5
145,3.58030,1.780,-1,5
146,3.58208,1.775,-1,5
147,3.58385,1.777,-1,5
148,3.58563,1.779,-1,5
149,3.58740,1.768,-1,5
150,3.58914,1.743,-1,5
151,3.59089,1.743,-1,5
152,3.59264,1.754,-1,5
153,3.59439,1.749,-1,5
154,3.59783,1.715,-1,5
155,3.59955,1.718,-1,5
156,3.59955,1.718,-1,5
157,3.60128,1.730,-1,5
158,3.60300,1.696,-1,5
159,3.60469,1.696,-1,5
160,3.60639,1.699,-1,5
161,3.60808,1.699,-1,5
162,3.61146,1.680,-1,5
163,3.61313,1.668,-1,5
164,3.61481,1.676,-1,5
165,3.61648,1.679,-1,5
166,3.61815,1.661,-1,5
167,3.61980,1.650,-1,5
168,3.62145,1.650,-1,5
169,3.62310,1.659,-1,5
170,3.62476,1.656,-1,5
171,3.62640,1.635,-1,5
172,3.62802,1.625,-1,5
173,3.62966,1.636,-1,5
174,3.63130,1.641,-1,5
175,3.63293,1.630,-1,5
176,3.63454,1.612,-1,5
177,3.63614,1.605,-1,5
178,3.63776,1.613,-1,5
179,3.63938,1.621,-1,5
180,3.64099,1.606,-1,5
181,3.64257,1.589,-1,5
182,3.64416,1.590,-1,5
183,3.64736,1.600,-1,5
184,3.64895,1.587,-1,5
185,3.64895,1.570,-1,5
186,3.65052,1.570,-1,5
187,3.65209,1.590,-1,5
188,3.65368,1.580,-1,5
189,3.65526,1.565,-1,5
190,3.65683,1.565,-1,5
191,3.65995,1.566,-1,5
192,3.66153,1.575,-1,5
193,3.66310,1.569,-1,5
194,3.66465,1.550,-1,5
195,3.66619,1.545,-1,5
196,3.66775,1.559,-1,5
197,3.66931,1.563,-1,5
198,3.67087,1.555,-1,5
199,3.67241,1.546,-1,5
200,3.67395,1.536,-1,5
201,3.67549,1.546,-1,5
202,3.67705,1.556,-1,5
203,3.67859,1.544,-1,5
204,3.68013,1.538,-1,5
205,3.68167,1.536,-1,5
206,3.68321,1.542,-1,5
207,3.68475,1.545,-1,5
208,3.68630,1.542,-1,5
209,3.68783,1.533,-1,5
210,3.68936,1.531,-1,5
211,3.69091,1.545,-1,5
212,3.69245,1.541,-1,5
213,3.69398,1.534,-1,5
214,3.69551,1.532,-1,5
215,3.69704,1.531,-1,5
216,3.69858,1.537,-1,5
217,3.70012,1.543,-1,5
218,3.70166,1.538,-1,5
219,3.70319,1.527,-1,5
220,3.70472,1.535,-1,5
221,3.70626,1.540,-1,5
222,3.70781,1.543,-1,5
223,3.70935,1.544,-1,5
224,3.71088,1.535,-1,5
225,3.71242,1.535,-1,5
226,3.71396,1.543,-1,5
227,3.71551,1.550,-1,5
228,3.71860,1.545,-1,5
229,3.71860,1.543,-1,5
230,3.72015,1.543,-1,5
231,3.72169,1.542,-1,5
232,3.72324,1.556,-1,5
233,3.72480,1.556,-1,5
234,3.72635,1.550,-1,5
235,3.72790,1.552,-1,5
236,3.72946,1.553,-1,5
237,3.73101,1.564,-1,5
238,3.73414,1.563,-1,5
239,3.73570,1.558,-1,5
240,3.73726,1.560,-1,5
241,3.73882,1.566,-1,5
242,3.74039,1.571,-1,5
243,3.74197,1.574,-1,5
244,3.74354,1.570,-1,5
245,3.74510,1.564,-1,5
246,3.74668,1.576,-1,5
247,3.74826,1.586,-1,5
248,3.74984,1.581,-1,5
249,3.75142,1.575,-1,5
250,3.75299,1.573,-1,5
251,3.75458,1.584,-1,5
252,3.75617,1.597,-1,5
253,3.75777,1.594,-1,5
254,3.75934,1.576,-1,5
255,3.76092,1.579,-1,5
256,3.76252,1.607,-1,5
257,3.76412,1.600,-1,5
258,3.76731,1.584,-1,5
259,3.76731,1.583,-1,5
260,3.77050,1.609,-1,5
261,3.77050,1.609,-1,5
262,3.77212,1.602,-1,5
263,3.77372,1.590,-1,5
264,3.77531,1.596,-1,5
265,3.77852,1.615,-1,5
266,3.78015,1.625,-1,5
267,3.78175,1.607,-1,5
268,3.78335,1.594,-1,5
269,3.78496,1.607,-1,5
270,3.78658,1.621,-1,5
271,3.78820,1.621,-1,5
272,3.78981,1.611,-1,5
273,3.79141,1.599,-1,5
274,3.79302,1.610,-1,5
275,3.79465,1.628,-1,5
276,3.79627,1.620,-1,5
277,3.79787,1.604,-1,5
278,3.79947,1.604,-1,5
279,3.80109,1.612,-1,5
280,3.80271,1.625,-1,5
281,3.80433,1.623,-1,5
282,3.80594,1.603,-1,5
283,3.80753,1.595,-1,5
284,3.80915,1.614,-1,5
285,3.81077,1.624,-1,5
286,3.81239,1.618,-1,5
287,3.81399,1.601,-1,5
288,3.81558,1.590,-1,5
289,3.81719,1.609,-1,5
290,3.81881,1.626,-1,5
291,3.82043,1.612,-1,5
292,3.82202,1.592,-1,5
293,3.82361,1.591,-1,5
294,3.82521,1.604,-1,5
295,3.82683,1.619,-1,5
296,3.82844,1.604,-1,5
297,3.83002,1.582,-1,5
298,3.83161,1.587,-1,5
299,3.83321,1.603,-1,5
300,3.83482,1.608,-1,5
301,3.83641,1.591,-1,5
302,3.83798,1.574,-1,5
303,3.83956,1.576,-1,5
304,3.84116,1.601,-1,5
305,3.84276,1.598,-1,5
306,3.84433,1.574,-1,5
307,3.84589,1.561,-1,5
308,3.84747,1.573,-1,5
309,3.84905,1.587,-1,5
310,3.85064,1.585,-1,5
311,3.85220,1.548,-1,5
312,3.85375,1.548,-1,5
313,3.85531,1.577,-1,5
314,3.85689,1.577,-1,5
315,3.85846,1.551,-1,5
316,3.86001,1.551,-1,5
317,3.86309,1.543,-1,5
318,3.86465,1.561,-1,5
319,3.86621,1.556,-1,5
320,3.86774,1.531,-1,5
321,3.86926,1.524,-1,5
322,3.87079,1.531,-1,5
323,3.87234,1.542,-1,5
324,3.87387,1.533,-1,5
325,3.87538,1.516,-1,5
326,3.87689,1.506,-1,5
327,3.87841,1.517,-1,5
328,3.87993,1.524,-1,5
329,3.88144,1.511,-1,5
330,3.88294,1.492,-1,5
331,3.88443,1.494,-1,5
332,3.88593,1.497,-1,5
333,3.88743,1.502,-1,5
334,3.88892,1.493,-1,5
335,3.89040,1.475,-1,5
336,3.89187,1.471,-1,5
337,3.89335,1.478,-1,5
338,3.89483,1.478,-1,5
339,3.89629,1.467,-1,5
340,3.89775,1.459,-1,5
341,3.89920,1.454,-1,5
342,3.90066,1.454,-1,5
343,3.90211,1.453,-1,5
344,3.90356,1.444,-1,5
345,3.90499,1.436,-1,5
346,3.90643,1.436,-1,5
347,3.90787,1.424,-1,5
348,3.90929,1.424,-1,5
349,3.91071,1.418,-1,5
350,3.91213,1.423,-1,5
351,3.91355,1.417,-1,5
352,3.91496,1.408,-1,5
353,3.91636,1.401,-1,5
354,3.91775,1.397,-1,5
355,3.91915,1.395,-1,5
356,3.92054,1.395,-1,5
357,3.92193,1.388,-1,5
358,3.92467,1.368,-1,5
359,3.92605,1.374,-1,5
360,3.92742,1.372,-1,5
361,3.92742,1.359,-1,5
362,3.93013,1.351,-1,5
363,3.93013,1.350,-1,5
364,3.93148,1.350,-1,5
365,3.93417,1.346,-1,5
366,3.93551,1.342,-1,5
367,3.93685,1.331,-1,5
368,3.93817,1.322,-1,5
369,3.93949,1.323,-1,5
370,3.94082,1.327,-1,5
371,3.94213,1.315,-1,5
372,3.94344,1.308,-1,5
373,3.94475,1.307,-1,5
374,3.94605,1.305,-1,5
375,3.94735,1.293,-1,5
376,3.94863,1.288,-1,5
377,3.94992,1.291,-1,5
378,3.95121,1.284,-1,5
379,3.95249,1.278,-1,5
380,3.95377,1.278,-1,5
381,3.95504,1.271,-1,5
382,3.95630,1.259,-1,5
383,3.95755,1.256,-1,5
384,3.95881,1.262,-1,5
385,3.96007,1.261,-1,5
386,3.96132,1.247,-1,5
387,3.96256,1.242,-1,5
388,3.96380,1.237,-1,5
389,3.96504,1.238,-1,5
390,3.96627,1.233,-1,5
391,3.96750,1.232,-1,5
392,3.96873,1.227,-1,5
393,3.96994,1.214,-1,5
394,3.97115,1.207,-1,5
395,3.97236,1.209,-1,5
396,3.97358,1.217,-1,5
397,3.97478,1.203,-1,5
398,3.97597,1.190,-1,5
399,3.97716,1.190,-1,5
400,3.97835,1.192,-1,5
401,3.97953,1.182,-1,5
402,3.98071,1.177,-1,5
403,3.98188,1.174,-1,5
404,3.98306,1.165,-1,5
405,3.98422,1.165,-1,5
406,3.98654,1.157,-1,5
407,3.98654,1.154,-1,5
408,3.98769,1.148,-1,5
409,3.98884,1.142,-1,5
410,3.99113,1.144,-1,5
411,3.99227,1.142,-1,5
412,3.99340,1.131,-1,5
413,3.99452,1.119,-1,5
414,3.99564,1.121,-1,5
415,3.99677,1.126,-1,5
416,3.99788,1.120,-1,5
417,3.99899,1.107,-1,5
418,4.00010,1.104,-1,5
419,4.00120,1.107,-1,5
420,4.00231,1.102,-1,5
421,4.00339,1.088,-1,5
422,4.00448,1.082,-1,5
423,4.00556,1.088,-1,5
424,4.00665,1.087,-1,5
425,4.00773,1.076,-1,5
426,4.00879,1.069,-1,5
427,4.00986,1.067,-1,5
428,4.01093,1.068,-1,5
429,4.01199,1.057,-1,5
430,4.01304,1.049,-1,5
431,4.01408,1.049,-1,5
432,4.01514,1.057,-1,5
433,4.01619,1.050,-1,5
434,4.01722,1.033,-1,5
435,4.01825,1.027,-1,5
436,4.01929,1.034,-1,5
437,4.02033,1.039,-1,5
438,4.02135,1.026,-1,5
439,4.02236,1.016,-1,5
440,4.02440,1.024,-1,5
441,4.02542,1.017,-1,5
442,4.02642,0.998,-1,5
443,4.02741,0.993,-1,5
444,4.02842,1.005,-1,5
445,4.02943,1.016,-1,5
446,4.03043,0.998,-1,5
447,4.03141,0.977,-1,5
448,4.03238,0.979,-1,5
449,4.03338,0.994,-1,5
450,4.03437,0.996,-1,5
451,4.03535,0.973,-1,5
452,4.03631,0.962,-1,5
453,4.03728,0.975,-1,5
454,4.03828,0.991,-1,5
455,4.03925,0.978,-1,5
456,4.04021,0.954,-1,5
457,4.04115,0.947,-1,5
458,4.04213,0.972,-1,5
459,4.04311,0.980,-1,5
460,4.04407,0.966,-1,5
461,4.04502,0.944,-1,5
462,4.04597,0.953,-1,5
463,4.04694,0.972,-1,5
464,4.04792,0.978,-1,5
465,4.04887,0.954,-1,5
466,4.04981,0.941,-1,5
467,4.05077,0.953,-1,5
468,4.05175,0.979,-1,5
469,4.05272,0.978,-1,5
470,4.05368,0.959,-1,5
471,4.05463,0.946,-1,5
472,4.05559,0.963,-1,5
473,4.05658,0.985,-1,5
474,4.05756,0.983,-1,5
475,4.05852,0.958,-1,5
476,4.05947,0.957,-1,5
477,4.06045,0.981,-1,5
478,4.06146,1.004,-1,5
479,4.06245,0.993,-1,5
480,4.06342,0.972,-1,5
481,4.06440,0.974,-1,5
482,4.06540,1.003,-1,5
483,4.06642,1.024,-1,5
484,4.06743,0.994,-1,5
485,4.06943,1.008,-1,5
486,4.07047,1.040,-1,5
487,4.07152,1.048,-1,5
488,4.07255,1.032,-1,5
489,4.07358,1.022,-1,5
490,4.07462,1.047,-1,5
491,4.07570,1.082,-1,5
492,4.07679,1.085,-1,5
493,4.07785,1.064,-1,5
494,4.07892,1.063,-1,5
495,4.08001,1.123,-1,5
496,4.08113,1.123,-1,5
497,4.08225,1.100,-1,5
498,4.08335,1.100,-1,5
499,4.08446,1.151,-1,5
500,4.08561,1.151,-1,5
501,4.08678,1.169,-1,5
502,4.08793,1.150,-1,5
503,4.08907,1.168,-1,5
504,4.09144,1.202,-1,5
505,4.09265,1.205,-1,5
506,4.09384,1.190,-1,5
507,4.09504,1.201,-1,5
508,4.09627,1.227,-1,5
509,4.09751,1.240,-1,5
510,4.09875,1.240,-1,5
511,4.09999,1.244,-1,5
512,4.10125,1.260,-1,5
513,4.10253,1.277,-1,5
514,4.10381,1.283,-1,5
515,4.10510,1.288,-1,5
516,4.10639,1.290,-1,5
517,4.10770,1.305,-1,5
518,4.10902,1.328,-1,5
519,4.11036,1.335,-1,5
520,4.11168,1.323,-1,5
521,4.11301,1.327,-1,5
522,4.11436,1.354,-1,5
523,4.11573,1.370,-1,5
524,4.11709,1.363,-1,5
525,4.11845,1.360,-1,5
526,4.11982,1.371,-1,5
527,4.12121,1.384,-1,5
528,4.12260,1.394,-1,5
529,4.12400,1.398,-1,5
530,4.12539,1.394,-1,5
531,4.12679,1.396,-1,5
532,4.12820,1.411,-1,5
533,4.12962,1.418,-1,5
534,4.13104,1.416,-1,5
535,4.13245,1.416,-1,5
536,4.13388,1.427,-1,5
537,4.13531,1.431,-1,5
538,4.13674,1.429,-1,5
539,4.13817,1.431,-1,5
540,4.13961,1.436,-1,5
541,4.14105,1.441,-1,5
542,4.14249,1.447,-1,5
543,4.14394,1.443,-1,5
544,4.14537,1.435,-1,5
545,4.14681,1.443,-1,5
546,4.14827,1.453,-1,5
547,4.14972,1.454,-1,5
548,4.15117,1.445,-1,5
549,4.15261,1.443,-1,5
550,4.15405,1.445,-1,5
551,4.15697,1.458,-1,5
552,4.15697,1.449,-1,5
553,4.15841,1.439,-1,5
554,4.15985,1.439,-1,5
555,4.16131,1.451,-1,5
556,4.16276,1.459,-1,5
557,4.16422,1.452,-1,5
558,4.16566,1.445,-1,5
559,4.16855,1.445,-1,5
560,4.17001,1.454,-1,5
561,4.17146,1.458,-1,5
562,4.17291,1.449,-1,5
563,4.17435,1.437,-1,5
564,4.17579,1.441,-1,5
565,4.17724,1.450,-1,5
566,4.17869,1.452,-1,5
567,4.18014,1.449,-1,5
568,4.18158,1.441,-1,5
569,4.18302,1.434,-1,5
570,4.18446,1.441,-1,5
571,4.18591,1.451,-1,5
572,4.18736,1.448,-1,5
573,4.18880,1.441,-1,5
574,4.19024,1.439,-1,5
575,4.19168,1.440,-1,5
576,4.19312,1.442,-1,5
577,4.19457,1.450,-1,5
578,4.19602,1.449,-1,5
579,4.19746,1.441,-1,5
580,4.19890,1.441,-1,5
581,4.20034,1.443,-1,5
582,4.20179,1.445,-1,5
583,4.20324,1.451,-1,5
584,4.20469,1.453,-1,5
585,4.20613,1.442,-1,5
586,4.20757,1.440,-1,5
587,4.20903,1.451,-1,5
588,4.21049,1.460,-1,5
589,4.21194,1.458,-1,5
590,4.21340,1.453,-1,5
591,4.21485,1.449,-1,5
592,4.21630,1.456,-1,5
593,4.21777,1.471,-1,5
594,4.21925,1.476,-1,5
595,4.22072,1.467,-1,5
596,4.22218,1.460,-1,5
597,4.22364,1.470,-1,5
598,4.22513,1.484,-1,5
599,4.22662,1.492,-1,5
600,4.22811,1.492,-1,5
601,4.22959,1.480,-1,5
602,4.23107,1.480,-1,5
603,4.23257,1.501,-1,5
604,4.23409,1.515,-1,5
605,4.23560,1.514,-1,5
606,4.23711,1.508,-1,5
607,4.23861,1.505,-1,5
608,4.24013,1.518,-1,5
609,4.24167,1.541,-1,5
610,4.24322,1.547,-1,5
611,4.24476,1.537,-1,5
612,4.24629,1.533,-1,5
613,4.24784,1.552,-1,5
614,4.24941,1.581,-1,5
615,4.25257,1.576,-1,5
616,4.25257,1.576,-1,5
617,4.25572,1.584,-1,5
618,4.25733,1.610,-1,5
619,4.25895,1.620,-1,5
620,4.26056,1.613,-1,5
621,4.26056,1.603,-1,5
622,4.26379,1.620,-1,5
623,4.26544,1.654,-1,5
624,4.26711,1.666,-1,5
625,4.26876,1.650,-1,5
626,4.27040,1.645,-1,5
627,4.27207,1.665,-1,5
628,4.27377,1.702,-1,5
629,4.27548,1.714,-1,5
630,4.27718,1.697,-1,5
631,4.27887,1.687,-1,5
632,4.28058,1.715,-1,5
633,4.28233,1.752,-1,5
634,4.28410,1.763,-1,5
635,4.28584,1.746,-1,5
636,4.28758,1.737,-1,5
637,4.28935,1.767,-1,5
638,4.29115,1.805,-1,5
639,4.29296,1.809,-1,5
640,4.29476,1.796,-1,5
641,4.29655,1.790,-1,5
642,4.29837,1.823,-1,5
643,4.30023,1.855,-1,5
644,4.30208,1.858,-1,5
645,4.30393,1.846,-1,5
646,4.30578,1.847,-1,5
647,4.30766,1.880,-1,5
648,4.30956,1.907,-1,5
649,4.31147,1.905,-1,5
650,4.31336,1.896,-1,5
651,4.31527,1.907,-1,5
652,4.31721,1.936,-1,5
653,4.31916,1.953,-1,5
654,4.32111,1.952,-1,5
655,4.32306,1.954,-1,5
656,4.32503,1.963,-1,5
657,4.32701,1.986,-1,5
658,4.32902,2.004,-1,5
659,4.33302,2.003,-1,5
660,4.33504,2.012,-1,5
661,4.33708,2.042,-1,5
662,4.33913,2.053,-1,5
663,4.34118,2.052,-1,5
664,4.34323,2.045,-1,5
665,4.34530,2.070,-1,5
666,4.34739,2.092,-1,5
667,4.34949,2.097,-1,5
668,4.35158,2.091,-1,5
669,4.35367,2.098,-1,5
670,4.35580,2.125,-1,5
671,4.35793,2.135,-1,5
672,4.36007,2.137,-1,5
673,4.36221,2.137,-1,5
674,4.36436,2.150,-1,5
675,4.36652,2.165,-1,5
676,4.36870,2.179,-1,5
677,4.37088,2.181,-1,5
678,4.37306,2.189,-1,5
679,4.37525,2.211,-1,5
680,4.37746,2.211,-1,5
681,4.37969,2.215,-1,5
682,4.38190,2.215,-1,5
683,4.38412,2.216,-1,5
684,4.38635,2.237,-1,5
685,4.38861,2.257,-1,5
686,4.39086,2.251,-1,5
687,4.39311,2.250,-1,5
688,4.39537,2.260,-1,5
689,4.39765,2.280,-1,5
690,4.39994,2.287,-1,5
691,4.40223,2.286,-1,5
692,4.40451,2.282,-1,5
693,4.40681,2.300,-1,5
694,4.40912,2.317,-1,5
695,4.41144,2.320,-1,5
696,4.41375,2.309,-1,5
697,4.41607,2.315,-1,5
698,4.41841,2.339,-1,5
699,4.42075,2.347,-1,5
700,4.42309,2.336,-1,5
701,4.42543,2.339,-1,5
702,4.42778,2.355,-1,5
703,4.43015,2.363,-1,5
704,4.43251,2.364,-1,5
705,4.43487,2.362,-1,5
706,4.43724,2.371,-1,5
707,4.43962,2.374,-1,5
708,4.44200,2.385,-1,5
709,4.44439,2.386,-1,5
710,4.44677,2.382,-1,5
711,4.44916,2.390,-1,5
712,4.45156,2.399,-1,5
713,4.45396,2.400,-1,5
714,4.45636,2.404,-1,5
715,4.45876,2.400,-1,5
716,4.46116,2.401,-1,5
717,4.46358,2.413,-1,5
718,4.46599,2.417,-1,5
719,4.46840,2.409,-1,5
720,4.47081,2.404,-1,5
721,4.47323,2.418,-1,5
722,4.47565,2.421,-1,5
723,4.47806,2.417,-1,5
724,4.48047,2.409,-1,5
725,4.48289,2.416,-1,5
726,4.48531,2.419,-1,5
727,4.48773,2.419,-1,5
728,4.49014,2.413,-1,5
729,4.49255,2.413,-1,5
730,4.49496,2.414,-1,5
731,4.49738,2.418,-1,5
732,4.49980,2.413,-1,5
733,4.50221,2.414,-1,5
734,4.50462,2.411,-1,5
735,4.50703,2.408,-1,5
736,4.50944,2.409,-1,5
737,4.51185,2.416,-1,5
738,4.51426,2.406,-1,5
739,4.51666,2.399,-1,5
740,4.51906,2.401,-1,5
741,4.52147,2.408,-1,5
742,4.52387,2.401,-1,5
743,4.52626,2.392,-1,5
744,4.52865,2.392,-1,5
745,4.53104,2.392,-1,5
746,4.53344,2.392,-1,5
747,4.53582,2.389,-1,5
748,4.53820,2.379,-1,5
749,4.54058,2.378,-1,5
750,4.54296,2.377,-1,5
751,4.54533,2.370,-1,5
752,4.54770,2.367,-1,5
753,4.55006,2.362,-1,5
754,4.55242,2.359,-1,5
755,4.55477,2.352,-1,5
756,4.55712,2.347,-1,5
757,4.55946,2.347,-1,5
758,4.56180,2.337,-1,5
759,4.56413,2.327,-1,5
760,4.56645,2.327,-1,5
761,4.56878,2.324,-1,5
762,4.57109,2.315,-1,5
763,4.57340,2.304,-1,5
764,4.57570,2.299,-1,5
765,4.57800,2.302,-1,5
766,4.58028,2.287,-1,5
767,4.58256,2.278,-1,5
768,4.58484,2.273,-1,5
769,4.58711,2.270,-1,5
770,4.58937,2.260,-1,5
771,4.59162,2.251,-1,5
772,4.59386,2.241,-1,5
773,4.59610,2.238,-1,5
774,4.59833,2.232,-1,5
775,4.60055,2.223,-1,5
776,4.60276,2.206,-1,5
777,4.60496,2.205,-1,5
778,4.60717,2.204,-1,5
779,4.60935,2.188,-1,5
780,4.61153,2.172,-1,5
781,4.61370,2.171,-1,5
782,4.61587,2.169,-1,5
783,4.61802,2.152,-1,5
784,4.62016,2.140,-1,5
785,4.62229,2.133,-1,5
786,4.62442,2.130,-1,5
787,4.62654,2.116,-1,5
788,4.62864,2.105,-1,5
789,4.63074,2.096,-1,5
790,4.63282,2.088,-1,5
791,4.63491,2.081,-1,5
792,4.63697,2.068,-1,5
793,4.63903,2.060,-1,5
794,4.64108,2.047,-1,5
795,4.64312,2.042,-1,5
796,4.64516,2.035,-1,5
797,4.64718,2.023,-1,5
798,4.64919,2.007,-1,5
799,4.65119,2.001,-1,5
800,4.65319,2.002,-1,5
801,4.65518,1.987,-1,5
802,4.65714,1.968,-1,5
803,4.65910,1.957,-1,5
804,4.66106,1.963,-1,5
805,4.66302,1.957,-1,5
806,4.66495,1.933,-1,5
807,4.66687,1.920,-1,5
808,4.66879,1.920,-1,5
809,4.67072,1.921,-1,5
810,4.67262,1.907,-1,5
811,4.67451,1.888,-1,5
812,4.67639,1.884,-1,5
813,4.67827,1.878,-1,5
814,4.68015,1.876,-1,5
815,4.68201,1.863,-1,5
816,4.68386,1.849,-1,5
817,4.68570,1.842,-1,5
818,4.68754,1.835,-1,5
819,4.68937,1.835,-1,5
820,4.69120,1.826,-1,5
821,4.69301,1.809,-1,5
822,4.69480,1.798,-1,5
823,4.69660,1.796,-1,5
824,4.69840,1.800,-1,5
825,4.70019,1.791,-1,5
826,4.70196,1.764,-1,5
827,4.70371,1.757,-1,5
828,4.70547,1.761,-1,5
829,4.70724,1.769,-1,5
830,4.70899,1.752,-1,5
831,4.71072,1.724,-1,5
832,4.71244,1.718,-1,5
833,4.71417,1.732,-1,5
834,4.71590,1.729,-1,5
835,4.71761,1.710,-1,5
836,4.71930,1.688,-1,5
837,4.72098,1.684,-1,5
838,4.72268,1.699,-1,5
839,4.72437,1.694,-1,5
840,4.72605,1.673,-1,5
841,4.72770,1.656,-1,5
842,4.72936,1.656,-1,5
843,4.73102,1.666,-1,5
844,4.73268,1.661,-1,5
845,4.73432,1.634,-1,5
846,4.73594,1.624,-1,5
847,4.73757,1.631,-1,5
848,4.73921,1.633,-1,5
849,4.74083,1.621,-1,5
850,4.74243,1.603,-1,5
851,4.74402,1.594,-1,5
852,4.74563,1.604,-1,5
853,4.74723,1.608,-1,5
854,4.74882,1.584,-1,5
855,4.75039,1.568,-1,5
856,4.75195,1.566,-1,5
857,4.75353,1.577,-1,5
858,4.75511,1.579,-1,5
859,4.75667,1.557,-1,5
860,4.75820,1.534,-1,5
861,4.75974,1.540,-1,5
862,4.76129,1.553,-1,5
863,4.76284,1.548,-1,5
864,4.76437,1.529,-1,5
865,4.76588,1.511,-1,5
866,4.76739,1.509,-1,5
867,4.76891,1.524,-1,5
868,4.77044,1.524,-1,5
869,4.77194,1.501,-1,5
870,4.77342,1.484,-1,5
871,4.77491,1.490,-1,5
872,4.77641,1.497,-1,5
873,4.77790,1.496,-1,5
