cnt,pos,speed,Dir,Force,
1,3.25046,1.502,-1,5
2,3.25197,1.509,-1,5
3,3.25347,1.507,-1,5
4,3.25497,1.497,-1,5
5,3.25647,1.497,-1,5
6,3.25797,1.503,-1,5
7,3.25948,1.504,-1,5
8,3.26098,1.507,-1,5
9,3.26248,1.500,-1,5
10,3.26398,1.497,-1,5
11,3.26548,1.498,-1,5
12,3.26698,1.505,-1,5
13,3.26849,1.498,-1,5
14,3.26998,1.498,-1,5
15,3.27148,1.491,-1,5
16,3.27447,1.501,-1,5
17,3.27598,1.507,-1,5
18,3.27748,1.502,-1,5
19,3.27897,1.491,-1,5
20,3.28047,1.495,-1,5
21,3.28197,1.504,-1,5
22,3.28348,1.509,-1,5
23,3.28499,1.514,-1,5
24,3.28650,1.504,-1,5
25,3.28800,1.502,-1,5
26,3.28951,1.510,-1,5
27,3.29103,1.523,-1,5
28,3.29255,1.519,-1,5
29,3.29407,1.518,-1,5
30,3.29559,1.517,-1,5
31,3.29711,1.521,-1,5
32,3.29864,1.530,-1,5
33,3.30018,1.536,-1,5
34,3.30171,1.529,-1,5
35,3.30324,1.536,-1,5
36,3.30478,1.540,-1,5
37,3.30632,1.543,-1,5
38,3.30787,1.548,-1,5
39,3.30943,1.553,-1,5
40,3.31098,1.557,-1,5
41,3.31254,1.560,-1,5
42,3.31411,1.567,-1,5
43,3.31568,1.573,-1,5
44,3.31726,1.577,-1,5
45,3.31884,1.582,-1,5
46,3.32043,1.584,-1,5
47,3.32202,1.592,-1,5
48,3.32362,1.604,-1,5
49,3.32523,1.607,-1,5
50,3.32683,1.604,-1,5
51,3.32844,1.611,-1,5
52,3.33006,1.620,-1,5
53,3.33170,1.634,-1,5
54,3.33334,1.640,-1,5
55,3.33497,1.631,-1,5
56,3.33661,1.637,-1,5
57,3.33826,1.656,-1,5
58,3.33993,1.669,-1,5
59,3.34161,1.675,-1,5
60,3.34327,1.668,-1,5
61,3.34494,1.670,-1,5
62,3.34664,1.693,-1,5
63,3.34835,1.712,-1,5
64,3.35177,1.708,-1,5
65,3.35177,1.707,-1,5
66,3.35520,1.729,-1,5
67,3.35520,1.750,-1,5
68,3.35870,1.749,-1,5
69,3.35870,1.742,-1,5
70,3.36044,1.742,-1,5
71,3.36397,1.775,-1,5
72,3.36576,1.790,-1,5
73,3.36755,1.788,-1,5
74,3.36933,1.783,-1,5
75,3.37113,1.802,-1,5
76,3.37295,1.819,-1,5
77,3.37478,1.833,-1,5
78,3.37661,1.828,-1,5
79,3.37844,1.833,-1,5
80,3.38030,1.856,-1,5
81,3.38217,1.868,-1,5
82,3.38404,1.872,-1,5
83,3.38592,1.874,-1,5
84,3.38780,1.887,-1,5
85,3.38971,1.908,-1,5
86,3.39162,1.912,-1,5
87,3.39354,1.916,-1,5
88,3.39546,1.926,-1,5
89,3.39740,1.941,-1,5
90,3.39936,1.952,-1,5
91,3.40131,1.957,-1,5
92,3.40328,1.968,-1,5
93,3.40526,1.978,-1,5
94,3.40725,1.989,-1,5
95,3.40925,2.003,-1,5
96,3.41126,2.012,-1,5
97,3.41328,2.017,-1,5
98,3.41530,2.021,-1,5
99,3.41734,2.038,-1,5
100,3.41940,2.056,-1,5
101,3.42146,2.060,-1,5
102,3.42352,2.060,-1,5
103,3.42559,2.069,-1,5
104,3.42768,2.094,-1,5
105,3.42978,2.102,-1,5
106,3.43188,2.102,-1,5
107,3.43399,2.104,-1,5
108,3.43611,2.127,-1,5
109,3.43825,2.140,-1,5
110,3.44040,2.144,-1,5
111,3.44254,2.146,-1,5
112,3.44470,2.155,-1,5
113,3.44687,2.174,-1,5
114,3.44905,2.182,-1,5
115,3.45124,2.187,-1,5
116,3.45343,2.189,-1,5
117,3.45563,2.203,-1,5
118,3.45785,2.215,-1,5
119,3.46007,2.225,-1,5
120,3.46230,2.231,-1,5
121,3.46453,2.231,-1,5
122,3.46678,2.248,-1,5
123,3.46903,2.256,-1,5
124,3.47129,2.255,-1,5
125,3.47355,2.279,-1,5
126,3.47583,2.279,-1,5
127,3.47811,2.286,-1,5
128,3.48269,2.297,-1,5
129,3.48500,2.306,-1,5
130,3.48731,2.307,-1,5
131,3.48962,2.316,-1,5
132,3.49194,2.320,-1,5
133,3.49427,2.332,-1,5
134,3.49660,2.330,-1,5
135,3.49894,2.339,-1,5
136,3.50129,2.342,-1,5
137,3.50363,2.348,-1,5
138,3.50599,2.354,-1,5
139,3.50835,2.359,-1,5
140,3.51070,2.355,-1,5
141,3.51307,2.367,-1,5
142,3.51544,2.370,-1,5
143,3.51781,2.372,-1,5
144,3.52018,2.372,-1,5
145,3.52256,2.381,-1,5
146,3.52495,2.386,-1,5
147,3.52733,2.379,-1,5
148,3.52971,2.384,-1,5
149,3.53210,2.393,-1,5
150,3.53449,2.390,-1,5
151,3.53688,2.390,-1,5
152,3.53928,2.395,-1,5
153,3.54167,2.395,-1,5
154,3.54407,2.395,-1,5
155,3.54647,2.398,-1,5
156,3.54886,2.397,-1,5
157,3.55126,2.396,-1,5
158,3.55366,2.399,-1,5
159,3.55606,2.396,-1,5
160,3.55845,2.392,-1,5
161,3.56085,2.398,-1,5
162,3.56324,2.394,-1,5
163,3.56563,2.389,-1,5
164,3.56802,2.391,-1,5
165,3.57041,2.393,-1,5
166,3.57280,2.388,-1,5
167,3.57518,2.381,-1,5
168,3.57756,2.381,-1,5
169,3.57995,2.384,-1,5
170,3.58232,2.377,-1,5
171,3.58469,2.369,-1,5
172,3.58706,2.371,-1,5
173,3.58943,2.365,-1,5
174,3.59179,2.363,-1,5
175,3.59415,2.354,-1,5
176,3.59650,2.353,-1,5
177,3.59885,2.348,-1,5
178,3.60119,2.347,-1,5
179,3.60353,2.336,-1,5
180,3.60586,2.333,-1,5
181,3.60819,2.328,-1,5
182,3.61052,2.327,-1,5
183,3.61283,2.315,-1,5
184,3.61515,2.313,-1,5
185,3.61746,2.312,-1,5
186,3.61976,2.299,-1,5
187,3.62205,2.294,-1,5
188,3.62434,2.294,-1,5
189,3.62663,2.289,-1,5
190,3.62891,2.278,-1,5
191,3.63119,2.273,-1,5
192,3.63345,2.269,-1,5
193,3.63572,2.264,-1,5
194,3.63797,2.256,-1,5
195,3.64022,2.250,-1,5
196,3.64247,2.242,-1,5
197,3.64471,2.240,-1,5
198,3.64694,2.233,-1,5
199,3.64917,2.227,-1,5
200,3.65138,2.215,-1,5
201,3.65359,2.213,-1,5
202,3.65580,2.206,-1,5
203,3.65800,2.197,-1,5
204,3.66018,2.187,-1,5
205,3.66237,2.185,-1,5
206,3.66455,2.178,-1,5
207,3.66671,2.167,-1,5
208,3.66887,2.158,-1,5
209,3.67102,2.151,-1,5
210,3.67317,2.151,-1,5
211,3.67744,2.128,-1,5
212,3.67956,2.118,-1,5
213,3.67956,2.119,-1,5
214,3.68168,2.119,-1,5
215,3.68379,2.111,-1,5
216,3.68589,2.101,-1,5
217,3.68798,2.090,-1,5
218,3.69007,2.087,-1,5
219,3.69215,2.081,-1,5
220,3.69422,2.075,-1,5
221,3.69629,2.063,-1,5
222,3.69834,2.054,-1,5
223,3.70039,2.051,-1,5
224,3.70244,2.050,-1,5
225,3.70448,2.039,-1,5
226,3.70650,2.022,-1,5
227,3.70852,2.021,-1,5
228,3.71055,2.024,-1,5
229,3.71256,2.014,-1,5
230,3.71456,1.999,-1,5
231,3.71655,1.988,-1,5
232,3.71854,1.994,-1,5
233,3.72053,1.993,-1,5
234,3.72251,1.971,-1,5
235,3.72447,1.961,-1,5
236,3.72643,1.962,-1,5
237,3.72840,1.968,-1,5
238,3.73035,1.952,-1,5
239,3.73228,1.933,-1,5
240,3.73421,1.931,-1,5
241,3.73615,1.936,-1,5
242,3.73808,1.932,-1,5
243,3.73999,1.911,-1,5
244,3.74189,1.903,-1,5
245,3.74380,1.905,-1,5
246,3.74570,1.901,-1,5
247,3.74759,1.894,-1,5
248,3.74947,1.881,-1,5
249,3.75135,1.872,-1,5
250,3.75321,1.869,-1,5
251,3.75508,1.863,-1,5
252,3.75694,1.864,-1,5
253,3.75879,1.848,-1,5
254,3.76062,1.830,-1,5
255,3.76245,1.830,-1,5
256,3.76428,1.833,-1,5
257,3.76611,1.830,-1,5
258,3.76792,1.808,-1,5
259,3.76971,1.799,-1,5
260,3.77151,1.799,-1,5
261,3.77331,1.792,-1,5
262,3.77510,1.792,-1,5
263,3.77687,1.764,-1,5
264,3.77862,1.752,-1,5
265,3.78038,1.765,-1,5
266,3.78390,1.749,-1,5
267,3.78562,1.724,-1,5
268,3.78734,1.721,-1,5
269,3.78908,1.732,-1,5
270,3.79081,1.730,-1,5
271,3.79251,1.703,-1,5
272,3.79420,1.689,-1,5
273,3.79589,1.696,-1,5
274,3.79759,1.699,-1,5
275,3.79928,1.689,-1,5
276,3.80094,1.663,-1,5
277,3.80260,1.658,-1,5
278,3.80427,1.672,-1,5
279,3.80594,1.670,-1,5
280,3.80759,1.646,-1,5
281,3.80922,1.628,-1,5
282,3.81085,1.629,-1,5
283,3.81249,1.647,-1,5
284,3.81413,1.638,-1,5
285,3.81574,1.608,-1,5
286,3.81733,1.596,-1,5
287,3.81894,1.611,-1,5
288,3.82056,1.617,-1,5
289,3.82217,1.604,-1,5
290,3.82375,1.583,-1,5
291,3.82532,1.571,-1,5
292,3.82691,1.589,-1,5
293,3.82850,1.593,-1,5
294,3.83008,1.577,-1,5
295,3.83163,1.557,-1,5
296,3.83319,1.558,-1,5
297,3.83476,1.571,-1,5
298,3.83634,1.572,-1,5
299,3.83789,1.551,-1,5
300,3.83942,1.537,-1,5
301,3.84097,1.547,-1,5
302,3.84254,1.564,-1,5
303,3.84409,1.552,-1,5
304,3.84562,1.533,-1,5
305,3.84715,1.528,-1,5
306,3.84869,1.539,-1,5
307,3.85025,1.560,-1,5
308,3.85179,1.546,-1,5
309,3.85331,1.521,-1,5
310,3.85483,1.520,-1,5
311,3.85638,1.542,-1,5
312,3.85793,1.553,-1,5
313,3.85947,1.544,-1,5
314,3.86100,1.519,-1,5
315,3.86252,1.519,-1,5
316,3.86406,1.542,-1,5
317,3.86562,1.545,-1,5
318,3.86870,1.530,-1,5
319,3.87023,1.531,-1,5
320,3.87178,1.550,-1,5
321,3.87334,1.561,-1,5
322,3.87489,1.555,-1,5
323,3.87643,1.540,-1,5
324,3.87797,1.543,-1,5
325,3.87954,1.570,-1,5
326,3.88112,1.574,-1,5
327,3.88268,1.563,-1,5
328,3.88424,1.556,-1,5
329,3.88580,1.564,-1,5
330,3.88738,1.583,-1,5
331,3.88897,1.590,-1,5
332,3.89055,1.578,-1,5
333,3.89212,1.568,-1,5
334,3.89370,1.582,-1,5
335,3.89530,1.600,-1,5
336,3.89690,1.603,-1,5
337,3.90009,1.586,-1,5
338,3.90168,1.596,-1,5
339,3.90330,1.617,-1,5
340,3.90492,1.616,-1,5
341,3.90652,1.608,-1,5
342,3.90813,1.607,-1,5
343,3.90974,1.613,-1,5
344,3.91137,1.628,-1,5
345,3.91300,1.632,-1,5
346,3.91463,1.623,-1,5
347,3.91625,1.622,-1,5
348,3.91788,1.631,-1,5
349,3.91952,1.638,-1,5
350,3.92116,1.640,-1,5
351,3.92279,1.634,-1,5
352,3.92442,1.631,-1,5
353,3.92606,1.643,-1,5
354,3.92771,1.648,-1,5
355,3.92936,1.644,-1,5
356,3.93100,1.640,-1,5
357,3.93429,1.646,-1,5
358,3.93594,1.655,-1,5
359,3.93759,1.653,-1,5
360,3.93924,1.645,-1,5
361,3.93924,1.645,-1,5
362,3.94088,1.644,-1,5
363,3.94253,1.645,-1,5
364,3.94418,1.656,-1,5
365,3.94584,1.659,-1,5
366,3.94749,1.646,-1,5
367,3.94912,1.635,-1,5
368,3.95076,1.639,-1,5
369,3.95241,1.650,-1,5
370,3.95407,1.657,-1,5
371,3.95571,1.644,-1,5
372,3.95734,1.625,-1,5
373,3.95897,1.629,-1,5
374,3.96061,1.643,-1,5
375,3.96226,1.649,-1,5
376,3.96390,1.638,-1,5
377,3.96551,1.616,-1,5
378,3.96712,1.612,-1,5
379,3.96876,1.633,-1,5
380,3.97039,1.637,-1,5
381,3.97202,1.622,-1,5
382,3.97362,1.606,-1,5
383,3.97522,1.601,-1,5
384,3.97684,1.612,-1,5
385,3.97846,1.619,-1,5
386,3.98006,1.604,-1,5
387,3.98165,1.586,-1,5
388,3.98324,1.589,-1,5
389,3.98483,1.595,-1,5
390,3.98643,1.596,-1,5
391,3.98801,1.581,-1,5
392,3.98957,1.565,-1,5
393,3.99114,1.570,-1,5
394,3.99273,1.571,-1,5
395,3.99585,1.551,-1,5
396,3.99585,1.546,-1,5
397,3.99895,1.551,-1,5
398,3.99895,1.560,-1,5
399,4.00206,1.551,-1,5
400,4.00206,1.551,-1,5
401,4.00510,1.520,-1,5
402,4.00663,1.529,-1,5
403,4.00817,1.538,-1,5
404,4.00970,1.524,-1,5
405,4.01120,1.508,-1,5
406,4.01270,1.493,-1,5
407,4.01420,1.502,-1,5
408,4.01571,1.512,-1,5
409,4.01721,1.504,-1,5
410,4.01870,1.481,-1,5
411,4.02017,1.472,-1,5
412,4.02165,1.479,-1,5
413,4.02313,1.485,-1,5
414,4.02461,1.460,-1,5
415,4.02607,1.460,-1,5
416,4.02752,1.444,-1,5
417,4.02897,1.452,-1,5
418,4.03044,1.468,-1,5
419,4.03189,1.456,-1,5
420,4.03332,1.431,-1,5
421,4.03475,1.422,-1,5
422,4.03617,1.427,-1,5
423,4.03905,1.435,-1,5
424,4.04046,1.411,-1,5
425,4.04185,1.393,-1,5
426,4.04326,1.403,-1,5
427,4.04467,1.419,-1,5
428,4.04608,1.406,-1,5
429,4.04747,1.388,-1,5
430,4.04885,1.380,-1,5
431,4.05023,1.382,-1,5
432,4.05162,1.387,-1,5
433,4.05300,1.386,-1,5
434,4.05438,1.371,-1,5
435,4.05574,1.364,-1,5
436,4.05710,1.364,-1,5
437,4.05847,1.367,-1,5
438,4.05982,1.354,-1,5
439,4.06117,1.345,-1,5
440,4.06251,1.347,-1,5
441,4.06386,1.347,-1,5
442,4.06519,1.334,-1,5
443,4.06652,1.326,-1,5
444,4.06785,1.329,-1,5
445,4.06918,1.328,-1,5
446,4.07050,1.322,-1,5
447,4.07182,1.317,-1,5
448,4.07312,1.305,-1,5
449,4.07442,1.301,-1,5
450,4.07573,1.308,-1,5
451,4.07704,1.312,-1,5
452,4.07834,1.297,-1,5
453,4.07962,1.279,-1,5
454,4.08090,1.281,-1,5
455,4.08219,1.294,-1,5
456,4.08348,1.284,-1,5
457,4.08475,1.271,-1,5
458,4.08602,1.272,-1,5
459,4.08729,1.269,-1,5
460,4.08855,1.263,-1,5
461,4.08981,1.260,-1,5
462,4.09107,1.256,-1,5
463,4.09232,1.251,-1,5
464,4.09357,1.247,-1,5
465,4.09481,1.249,-1,5
466,4.09606,1.244,-1,5
467,4.09729,1.232,-1,5
468,4.09852,1.226,-1,5
469,4.09975,1.235,-1,5
470,4.10099,1.238,-1,5
471,4.10221,1.225,-1,5
472,4.10343,1.213,-1,5
473,4.10464,1.214,-1,5
474,4.10586,1.222,-1,5
475,4.10708,1.216,-1,5
476,4.10829,1.208,-1,5
477,4.10950,1.209,-1,5
478,4.11070,1.205,-1,5
479,4.11190,1.203,-1,5
480,4.11310,1.197,-1,5
481,4.11430,1.198,-1,5
482,4.11550,1.200,-1,5
483,4.11669,1.193,-1,5
484,4.11788,1.189,-1,5
485,4.11907,1.192,-1,5
486,4.12026,1.185,-1,5
487,4.12143,1.177,-1,5
488,4.12262,1.183,-1,5
489,4.12381,1.190,-1,5
490,4.12499,1.182,-1,5
491,4.12616,1.169,-1,5
492,4.12733,1.169,-1,5
493,4.12851,1.179,-1,5
494,4.12969,1.180,-1,5
495,4.13085,1.167,-1,5
496,4.13202,1.166,-1,5
497,4.13319,1.173,-1,5
498,4.13437,1.173,-1,5
499,4.13553,1.163,-1,5
500,4.13669,1.159,-1,5
501,4.13786,1.167,-1,5
502,4.13902,1.169,-1,5
503,4.14019,1.162,-1,5
504,4.14135,1.159,-1,5
505,4.14251,1.163,-1,5
506,4.14367,1.161,-1,5
507,4.14482,1.155,-1,5
508,4.14598,1.154,-1,5
509,4.14714,1.160,-1,5
510,4.14830,1.160,-1,5
511,4.14945,1.151,-1,5
512,4.15060,1.149,-1,5
513,4.15176,1.157,-1,5
514,4.15291,1.154,-1,5
515,4.15405,1.145,-1,5
516,4.15520,1.144,-1,5
517,4.15635,1.154,-1,5
518,4.15751,1.155,-1,5
519,4.15865,1.145,-1,5
520,4.15979,1.137,-1,5
521,4.16094,1.146,-1,5
522,4.16209,1.153,-1,5
523,4.16324,1.148,-1,5
524,4.16437,1.138,-1,5
525,4.16551,1.140,-1,5
526,4.16666,1.147,-1,5
527,4.16780,1.141,-1,5
528,4.16894,1.137,-1,5
529,4.17008,1.139,-1,5
530,4.17123,1.147,-1,5
531,4.17237,1.141,-1,5
532,4.17350,1.133,-1,5
533,4.17463,1.132,-1,5
534,4.17577,1.139,-1,5
535,4.17691,1.137,-1,5
536,4.17804,1.133,-1,5
537,4.17917,1.131,-1,5
538,4.18031,1.137,-1,5
539,4.18145,1.138,-1,5
540,4.18257,1.127,-1,5
541,4.18370,1.127,-1,5
542,4.18484,1.136,-1,5
543,4.18598,1.140,-1,5
544,4.18711,1.130,-1,5
545,4.18824,1.129,-1,5
546,4.18937,1.136,-1,5
547,4.19051,1.139,-1,5
548,4.19164,1.132,-1,5
549,4.19277,1.131,-1,5
550,4.19391,1.140,-1,5
551,4.19506,1.147,-1,5
552,4.19620,1.143,-1,5
553,4.19734,1.135,-1,5
554,4.19848,1.141,-1,5
555,4.19963,1.148,-1,5
556,4.20078,1.149,-1,5
557,4.20192,1.143,-1,5
558,4.20307,1.151,-1,5
559,4.20423,1.160,-1,5
560,4.20539,1.158,-1,5
561,4.20654,1.152,-1,5
562,4.20770,1.160,-1,5
563,4.20887,1.170,-1,5
564,4.21004,1.174,-1,5
565,4.21121,1.170,-1,5
566,4.21239,1.176,-1,5
567,4.21357,1.185,-1,5
568,4.21476,1.188,-1,5
569,4.21595,1.188,-1,5
570,4.21715,1.199,-1,5
571,4.21836,1.209,-1,5
572,4.21957,1.210,-1,5
573,4.22078,1.210,-1,5
574,4.22199,1.214,-1,5
575,4.22322,1.230,-1,5
576,4.22446,1.233,-1,5
577,4.22569,1.239,-1,5
578,4.22694,1.245,-1,5
579,4.22820,1.255,-1,5
580,4.22945,1.254,-1,5
581,4.23071,1.262,-1,5
582,4.23198,1.271,-1,5
583,4.23326,1.282,-1,5
584,4.23455,1.287,-1,5
585,4.23585,1.294,-1,5
586,4.23715,1.301,-1,5
587,4.23845,1.304,-1,5
588,4.23976,1.308,-1,5
589,4.24108,1.324,-1,5
590,4.24242,1.339,-1,5
591,4.24376,1.339,-1,5
592,4.24510,1.339,-1,5
593,4.24644,1.346,-1,5
594,4.24780,1.361,-1,5
595,4.24918,1.372,-1,5
596,4.25056,1.380,-1,5
597,4.25194,1.380,-1,5
598,4.25331,1.377,-1,5
599,4.25470,1.389,-1,5
600,4.25611,1.411,-1,5
601,4.25753,1.415,-1,5
602,4.25894,1.413,-1,5
603,4.26035,1.408,-1,5
604,4.26177,1.419,-1,5
605,4.26320,1.432,-1,5
606,4.26465,1.446,-1,5
607,4.26609,1.449,-1,5
608,4.26753,1.438,-1,5
609,4.26897,1.440,-1,5
610,4.27043,1.455,-1,5
611,4.27189,1.465,-1,5
612,4.27336,1.469,-1,5
613,4.27483,1.471,-1,5
614,4.27630,1.462,-1,5
615,4.27776,1.462,-1,5
616,4.27924,1.480,-1,5
617,4.28073,1.488,-1,5
618,4.28221,1.484,-1,5
619,4.28369,1.480,-1,5
620,4.28517,1.478,-1,5
621,4.28665,1.482,-1,5
622,4.28814,1.494,-1,5
623,4.28964,1.495,-1,5
624,4.29113,1.490,-1,5
625,4.29261,1.481,-1,5
626,4.29410,1.490,-1,5
627,4.29560,1.495,-1,5
628,4.29709,1.494,-1,5
629,4.29858,1.494,-1,5
630,4.30007,1.485,-1,5
631,4.30156,1.488,-1,5
632,4.30306,1.498,-1,5
633,4.30455,1.494,-1,5
634,4.30604,1.490,-1,5
635,4.30752,1.485,-1,5
636,4.30901,1.489,-1,5
637,4.31050,1.490,-1,5
638,4.31199,1.489,-1,5
639,4.31348,1.489,-1,5
640,4.31496,1.479,-1,5
641,4.31644,1.482,-1,5
642,4.31793,1.485,-1,5
643,4.31941,1.480,-1,5
644,4.32089,1.481,-1,5
645,4.32237,1.482,-1,5
646,4.32384,1.472,-1,5
647,4.32531,1.467,-1,5
648,4.32678,1.474,-1,5
649,4.32826,1.477,-1,5
650,4.32973,1.473,-1,5
651,4.33120,1.467,-1,5
652,4.33266,1.457,-1,5
653,4.33412,1.459,-1,5
654,4.33559,1.473,-1,5
655,4.33706,1.470,-1,5
656,4.33851,1.453,-1,5
657,4.33996,1.448,-1,5
658,4.34142,1.456,-1,5
659,4.34288,1.460,-1,5
660,4.34433,1.455,-1,5
661,4.34578,1.448,-1,5
662,4.34722,1.441,-1,5
663,4.34866,1.444,-1,5
664,4.35011,1.452,-1,5
665,4.35156,1.447,-1,5
666,4.35300,1.435,-1,5
667,4.35444,1.439,-1,5
668,4.35588,1.443,-1,5
669,4.35732,1.438,-1,5
670,4.35875,1.439,-1,5
671,4.36019,1.439,-1,5
672,4.36163,1.437,-1,5
673,4.36306,1.433,-1,5
674,4.36450,1.433,-1,5
675,4.36736,1.435,-1,5
676,4.36881,1.442,-1,5
677,4.37024,1.436,-1,5
678,4.37167,1.426,-1,5
679,4.37310,1.429,-1,5
680,4.37454,1.442,-1,5
681,4.37598,1.443,-1,5
682,4.37742,1.437,-1,5
683,4.37885,1.434,-1,5
684,4.38029,1.434,-1,5
685,4.38173,1.441,-1,5
686,4.38318,1.452,-1,5
687,4.38463,1.441,-1,5
688,4.38607,1.441,-1,5
689,4.38751,1.446,-1,5
690,4.38897,1.454,-1,5
691,4.39042,1.457,-1,5
692,4.39189,1.462,-1,5
693,4.39335,1.463,-1,5
694,4.39481,1.459,-1,5
695,4.39775,1.475,-1,5
696,4.39922,1.478,-1,5
697,4.39922,1.478,-1,5
698,4.40070,1.478,-1,5
699,4.40219,1.484,-1,5
700,4.40367,1.480,-1,5
701,4.40516,1.489,-1,5
702,4.40666,1.502,-1,5
703,4.40817,1.508,-1,5
704,4.40967,1.502,-1,5
705,4.41117,1.502,-1,5
706,4.41268,1.515,-1,5
707,4.41421,1.527,-1,5
708,4.41575,1.538,-1,5
709,4.41728,1.533,-1,5
710,4.41881,1.528,-1,5
711,4.42035,1.541,-1,5
712,4.42191,1.560,-1,5
713,4.42348,1.567,-1,5
714,4.42504,1.564,-1,5
715,4.42661,1.564,-1,5
716,4.42818,1.574,-1,5
717,4.42977,1.591,-1,5
718,4.43137,1.600,-1,5
719,4.43297,1.596,-1,5
720,4.43457,1.600,-1,5
721,4.43618,1.612,-1,5
722,4.43780,1.622,-1,5
723,4.43943,1.633,-1,5
724,4.44107,1.636,-1,5
725,4.44271,1.637,-1,5
726,4.44436,1.648,-1,5
727,4.44602,1.663,-1,5
728,4.44769,1.670,-1,5
729,4.44937,1.675,-1,5
730,4.45104,1.674,-1,5
731,4.45272,1.686,-1,5
732,4.45443,1.709,-1,5
733,4.45785,1.706,-1,5
734,4.45956,1.713,-1,5
735,4.46129,1.731,-1,5
736,4.46304,1.751,-1,5
737,4.46480,1.751,-1,5
738,4.46653,1.739,-1,5
739,4.46828,1.751,-1,5
740,4.47006,1.778,-1,5
741,4.47185,1.792,-1,5
742,4.47364,1.786,-1,5
743,4.47541,1.775,-1,5
744,4.47721,1.793,-1,5
745,4.47903,1.822,-1,5
746,4.48086,1.829,-1,5
747,4.48268,1.817,-1,5
748,4.48449,1.814,-1,5
749,4.48632,1.835,-1,5
750,4.48818,1.859,-1,5
751,4.49004,1.860,-1,5
752,4.49189,1.852,-1,5
753,4.49374,1.850,-1,5
754,4.49562,1.874,-1,5
755,4.49751,1.897,-1,5
756,4.49940,1.890,-1,5
757,4.50129,1.884,-1,5
758,4.50318,1.891,-1,5
759,4.50509,1.910,-1,5
760,4.50701,1.924,-1,5
761,4.50893,1.918,-1,5
762,4.51085,1.919,-1,5
763,4.51277,1.942,-1,5
764,4.51472,1.942,-1,5
765,4.51667,1.949,-1,5
766,4.51861,1.944,-1,5
767,4.52056,1.950,-1,5
768,4.52252,1.958,-1,5
769,4.52449,1.969,-1,5
770,4.52646,1.973,-1,5
771,4.52843,1.973,-1,5
772,4.53040,1.977,-1,5
773,4.53239,1.984,-1,5
774,4.53438,1.990,-1,5
775,4.53637,1.995,-1,5
776,4.53837,1.997,-1,5
777,4.54037,2.000,-1,5
778,4.54439,2.012,-1,5
779,4.54640,2.008,-1,5
780,4.54841,2.016,-1,5
781,4.55043,2.021,-1,5
782,4.55245,2.022,-1,5
783,4.55447,2.021,-1,5
784,4.55650,2.025,-1,5
785,4.55854,2.038,-1,5
786,4.56057,2.034,-1,5
787,4.56260,2.030,-1,5
788,4.56463,2.028,-1,5
789,4.56668,2.047,-1,5
790,4.56873,2.050,-1,5
791,4.57076,2.036,-1,5
792,4.57279,2.033,-1,5
793,4.57484,2.045,-1,5
794,4.57690,2.058,-1,5
795,4.57894,2.047,-1,5
796,4.58098,2.036,-1,5
797,4.58302,2.043,-1,5
798,4.58508,2.055,-1,5
799,4.58713,2.057,-1,5
800,4.58918,2.044,-1,5
801,4.59122,2.042,-1,5
802,4.59327,2.049,-1,5
803,4.59532,2.055,-1,5
804,4.59738,2.057,-1,5
805,4.59943,2.043,-1,5
806,4.60147,2.041,-1,5
807,4.60351,2.048,-1,5
808,4.60558,2.062,-1,5
809,4.60763,2.052,-1,5
810,4.60966,2.035,-1,5
811,4.61170,2.036,-1,5
812,4.61376,2.056,-1,5
813,4.61581,2.059,-1,5
814,4.61785,2.036,-1,5
815,4.61988,2.028,-1,5
816,4.62192,2.043,-1,5
817,4.62602,2.039,-1,5
818,4.62602,2.039,-1,5
819,4.63007,2.025,-1,5
820,4.63007,2.041,-1,5
821,4.63211,2.041,-1,5
822,4.63617,2.023,-1,5
823,4.63819,2.017,-1,5
824,4.64021,2.021,-1,5
825,4.64224,2.027,-1,5
826,4.64426,2.024,-1,5
827,4.64627,2.011,-1,5
828,4.64827,2.002,-1,5
829,4.65028,2.005,-1,5
830,4.65229,2.017,-1,5
831,4.65430,2.008,-1,5
832,4.65629,1.987,-1,5
833,4.65827,1.979,-1,5
834,4.66026,1.992,-1,5
835,4.66226,2.001,-1,5
836,4.66424,1.979,-1,5
837,4.66620,1.960,-1,5
838,4.66816,1.962,-1,5
839,4.67014,1.974,-1,5
840,4.67211,1.972,-1,5
841,4.67406,1.949,-1,5
842,4.67599,1.938,-1,5
843,4.67794,1.942,-1,5
844,4.67988,1.948,-1,5
845,4.68182,1.937,-1,5
846,4.68374,1.919,-1,5
847,4.68565,1.912,-1,5
848,4.68756,1.912,-1,5
849,4.68948,1.916,-1,5
850,4.69138,1.905,-1,5
851,4.69327,1.886,-1,5
852,4.69515,1.877,-1,5
853,4.69702,1.877,-1,5
854,4.69891,1.887,-1,5
855,4.70078,1.871,-1,5
856,4.70263,1.845,-1,5
857,4.70446,1.836,-1,5
858,4.70631,1.847,-1,5
859,4.70816,1.853,-1,5
860,4.70999,1.832,-1,5
861,4.71180,1.801,-1,5
862,4.71360,1.801,-1,5
863,4.71541,1.810,-1,5
864,4.71722,1.811,-1,5
865,4.71900,1.786,-1,5
866,4.72077,1.763,-1,5
867,4.72253,1.762,-1,5
868,4.72430,1.771,-1,5
869,4.72606,1.764,-1,5
870,4.72781,1.743,-1,5
871,4.72953,1.724,-1,5
872,4.73126,1.725,-1,5
873,4.73298,1.729,-1,5
