cnt,pos,speed,Dir,Force,
1,3.46440,1.003,-1,4
2,3.46542,1.024,-1,4
3,3.46644,1.023,-1,4
4,3.46745,1.009,-1,4
5,3.46847,1.014,-1,4
6,3.46951,1.041,-1,4
7,3.47057,1.063,-1,4
8,3.47164,1.065,-1,4
9,3.47269,1.052,-1,4
10,3.47374,1.053,-1,4
11,3.47482,1.081,-1,4
12,3.47592,1.101,-1,4
13,3.47702,1.098,-1,4
14,3.47811,1.089,-1,4
15,3.47921,1.097,-1,4
16,3.48033,1.122,-1,4
17,3.48147,1.136,-1,4
18,3.48260,1.129,-1,4
19,3.48372,1.126,-1,4
20,3.48486,1.140,-1,4
21,3.48602,1.157,-1,4
22,3.48719,1.168,-1,4
23,3.48835,1.166,-1,4
24,3.48952,1.167,-1,4
25,3.49070,1.176,-1,4
26,3.49188,1.188,-1,4
27,3.49308,1.199,-1,4
28,3.49429,1.209,-1,4
29,3.49550,1.207,-1,4
30,3.49671,1.208,-1,4
31,3.49793,1.220,-1,4
32,3.49916,1.234,-1,4
33,3.50040,1.241,-1,4
34,3.50164,1.235,-1,4
35,3.50289,1.248,-1,4
36,3.50415,1.260,-1,4
37,3.50542,1.270,-1,4
38,3.50668,1.264,-1,4
39,3.50795,1.269,-1,4
40,3.50923,1.281,-1,4
41,3.51052,1.293,-1,4
42,3.51182,1.300,-1,4
43,3.51313,1.303,-1,4
44,3.51443,1.301,-1,4
45,3.51573,1.305,-1,4
46,3.51705,1.319,-1,4
47,3.51839,1.336,-1,4
48,3.51972,1.335,-1,4
49,3.52105,1.331,-1,4
50,3.52239,1.337,-1,4
51,3.52374,1.348,-1,4
52,3.52509,1.357,-1,4
53,3.52646,1.363,-1,4
54,3.52783,1.369,-1,4
55,3.52919,1.366,-1,4
56,3.53056,1.370,-1,4
57,3.53195,1.382,-1,4
58,3.53334,1.392,-1,4
59,3.53473,1.390,-1,4
60,3.53612,1.394,-1,4
61,3.53752,1.399,-1,4
62,3.53893,1.405,-1,4
63,3.54034,1.411,-1,4
64,3.54175,1.418,-1,4
65,3.54318,1.424,-1,4
66,3.54460,1.427,-1,4
67,3.54604,1.432,-1,4
68,3.54747,1.434,-1,4
69,3.54891,1.442,-1,4
70,3.55037,1.452,-1,4
71,3.55183,1.461,-1,4
72,3.55329,1.459,-1,4
73,3.55475,1.461,-1,4
74,3.55622,1.472,-1,4
75,3.55770,1.480,-1,4
76,3.55919,1.492,-1,4
77,3.56068,1.494,-1,4
78,3.56218,1.494,-1,4
79,3.56368,1.498,-1,4
80,3.56519,1.511,-1,4
81,3.56671,1.526,-1,4
82,3.56824,1.527,-1,4
83,3.56977,1.528,-1,4
84,3.57130,1.533,-1,4
85,3.57284,1.542,-1,4
86,3.57440,1.561,-1,4
87,3.57597,1.568,-1,4
88,3.57754,1.565,-1,4
89,3.57911,1.568,-1,4
90,3.58069,1.581,-1,4
91,3.58228,1.596,-1,4
92,3.58389,1.610,-1,4
93,3.58550,1.607,-1,4
94,3.58710,1.603,-1,4
95,3.58872,1.620,-1,4
96,3.59036,1.641,-1,4
97,3.59201,1.651,-1,4
98,3.59366,1.647,-1,4
99,3.59530,1.642,-1,4
100,3.59696,1.659,-1,4
101,3.59865,1.689,-1,4
102,3.60035,1.696,-1,4
103,3.60203,1.685,-1,4
104,3.60371,1.681,-1,4
105,3.60542,1.704,-1,4
106,3.60715,1.736,-1,4
107,3.60890,1.745,-1,4
108,3.61062,1.723,-1,4
109,3.61235,1.723,-1,4
110,3.61410,1.754,-1,4
111,3.61588,1.785,-1,4
112,3.61767,1.787,-1,4
113,3.61944,1.766,-1,4
114,3.62120,1.767,-1,4
115,3.62301,1.805,-1,4
116,3.62484,1.831,-1,4
117,3.62667,1.827,-1,4
118,3.62848,1.808,-1,4
119,3.63029,1.817,-1,4
120,3.63215,1.857,-1,4
121,3.63402,1.874,-1,4
122,3.63589,1.865,-1,4
123,3.63774,1.855,-1,4
124,3.63962,1.872,-1,4
125,3.64152,1.905,-1,4
126,3.64343,1.912,-1,4
127,3.64534,1.908,-1,4
128,3.64725,1.907,-1,4
129,3.64917,1.923,-1,4
130,3.65111,1.945,-1,4
131,3.65307,1.956,-1,4
132,3.65503,1.957,-1,4
133,3.65699,1.958,-1,4
134,3.65895,1.966,-1,4
135,3.66094,1.990,-1,4
136,3.66295,2.003,-1,4
137,3.66495,2.005,-1,4
138,3.66695,2.000,-1,4
139,3.66896,2.013,-1,4
140,3.67100,2.040,-1,4
141,3.67305,2.050,-1,4
142,3.67510,2.045,-1,4
143,3.67714,2.044,-1,4
144,3.67920,2.060,-1,4
145,3.68128,2.081,-1,4
146,3.68337,2.088,-1,4
147,3.68546,2.087,-1,4
148,3.68755,2.090,-1,4
149,3.68965,2.101,-1,4
150,3.69177,2.119,-1,4
151,3.69390,2.130,-1,4
152,3.69603,2.126,-1,4
153,3.69815,2.126,-1,4
154,3.70029,2.136,-1,4
155,3.70244,2.155,-1,4
156,3.70461,2.163,-1,4
157,3.70677,2.161,-1,4
158,3.70892,2.157,-1,4
159,3.71109,2.169,-1,4
160,3.71328,2.187,-1,4
161,3.71547,2.192,-1,4
162,3.71766,2.186,-1,4
163,3.71984,2.186,-1,4
164,3.72204,2.198,-1,4
165,3.72425,2.210,-1,4
166,3.72647,2.215,-1,4
167,3.72868,2.210,-1,4
168,3.73089,2.212,-1,4
169,3.73311,2.220,-1,4
170,3.73534,2.229,-1,4
171,3.73757,2.227,-1,4
172,3.73979,2.228,-1,4
173,3.74202,2.231,-1,4
174,3.74426,2.235,-1,4
175,3.74649,2.235,-1,4
176,3.74874,2.242,-1,4
177,3.75098,2.242,-1,4
178,3.75322,2.242,-1,4
179,3.75546,2.239,-1,4
180,3.75771,2.246,-1,4
181,3.75996,2.253,-1,4
182,3.76220,2.246,-1,4
183,3.76445,2.241,-1,4
184,3.76669,2.247,-1,4
185,3.76895,2.254,-1,4
186,3.77120,2.250,-1,4
187,3.77344,2.245,-1,4
188,3.77569,2.248,-1,4
189,3.77793,2.248,-1,4
190,3.78018,2.247,-1,4
191,3.78243,2.247,-1,4
192,3.78467,2.240,-1,4
193,3.78691,2.241,-1,4
194,3.78916,2.246,-1,4
195,3.79140,2.244,-1,4
196,3.79363,2.233,-1,4
197,3.79587,2.232,-1,4
198,3.79811,2.241,-1,4
199,3.80034,2.237,-1,4
200,3.80257,2.226,-1,4
201,3.80479,2.224,-1,4
202,3.80702,2.227,-1,4
203,3.80925,2.228,-1,4
204,3.81147,2.221,-1,4
205,3.81368,2.214,-1,4
206,3.81590,2.216,-1,4
207,3.81811,2.214,-1,4
208,3.82032,2.212,-1,4
209,3.82253,2.205,-1,4
210,3.82473,2.202,-1,4
211,3.82693,2.200,-1,4
212,3.82913,2.200,-1,4
213,3.83133,2.193,-1,4
214,3.83351,2.188,-1,4
215,3.83570,2.188,-1,4
216,3.83789,2.188,-1,4
217,3.84007,2.182,-1,4
218,3.84224,2.173,-1,4
219,3.84442,2.177,-1,4
220,3.84660,2.174,-1,4
221,3.84876,2.166,-1,4
222,3.85092,2.157,-1,4
223,3.85308,2.164,-1,4
224,3.85524,2.160,-1,4
225,3.85739,2.151,-1,4
226,3.85954,2.145,-1,4
227,3.86168,2.145,-1,4
228,3.86383,2.144,-1,4
229,3.86597,2.138,-1,4
230,3.86810,2.133,-1,4
231,3.87023,2.129,-1,4
232,3.87236,2.127,-1,4
233,3.87448,2.125,-1,4
234,3.87660,2.119,-1,4
235,3.87871,2.111,-1,4
236,3.88082,2.109,-1,4
237,3.88293,2.114,-1,4
238,3.88504,2.106,-1,4
239,3.88713,2.093,-1,4
240,3.88922,2.092,-1,4
241,3.89132,2.099,-1,4
242,3.89342,2.092,-1,4
243,3.89550,2.080,-1,4
244,3.89757,2.075,-1,4
245,3.89965,2.081,-1,4
246,3.90173,2.079,-1,4
247,3.90380,2.069,-1,4
248,3.90586,2.061,-1,4
249,3.90792,2.061,-1,4
250,3.90998,2.064,-1,4
251,3.91204,2.057,-1,4
252,3.91409,2.049,-1,4
253,3.91613,2.044,-1,4
254,3.91818,2.045,-1,4
255,3.92022,2.044,-1,4
256,3.92226,2.041,-1,4
257,3.92430,2.034,-1,4
258,3.92632,2.025,-1,4
259,3.92835,2.030,-1,4
260,3.93038,2.030,-1,4
261,3.93241,2.025,-1,4
262,3.93442,2.016,-1,4
263,3.93644,2.011,-1,4
264,3.93845,2.016,-1,4
265,3.94047,2.019,-1,4
266,3.94248,2.008,-1,4
267,3.94448,1.998,-1,4
268,3.94648,2.007,-1,4
269,3.94848,2.007,-1,4
270,3.95048,1.994,-1,4
271,3.95248,1.994,-1,4
272,3.95447,1.987,-1,4
273,3.95646,1.991,-1,4
274,3.95845,1.989,-1,4
275,3.96043,1.987,-1,4
276,3.96241,1.982,-1,4
277,3.96636,1.975,-1,4
278,3.96834,1.977,-1,4
279,3.97031,1.976,-1,4
280,3.97228,1.967,-1,4
281,3.97424,1.963,-1,4
282,3.97621,1.963,-1,4
283,3.97817,1.963,-1,4
284,3.98013,1.960,-1,4
285,3.98208,1.950,-1,4
286,3.98403,1.950,-1,4
287,3.98598,1.954,-1,4
288,3.98793,1.947,-1,4
289,3.98987,1.938,-1,4
290,3.99180,1.933,-1,4
291,3.99374,1.939,-1,4
292,3.99568,1.940,-1,4
293,3.99761,1.930,-1,4
294,3.99954,1.925,-1,4
295,4.00146,1.923,-1,4
296,4.00339,1.928,-1,4
297,4.00531,1.925,-1,4
298,4.00723,1.918,-1,4
299,4.00914,1.915,-1,4
300,4.01106,1.915,-1,4
301,4.01298,1.916,-1,4
302,4.01489,1.915,-1,4
303,4.01680,1.910,-1,4
304,4.01871,1.907,-1,4
305,4.02061,1.900,-1,4
306,4.02252,1.908,-1,4
307,4.02442,1.909,-1,4
308,4.02633,1.902,-1,4
309,4.02822,1.895,-1,4
310,4.03011,1.890,-1,4
311,4.03201,1.903,-1,4
312,4.03392,1.904,-1,4
313,4.03582,1.897,-1,4
314,4.03770,1.885,-1,4
315,4.03959,1.889,-1,4
316,4.04149,1.901,-1,4
317,4.04528,1.893,-1,4
318,4.04528,1.893,-1,4
319,4.04717,1.886,-1,4
320,4.04906,1.892,-1,4
321,4.05096,1.901,-1,4
322,4.05286,1.901,-1,4
323,4.05476,1.892,-1,4
324,4.05665,1.891,-1,4
325,4.05854,1.897,-1,4
326,4.06045,1.905,-1,4
327,4.06235,1.901,-1,4
328,4.06425,1.901,-1,4
329,4.06615,1.898,-1,4
330,4.06805,1.901,-1,4
331,4.06996,1.913,-1,4
332,4.07188,1.916,-1,4
333,4.07379,1.908,-1,4
334,4.07569,1.902,-1,4
335,4.07760,1.912,-1,4
336,4.07953,1.929,-1,4
337,4.08146,1.927,-1,4
338,4.08337,1.915,-1,4
339,4.08529,1.914,-1,4
340,4.08722,1.930,-1,4
341,4.08916,1.943,-1,4
342,4.09109,1.932,-1,4
343,4.09302,1.925,-1,4
344,4.09495,1.935,-1,4
345,4.09690,1.949,-1,4
346,4.09885,1.951,-1,4
347,4.10079,1.940,-1,4
348,4.10274,1.943,-1,4
349,4.10469,1.952,-1,4
350,4.10665,1.962,-1,4
351,4.10861,1.962,-1,4
352,4.11057,1.958,-1,4
353,4.11253,1.962,-1,4
354,4.11450,1.964,-1,4
355,4.11647,1.975,-1,4
356,4.11845,1.982,-1,4
357,4.12043,1.975,-1,4
358,4.12240,1.972,-1,4
359,4.12438,1.981,-1,4
360,4.12638,2.001,-1,4
361,4.12838,1.997,-1,4
362,4.13037,1.987,-1,4
363,4.13236,1.989,-1,4
364,4.13436,2.006,-1,4
365,4.13638,2.020,-1,4
366,4.13839,2.011,-1,4
367,4.14040,2.007,-1,4
368,4.14241,2.015,-1,4
369,4.14444,2.029,-1,4
370,4.14648,2.038,-1,4
371,4.14851,2.031,-1,4
372,4.15055,2.033,-1,4
373,4.15259,2.043,-1,4
374,4.15464,2.055,-1,4
375,4.15671,2.062,-1,4
376,4.15877,2.059,-1,4
377,4.16082,2.058,-1,4
378,4.16289,2.067,-1,4
379,4.16498,2.089,-1,4
380,4.16707,2.091,-1,4
381,4.16916,2.087,-1,4
382,4.17124,2.086,-1,4
383,4.17335,2.110,-1,4
384,4.17548,2.124,-1,4
385,4.17760,2.121,-1,4
386,4.17971,2.116,-1,4
387,4.18184,2.129,-1,4
388,4.18399,2.151,-1,4
389,4.18615,2.157,-1,4
390,4.18831,2.155,-1,4
391,4.19046,2.157,-1,4
392,4.19264,2.176,-1,4
393,4.19483,2.189,-1,4
394,4.19702,2.197,-1,4
395,4.19922,2.195,-1,4
396,4.20142,2.204,-1,4
397,4.20364,2.221,-1,4
398,4.20588,2.236,-1,4
399,4.20812,2.237,-1,4
400,4.21036,2.241,-1,4
401,4.21261,2.255,-1,4
402,4.21488,2.268,-1,4
403,4.21716,2.279,-1,4
404,4.21945,2.284,-1,4
405,4.22174,2.295,-1,4
406,4.22405,2.307,-1,4
407,4.22636,2.317,-1,4
408,4.22869,2.327,-1,4
409,4.23103,2.343,-1,4
410,4.23338,2.344,-1,4
411,4.23574,2.360,-1,4
412,4.23811,2.369,-1,4
413,4.24049,2.382,-1,4
414,4.24288,2.388,-1,4
415,4.24528,2.399,-1,4
416,4.24768,2.408,-1,4
417,4.25011,2.424,-1,4
418,4.25254,2.434,-1,4
419,4.25498,2.442,-1,4
420,4.25743,2.448,-1,4
421,4.25989,2.463,-1,4
422,4.26237,2.478,-1,4
423,4.26486,2.485,-1,4
424,4.26735,2.494,-1,4
425,4.26986,2.505,-1,4
426,4.27238,2.518,-1,4
427,4.27490,2.526,-1,4
428,4.27744,2.543,-1,4
429,4.27999,2.549,-1,4
430,4.28255,2.560,-1,4
431,4.28513,2.572,-1,4
432,4.28771,2.584,-1,4
433,4.29030,2.594,-1,4
434,4.29291,2.607,-1,4
435,4.29552,2.613,-1,4
436,4.29815,2.626,-1,4
437,4.30079,2.646,-1,4
438,4.30344,2.658,-1,4
439,4.30609,2.667,-1,4
440,4.30876,2.677,-1,4
441,4.31144,2.677,-1,4
442,4.31412,2.687,-1,4
443,4.31682,2.699,-1,4
444,4.31953,2.705,-1,4
445,4.32497,2.727,-1,4
446,4.32770,2.736,-1,4
447,4.33045,2.746,-1,4
448,4.33320,2.753,-1,4
449,4.33596,2.760,-1,4
450,4.33873,2.771,-1,4
451,4.34151,2.780,-1,4
452,4.34431,2.791,-1,4
453,4.34710,2.796,-1,4
454,4.34991,2.803,-1,4
455,4.35272,2.814,-1,4
456,4.35554,2.826,-1,4
457,4.35838,2.832,-1,4
458,4.36121,2.837,-1,4
459,4.36406,2.851,-1,4
460,4.36692,2.855,-1,4
461,4.36978,2.862,-1,4
462,4.37265,2.873,-1,4
463,4.37553,2.877,-1,4
464,4.37842,2.885,-1,4
465,4.38421,2.899,-1,4
466,4.38711,2.907,-1,4
467,4.39002,2.910,-1,4
468,4.39294,2.915,-1,4
469,4.39587,2.929,-1,4
470,4.39880,2.929,-1,4
471,4.40173,2.934,-1,4
472,4.40467,2.939,-1,4
473,4.40761,2.944,-1,4
474,4.41057,2.954,-1,4
475,4.41352,2.956,-1,4
476,4.41648,2.955,-1,4
477,4.41944,2.962,-1,4
478,4.42241,2.971,-1,4
479,4.42538,2.972,-1,4
480,4.42836,2.975,-1,4
481,4.43133,2.975,-1,4
482,4.43432,2.983,-1,4
483,4.43730,2.985,-1,4
484,4.44029,2.988,-1,4
485,4.44328,2.991,-1,4
486,4.44627,2.987,-1,4
487,4.44926,2.994,-1,4
488,4.45226,3.000,-1,4
489,4.45525,2.994,-1,4
490,4.45825,2.999,-1,4
491,4.46125,2.999,-1,4
492,4.46425,2.998,-1,4
493,4.46725,3.000,-1,4
494,4.47025,2.999,-1,4
495,4.47325,2.999,-1,4
496,4.47625,2.997,-1,4
497,4.47925,2.997,-1,4
498,4.48224,2.997,-1,4
499,4.48524,2.991,-1,4
500,4.48823,2.991,-1,4
501,4.49122,2.993,-1,4
502,4.49421,2.993,-1,4
503,4.49720,2.989,-1,4
504,4.50317,2.984,-1,4
505,4.50615,2.980,-1,4
506,4.50913,2.981,-1,4
507,4.51210,2.974,-1,4
508,4.51507,2.971,-1,4
509,4.51804,2.966,-1,4
510,4.52101,2.966,-1,4
511,4.52397,2.961,-1,4
512,4.52692,2.956,-1,4
513,4.52987,2.947,-1,4
514,4.53282,2.946,-1,4
515,4.53576,2.943,-1,4
516,4.53870,2.938,-1,4
517,4.54163,2.930,-1,4
518,4.54455,2.920,-1,4
519,4.54747,2.918,-1,4
520,4.55038,2.912,-1,4
521,4.55329,2.911,-1,4
522,4.55619,2.901,-1,4
523,4.55908,2.893,-1,4
524,4.56197,2.887,-1,4
525,4.56486,2.886,-1,4
526,4.56773,2.875,-1,4
527,4.57060,2.872,-1,4
528,4.57346,2.860,-1,4
529,4.57632,2.854,-1,4
530,4.57917,2.851,-1,4
531,4.58201,2.845,-1,4
532,4.58484,2.831,-1,4
533,4.58767,2.824,-1,4
534,4.59049,2.820,-1,4
535,4.59330,2.816,-1,4
536,4.59611,2.801,-1,4
537,4.59890,2.795,-1,4
538,4.60169,2.786,-1,4
539,4.60446,2.777,-1,4
540,4.60724,2.774,-1,4
541,4.61000,2.765,-1,4
542,4.61276,2.754,-1,4
543,4.61550,2.746,-1,4
544,4.61824,2.740,-1,4
545,4.62097,2.731,-1,4
546,4.62370,2.724,-1,4
547,4.62641,2.715,-1,4
548,4.62911,2.703,-1,4
549,4.63181,2.698,-1,4
550,4.63450,2.691,-1,4
551,4.63719,2.683,-1,4
552,4.63986,2.662,-1,4
553,4.64518,2.659,-1,4
554,4.64783,2.653,-1,4
555,4.65048,2.642,-1,4
556,4.65311,2.631,-1,4
557,4.65573,2.626,-1,4
558,4.65835,2.620,-1,4
559,4.66097,2.613,-1,4
560,4.66357,2.604,-1,4
561,4.66617,2.594,-1,4
562,4.66875,2.587,-1,4
563,4.67133,2.581,-1,4
564,4.67391,2.577,-1,4
565,4.67648,2.567,-1,4
566,4.67904,2.559,-1,4
567,4.68158,2.549,-1,4
568,4.68413,2.547,-1,4
569,4.68667,2.542,-1,4
570,4.68920,2.529,-1,4
571,4.69173,2.522,-1,4
572,4.69425,2.521,-1,4
573,4.69676,2.515,-1,4
574,4.69927,2.504,-1,4
575,4.70177,2.501,-1,4
576,4.70426,2.493,-1,4
577,4.70675,2.489,-1,4
578,4.70923,2.485,-1,4
579,4.71171,2.479,-1,4
580,4.71419,2.472,-1,4
581,4.71665,2.469,-1,4
582,4.71912,2.464,-1,4
583,4.72158,2.461,-1,4
584,4.72404,2.459,-1,4
585,4.72649,2.451,-1,4
586,4.72894,2.448,-1,4
587,4.73139,2.449,-1,4
588,4.73383,2.448,-1,4
589,4.73627,2.437,-1,4
590,4.73871,2.437,-1,4
591,4.74115,2.438,-1,4
592,4.74358,2.437,-1,4
593,4.74845,2.434,-1,4
594,4.75088,2.430,-1,4
595,4.75331,2.430,-1,4
596,4.75574,2.428,-1,4
597,4.75817,2.430,-1,4
598,4.76059,2.428,-1,4
599,4.76302,2.429,-1,4
600,4.76545,2.427,-1,4
601,4.76788,2.430,-1,4
602,4.77031,2.432,-1,4
603,4.77274,2.431,-1,4
604,4.77518,2.431,-1,4
605,4.77761,2.436,-1,4
606,4.78005,2.440,-1,4
607,4.78249,2.439,-1,4
608,4.78493,2.440,-1,4
609,4.78738,2.448,-1,4
610,4.78983,2.451,-1,4
611,4.79228,2.450,-1,4
612,4.79473,2.453,-1,4
613,4.79719,2.459,-1,4
614,4.79965,2.465,-1,4
615,4.80212,2.468,-1,4
616,4.80459,2.470,-1,4
617,4.80707,2.473,-1,4
618,4.80954,2.477,-1,4
619,4.81202,2.481,-1,4
620,4.81451,2.486,-1,4
621,4.81700,2.491,-1,4
622,4.81950,2.497,-1,4
623,4.82200,2.498,-1,4
624,4.82450,2.505,-1,4
625,4.82701,2.511,-1,4
626,4.82953,2.515,-1,4
627,4.83204,2.518,-1,4
628,4.83457,2.527,-1,4
629,4.83710,2.530,-1,4
630,4.83963,2.531,-1,4
631,4.84217,2.541,-1,4
632,4.84472,2.548,-1,4
633,4.84727,2.550,-1,4
634,4.84983,2.556,-1,4
635,4.85239,2.560,-1,4
636,4.85495,2.566,-1,4
637,4.85753,2.573,-1,4
638,4.86010,2.577,-1,4
639,4.86269,2.582,-1,4
640,4.86528,2.590,-1,4
641,4.86787,2.589,-1,4
642,4.87046,2.598,-1,4
643,4.87307,2.604,-1,4
644,4.87568,2.608,-1,4
645,4.87829,2.610,-1,4
646,4.88091,2.620,-1,4
647,4.88353,2.624,-1,4
648,4.88615,2.625,-1,4
649,4.88878,2.629,-1,4
650,4.89142,2.636,-1,4
651,4.89406,2.640,-1,4
652,4.89670,2.643,-1,4
653,4.89935,2.649,-1,4
654,4.90201,2.653,-1,4
655,4.90466,2.656,-1,4
656,4.90732,2.659,-1,4
657,4.90999,2.666,-1,4
658,4.91265,2.667,-1,4
659,4.91532,2.672,-1,4
660,4.91800,2.676,-1,4
661,4.92068,2.680,-1,4
662,4.92336,2.681,-1,4
663,4.92605,2.685,-1,4
664,4.92874,2.694,-1,4
665,4.93144,2.696,-1,4
666,4.93413,2.694,-1,4
667,4.93683,2.700,-1,4
668,4.93954,2.705,-1,4
669,4.94224,2.706,-1,4
670,4.94495,2.711,-1,4
671,4.94766,2.712,-1,4
672,4.95038,2.715,-1,4
673,4.95310,2.719,-1,4
674,4.95582,2.721,-1,4
675,4.95854,2.724,-1,4
676,4.96127,2.729,-1,4
677,4.96400,2.726,-1,4
678,4.96673,2.731,-1,4
679,4.96947,2.737,-1,4
680,4.97221,2.739,-1,4
681,4.97495,2.742,-1,4
682,4.97769,2.745,-1,4
683,4.98044,2.748,-1,4
684,4.98319,2.750,-1,4
685,4.98595,2.756,-1,4
686,4.98870,2.757,-1,4
687,4.99147,2.761,-1,4
688,4.99423,2.765,-1,4
689,4.99700,2.767,-1,4
690,4.99977,2.772,-1,4
691,5.00254,2.775,-1,4
692,5.00811,2.782,-1,4
693,5.01088,2.777,-1,4
694,5.01367,2.783,-1,4
695,5.01646,2.791,-1,4
696,5.01925,2.793,-1,4
697,5.02205,2.799,-1,4
698,5.02485,2.801,-1,4
699,5.02765,2.802,-1,4
700,5.03046,2.806,-1,4
701,5.03608,2.813,-1,4
702,5.03608,2.810,-1,4
703,5.03889,2.810,-1,4
704,5.04171,2.818,-1,4
705,5.04452,2.818,-1,4
706,5.04735,2.824,-1,4
707,5.05018,2.830,-1,4
708,5.05301,2.831,-1,4
709,5.05584,2.837,-1,4
710,5.06153,2.851,-1,4
711,5.06439,2.857,-1,4
712,5.06725,2.857,-1,4
713,5.07011,2.867,-1,4
714,5.07298,2.872,-1,4
715,5.07586,2.879,-1,4
716,5.07875,2.886,-1,4
717,5.08164,2.889,-1,4
718,5.08454,2.896,-1,4
719,5.08744,2.907,-1,4
720,5.09036,2.913,-1,4
721,5.09328,2.922,-1,4
722,5.09620,2.924,-1,4
723,5.09914,2.937,-1,4
724,5.10208,2.946,-1,4
725,5.10504,2.953,-1,4
726,5.10800,2.963,-1,4
727,5.11097,2.968,-1,4
728,5.11395,2.977,-1,4
729,5.11693,2.989,-1,4
730,5.11993,3.000,-1,4
731,5.12294,3.004,-1,4
732,5.12596,3.017,-1,4
733,5.12898,3.026,-1,4
734,5.13202,3.039,-1,4
735,5.13507,3.049,-1,4
736,5.13813,3.060,-1,4
737,5.14120,3.069,-1,4
738,5.14428,3.079,-1,4
739,5.14737,3.095,-1,4
740,5.15048,3.105,-1,4
741,5.15359,3.114,-1,4
742,5.15672,3.126,-1,4
743,5.15986,3.140,-1,4
744,5.16301,3.152,-1,4
745,5.16617,3.164,-1,4
746,5.16934,3.171,-1,4
747,5.17253,3.187,-1,4
748,5.17573,3.198,-1,4
749,5.17894,3.215,-1,4
750,5.18217,3.225,-1,4
751,5.18540,3.236,-1,4
752,5.18865,3.263,-1,4
753,5.19192,3.263,-1,4
754,5.19519,3.275,-1,4
755,5.19848,3.286,-1,4
756,5.20178,3.298,-1,4
757,5.20509,3.313,-1,4
758,5.20841,3.342,-1,4
759,5.21510,3.350,-1,4
760,5.21846,3.359,-1,4
761,5.22184,3.373,-1,4
762,5.22522,3.388,-1,4
763,5.22863,3.401,-1,4
764,5.23204,3.409,-1,4
765,5.23546,3.421,-1,4
766,5.23888,3.428,-1,4
767,5.24233,3.443,-1,4
768,5.24578,3.455,-1,4
769,5.24925,3.464,-1,4
770,5.25272,3.472,-1,4
771,5.25620,3.483,-1,4
772,5.25969,3.494,-1,4
773,5.26320,3.505,-1,4
774,5.26671,3.510,-1,4
775,5.27023,3.517,-1,4
776,5.27376,3.529,-1,4
777,5.27730,3.542,-1,4
778,5.28084,3.545,-1,4
779,5.28439,3.550,-1,4
780,5.28795,3.559,-1,4
781,5.29152,3.567,-1,4
782,5.29509,3.574,-1,4
783,5.29867,3.578,-1,4
784,5.30225,3.582,-1,4
785,5.30584,3.588,-1,4
786,5.30944,3.598,-1,4
787,5.31304,3.598,-1,4
788,5.31664,3.602,-1,4
789,5.32024,3.601,-1,4
790,5.32385,3.609,-1,4
791,5.32746,3.613,-1,4
792,5.33107,3.613,-1,4
793,5.33469,3.613,-1,4
794,5.33830,3.616,-1,4
795,5.34192,3.618,-1,4
796,5.34554,3.619,-1,4
797,5.34916,3.619,-1,4
798,5.35278,3.619,-1,4
799,5.35640,3.622,-1,4
800,5.36002,3.622,-1,4
801,5.36726,3.619,-1,4
802,5.36726,3.617,-1,4
803,5.37088,3.616,-1,4
804,5.37450,3.616,-1,4
805,5.37811,3.615,-1,4
806,5.38172,3.613,-1,4
807,5.38534,3.610,-1,4
808,5.39255,3.607,-1,4
809,5.39615,3.600,-1,4
810,5.39975,3.597,-1,4
811,5.40334,3.595,-1,4
812,5.40693,3.588,-1,4
813,5.41052,3.587,-1,4
814,5.41410,3.582,-1,4
815,5.41768,3.578,-1,4
816,5.42125,3.571,-1,4
817,5.42482,3.567,-1,4
818,5.42838,3.562,-1,4
819,5.43194,3.560,-1,4
820,5.43549,3.548,-1,4
821,5.43903,3.547,-1,4
822,5.44257,3.538,-1,4
823,5.44611,3.533,-1,4
824,5.44963,3.528,-1,4
825,5.45315,3.518,-1,4
826,5.45667,3.514,-1,4
827,5.46017,3.505,-1,4
828,5.46367,3.499,-1,4
829,5.46716,3.494,-1,4
830,5.47065,3.484,-1,4
831,5.47413,3.478,-1,4
832,5.47759,3.469,-1,4
833,5.48106,3.463,-1,4
834,5.48451,3.456,-1,4
835,5.48796,3.448,-1,4
836,5.49140,3.439,-1,4
837,5.49483,3.434,-1,4
838,5.49826,3.427,-1,4
839,5.50168,3.420,-1,4
840,5.50509,3.409,-1,4
841,5.50849,3.402,-1,4
842,5.51189,3.400,-1,4
843,5.51528,3.388,-1,4
844,5.51866,3.379,-1,4
845,5.52203,3.371,-1,4
846,5.52540,3.367,-1,4
847,5.52876,3.360,-1,4
848,5.53210,3.348,-1,4
849,5.53545,3.341,-1,4
850,5.53878,3.331,-1,4
851,5.54211,3.330,-1,4
852,5.54543,3.321,-1,4
853,5.54874,3.311,-1,4
854,5.55204,3.303,-1,4
855,5.55534,3.295,-1,4
856,5.55863,3.293,-1,4
857,5.56192,3.287,-1,4
858,5.56519,3.274,-1,4
859,5.56846,3.265,-1,4
860,5.57172,3.263,-1,4
861,5.57498,3.259,-1,4
862,5.57823,3.250,-1,4
863,5.58147,3.241,-1,4
864,5.58470,3.233,-1,4
865,5.58793,3.232,-1,4
866,5.59116,3.226,-1,4
867,5.59437,3.214,-1,4
868,5.59758,3.211,-1,4
869,5.60079,3.203,-1,4
870,5.60398,3.197,-1,4
871,5.60718,3.195,-1,4
872,5.61036,3.184,-1,4
873,5.61354,3.179,-1,4
