cnt,pos,speed,Dir,Force,
1,2.14151,1.005,-1,4
2,2.14252,1.009,-1,4
3,2.14353,1.015,-1,4
4,2.14457,1.036,-1,4
5,2.14563,1.056,-1,4
6,2.14669,1.067,-1,4
7,2.14775,1.063,-1,4
8,2.14882,1.068,-1,4
9,2.14991,1.090,-1,4
10,2.15103,1.115,-1,4
11,2.15215,1.119,-1,4
12,2.15326,1.117,-1,4
13,2.15439,1.131,-1,4
14,2.15555,1.156,-1,4
15,2.15672,1.168,-1,4
16,2.15788,1.165,-1,4
17,2.15906,1.174,-1,4
18,2.16025,1.196,-1,4
19,2.16148,1.224,-1,4
20,2.16270,1.220,-1,4
21,2.16392,1.218,-1,4
22,2.16515,1.237,-1,4
23,2.16641,1.262,-1,4
24,2.16769,1.275,-1,4
25,2.16897,1.277,-1,4
26,2.17025,1.283,-1,4
27,2.17155,1.298,-1,4
28,2.17286,1.316,-1,4
29,2.17419,1.328,-1,4
30,2.17553,1.336,-1,4
31,2.17687,1.339,-1,4
32,2.17822,1.355,-1,4
33,2.17959,1.371,-1,4
34,2.18097,1.381,-1,4
35,2.18236,1.383,-1,4
36,2.18375,1.399,-1,4
37,2.18517,1.425,-1,4
38,2.18660,1.425,-1,4
39,2.18802,1.426,-1,4
40,2.18946,1.434,-1,4
41,2.19091,1.468,-1,4
42,2.19237,1.468,-1,4
43,2.19385,1.480,-1,4
44,2.19533,1.479,-1,4
45,2.19830,1.495,-1,4
46,2.19982,1.516,-1,4
47,2.20134,1.523,-1,4
48,2.20287,1.524,-1,4
49,2.20439,1.525,-1,4
50,2.20593,1.536,-1,4
51,2.20748,1.554,-1,4
52,2.20905,1.568,-1,4
53,2.21061,1.562,-1,4
54,2.21218,1.565,-1,4
55,2.21375,1.577,-1,4
56,2.21534,1.590,-1,4
57,2.21695,1.600,-1,4
58,2.21855,1.601,-1,4
59,2.22015,1.601,-1,4
60,2.22176,1.610,-1,4
61,2.22338,1.625,-1,4
62,2.22501,1.629,-1,4
63,2.22664,1.633,-1,4
64,2.22828,1.634,-1,4
65,2.22992,1.638,-1,4
66,2.23157,1.653,-1,4
67,2.23323,1.662,-1,4
68,2.23489,1.659,-1,4
69,2.23655,1.658,-1,4
70,2.23821,1.663,-1,4
71,2.23989,1.675,-1,4
72,2.24157,1.687,-1,4
73,2.24326,1.685,-1,4
74,2.24494,1.679,-1,4
75,2.24662,1.682,-1,4
76,2.24831,1.694,-1,4
77,2.25002,1.703,-1,4
78,2.25172,1.707,-1,4
79,2.25342,1.701,-1,4
80,2.25513,1.701,-1,4
81,2.25684,1.710,-1,4
82,2.25856,1.720,-1,4
83,2.26028,1.722,-1,4
84,2.26199,1.716,-1,4
85,2.26371,1.714,-1,4
86,2.26543,1.724,-1,4
87,2.26716,1.727,-1,4
88,2.26889,1.732,-1,4
89,2.27062,1.729,-1,4
90,2.27235,1.727,-1,4
91,2.27408,1.732,-1,4
92,2.27581,1.736,-1,4
93,2.27755,1.736,-1,4
94,2.27929,1.741,-1,4
95,2.28103,1.740,-1,4
96,2.28277,1.737,-1,4
97,2.28451,1.738,-1,4
98,2.28625,1.740,-1,4
99,2.28799,1.749,-1,4
100,2.28974,1.747,-1,4
101,2.29148,1.740,-1,4
102,2.29322,1.740,-1,4
103,2.29496,1.741,-1,4
104,2.29671,1.749,-1,4
105,2.29847,1.755,-1,4
106,2.30021,1.744,-1,4
107,2.30195,1.739,-1,4
108,2.30370,1.746,-1,4
109,2.30544,1.749,-1,4
110,2.30720,1.753,-1,4
111,2.30894,1.747,-1,4
112,2.31069,1.741,-1,4
113,2.31243,1.747,-1,4
114,2.31418,1.750,-1,4
115,2.31593,1.748,-1,4
116,2.31768,1.748,-1,4
117,2.31942,1.745,-1,4
118,2.32117,1.743,-1,4
119,2.32291,1.743,-1,4
120,2.32466,1.748,-1,4
121,2.32640,1.748,-1,4
122,2.32815,1.744,-1,4
123,2.32989,1.741,-1,4
124,2.33337,1.737,-1,4
125,2.33511,1.743,-1,4
126,2.33685,1.745,-1,4
127,2.33859,1.736,-1,4
128,2.34032,1.732,-1,4
129,2.34205,1.732,-1,4
130,2.34379,1.734,-1,4
131,2.34553,1.738,-1,4
132,2.34726,1.732,-1,4
133,2.34898,1.726,-1,4
134,2.35071,1.722,-1,4
135,2.35243,1.725,-1,4
136,2.35416,1.729,-1,4
137,2.35588,1.725,-1,4
138,2.35760,1.715,-1,4
139,2.35931,1.715,-1,4
140,2.36103,1.715,-1,4
141,2.36274,1.715,-1,4
142,2.36446,1.711,-1,4
143,2.36616,1.707,-1,4
144,2.36787,1.707,-1,4
145,2.36957,1.701,-1,4
146,2.37127,1.696,-1,4
147,2.37297,1.701,-1,4
148,2.37467,1.699,-1,4
149,2.37636,1.692,-1,4
150,2.37804,1.681,-1,4
151,2.37971,1.674,-1,4
152,2.38139,1.678,-1,4
153,2.38307,1.681,-1,4
154,2.38474,1.672,-1,4
155,2.38640,1.660,-1,4
156,2.38806,1.659,-1,4
157,2.38973,1.665,-1,4
158,2.39140,1.668,-1,4
159,2.39305,1.656,-1,4
160,2.39470,1.642,-1,4
161,2.39634,1.647,-1,4
162,2.39800,1.656,-1,4
163,2.39965,1.651,-1,4
164,2.40129,1.638,-1,4
165,2.40291,1.627,-1,4
166,2.40455,1.631,-1,4
167,2.40619,1.641,-1,4
168,2.40782,1.632,-1,4
169,2.40943,1.615,-1,4
170,2.41105,1.613,-1,4
171,2.41267,1.620,-1,4
172,2.41429,1.625,-1,4
173,2.41590,1.613,-1,4
174,2.41750,1.594,-1,4
175,2.41909,1.596,-1,4
176,2.42071,1.613,-1,4
177,2.42231,1.606,-1,4
178,2.42390,1.588,-1,4
179,2.42548,1.575,-1,4
180,2.42706,1.581,-1,4
181,2.42865,1.594,-1,4
182,2.43024,1.593,-1,4
183,2.43181,1.568,-1,4
184,2.43336,1.552,-1,4
185,2.43493,1.566,-1,4
186,2.43650,1.575,-1,4
187,2.43808,1.571,-1,4
188,2.43963,1.552,-1,4
189,2.44116,1.533,-1,4
190,2.44270,1.542,-1,4
191,2.44426,1.561,-1,4
192,2.44582,1.552,-1,4
193,2.44734,1.529,-1,4
194,2.44886,1.516,-1,4
195,2.45039,1.526,-1,4
196,2.45193,1.540,-1,4
197,2.45346,1.535,-1,4
198,2.45497,1.511,-1,4
199,2.45647,1.496,-1,4
200,2.45798,1.510,-1,4
201,2.45950,1.524,-1,4
202,2.46102,1.515,-1,4
203,2.46251,1.493,-1,4
204,2.46398,1.474,-1,4
205,2.46547,1.487,-1,4
206,2.46698,1.508,-1,4
207,2.46848,1.503,-1,4
208,2.46996,1.476,-1,4
209,2.47142,1.460,-1,4
210,2.47289,1.470,-1,4
211,2.47438,1.490,-1,4
212,2.47587,1.489,-1,4
213,2.47734,1.473,-1,4
214,2.47879,1.448,-1,4
215,2.48171,1.473,-1,4
216,2.48319,1.479,-1,4
217,2.48319,1.462,-1,4
218,2.48465,1.443,-1,4
219,2.48754,1.442,-1,4
220,2.48899,1.455,-1,4
221,2.49046,1.466,-1,4
222,2.49191,1.457,-1,4
223,2.49335,1.435,-1,4
224,2.49478,1.432,-1,4
225,2.49623,1.448,-1,4
226,2.49768,1.453,-1,4
227,2.49913,1.448,-1,4
228,2.50056,1.434,-1,4
229,2.50199,1.429,-1,4
230,2.50343,1.439,-1,4
231,2.50488,1.450,-1,4
232,2.50633,1.445,-1,4
233,2.50775,1.428,-1,4
234,2.50918,1.429,-1,4
235,2.51062,1.440,-1,4
236,2.51206,1.442,-1,4
237,2.51351,1.437,-1,4
238,2.51494,1.437,-1,4
239,2.51638,1.436,-1,4
240,2.51926,1.442,-1,4
241,2.51926,1.443,-1,4
242,2.52214,1.440,-1,4
243,2.52358,1.444,-1,4
244,2.52503,1.444,-1,4
245,2.52647,1.443,-1,4
246,2.52791,1.443,-1,4
247,2.52936,1.450,-1,4
248,2.53082,1.454,-1,4
249,2.53228,1.460,-1,4
250,2.53373,1.455,-1,4
251,2.53518,1.448,-1,4
252,2.53663,1.453,-1,4
253,2.53811,1.473,-1,4
254,2.53958,1.474,-1,4
255,2.54105,1.466,-1,4
256,2.54251,1.462,-1,4
257,2.54397,1.466,-1,4
258,2.54545,1.477,-1,4
259,2.54695,1.494,-1,4
260,2.54843,1.485,-1,4
261,2.54991,1.474,-1,4
262,2.55138,1.479,-1,4
263,2.55288,1.497,-1,4
264,2.55439,1.508,-1,4
265,2.55589,1.505,-1,4
266,2.55739,1.496,-1,4
267,2.55889,1.496,-1,4
268,2.56040,1.511,-1,4
269,2.56193,1.533,-1,4
270,2.56346,1.530,-1,4
271,2.56498,1.517,-1,4
272,2.56649,1.516,-1,4
273,2.56802,1.531,-1,4
274,2.56957,1.551,-1,4
275,2.57113,1.558,-1,4
276,2.57268,1.548,-1,4
277,2.57422,1.536,-1,4
278,2.57577,1.550,-1,4
279,2.57734,1.574,-1,4
280,2.57893,1.585,-1,4
281,2.58050,1.579,-1,4
282,2.58207,1.566,-1,4
283,2.58364,1.569,-1,4
284,2.58524,1.597,-1,4
285,2.58685,1.617,-1,4
286,2.58846,1.611,-1,4
287,2.59006,1.597,-1,4
288,2.59166,1.598,-1,4
289,2.59328,1.623,-1,4
290,2.59493,1.646,-1,4
291,2.59657,1.640,-1,4
292,2.59819,1.626,-1,4
293,2.59983,1.634,-1,4
294,2.60148,1.656,-1,4
295,2.60316,1.674,-1,4
296,2.60483,1.670,-1,4
297,2.60648,1.656,-1,4
298,2.60815,1.668,-1,4
299,2.60984,1.694,-1,4
300,2.61155,1.707,-1,4
301,2.61325,1.697,-1,4
302,2.61494,1.689,-1,4
303,2.61664,1.703,-1,4
304,2.61837,1.738,-1,4
305,2.62011,1.723,-1,4
306,2.62183,1.723,-1,4
307,2.62356,1.723,-1,4
308,2.62530,1.742,-1,4
309,2.62707,1.769,-1,4
310,2.62883,1.767,-1,4
311,2.63059,1.757,-1,4
312,2.63235,1.758,-1,4
313,2.63413,1.799,-1,4
314,2.63773,1.801,-1,4
315,2.63952,1.791,-1,4
316,2.64131,1.793,-1,4
317,2.64312,1.811,-1,4
318,2.64495,1.828,-1,4
319,2.64678,1.834,-1,4
320,2.64861,1.832,-1,4
321,2.65044,1.827,-1,4
322,2.65228,1.839,-1,4
323,2.65414,1.859,-1,4
324,2.65601,1.869,-1,4
325,2.65788,1.867,-1,4
326,2.65974,1.861,-1,4
327,2.66161,1.872,-1,4
328,2.66350,1.891,-1,4
329,2.66541,1.909,-1,4
330,2.66731,1.902,-1,4
331,2.66920,1.891,-1,4
332,2.67110,1.903,-1,4
333,2.67304,1.944,-1,4
334,2.67498,1.930,-1,4
335,2.67691,1.930,-1,4
336,2.67883,1.924,-1,4
337,2.68078,1.947,-1,4
338,2.68275,1.971,-1,4
339,2.68472,1.973,-1,4
340,2.68668,1.959,-1,4
341,2.68865,1.966,-1,4
342,2.69064,1.988,-1,4
343,2.69264,2.001,-1,4
344,2.69464,2.003,-1,4
345,2.69664,1.998,-1,4
346,2.69865,2.010,-1,4
347,2.70068,2.025,-1,4
348,2.70271,2.038,-1,4
349,2.70475,2.038,-1,4
350,2.70679,2.040,-1,4
351,2.70884,2.046,-1,4
352,2.71090,2.063,-1,4
353,2.71298,2.080,-1,4
354,2.71506,2.078,-1,4
355,2.71713,2.072,-1,4
356,2.71921,2.084,-1,4
357,2.72132,2.110,-1,4
358,2.72344,2.122,-1,4
359,2.72555,2.109,-1,4
360,2.72767,2.113,-1,4
361,2.72980,2.136,-1,4
362,2.73195,2.153,-1,4
363,2.73411,2.153,-1,4
364,2.73626,2.153,-1,4
365,2.73842,2.163,-1,4
366,2.74060,2.179,-1,4
367,2.74280,2.195,-1,4
368,2.74499,2.198,-1,4
369,2.74719,2.196,-1,4
370,2.74940,2.205,-1,4
371,2.75163,2.230,-1,4
372,2.75387,2.242,-1,4
373,2.75611,2.237,-1,4
374,2.75834,2.238,-1,4
375,2.76061,2.265,-1,4
376,2.76289,2.283,-1,4
377,2.76517,2.281,-1,4
378,2.76745,2.278,-1,4
379,2.76975,2.299,-1,4
380,2.77207,2.316,-1,4
381,2.77439,2.324,-1,4
382,2.77672,2.329,-1,4
383,2.77905,2.334,-1,4
384,2.78140,2.350,-1,4
385,2.78376,2.362,-1,4
386,2.78614,2.375,-1,4
387,2.78851,2.376,-1,4
388,2.79090,2.384,-1,4
389,2.79330,2.403,-1,4
390,2.79571,2.412,-1,4
391,2.79814,2.423,-1,4
392,2.80057,2.429,-1,4
393,2.80300,2.435,-1,4
394,2.80545,2.450,-1,4
395,2.80792,2.468,-1,4
396,2.81039,2.473,-1,4
397,2.81287,2.475,-1,4
398,2.81535,2.485,-1,4
399,2.81786,2.505,-1,4
400,2.82037,2.514,-1,4
401,2.82289,2.519,-1,4
402,2.82542,2.526,-1,4
403,2.82795,2.537,-1,4
404,2.83051,2.552,-1,4
405,2.83307,2.562,-1,4
406,2.83563,2.566,-1,4
407,2.83821,2.575,-1,4
408,2.84079,2.587,-1,4
409,2.84339,2.594,-1,4
410,2.84600,2.610,-1,4
411,2.84861,2.612,-1,4
412,2.85123,2.621,-1,4
413,2.85386,2.628,-1,4
414,2.85651,2.645,-1,4
415,2.85916,2.649,-1,4
416,2.86181,2.655,-1,4
417,2.86447,2.665,-1,4
418,2.86715,2.675,-1,4
419,2.86983,2.683,-1,4
420,2.87252,2.691,-1,4
421,2.87522,2.695,-1,4
422,2.87792,2.703,-1,4
423,2.88063,2.714,-1,4
424,2.88336,2.723,-1,4
425,2.88609,2.727,-1,4
426,2.88881,2.729,-1,4
427,2.89155,2.736,-1,4
428,2.89430,2.747,-1,4
429,2.89705,2.752,-1,4
430,2.89980,2.752,-1,4
431,2.90256,2.761,-1,4
432,2.90532,2.763,-1,4
433,2.90809,2.768,-1,4
434,2.91087,2.774,-1,4
435,2.91364,2.777,-1,4
436,2.91642,2.779,-1,4
437,2.91920,2.782,-1,4
438,2.92199,2.788,-1,4
439,2.92478,2.788,-1,4
440,2.92757,2.789,-1,4
441,2.93036,2.791,-1,4
442,2.93316,2.797,-1,4
443,2.93595,2.797,-1,4
444,2.93875,2.797,-1,4
445,2.94155,2.801,-1,4
446,2.94435,2.801,-1,4
447,2.94715,2.798,-1,4
448,2.94995,2.804,-1,4
449,2.95276,2.804,-1,4
450,2.95556,2.802,-1,4
451,2.95836,2.803,-1,4
452,2.96117,2.804,-1,4
453,2.96397,2.802,-1,4
454,2.96957,2.800,-1,4
455,2.96957,2.802,-1,4
456,2.97237,2.800,-1,4
457,2.97517,2.800,-1,4
458,2.97797,2.800,-1,4
459,2.98077,2.795,-1,4
460,2.98357,2.795,-1,4
461,2.98636,2.793,-1,4
462,2.99195,2.795,-1,4
463,2.99474,2.789,-1,4
464,2.99753,2.790,-1,4
465,3.00031,2.785,-1,4
466,3.00310,2.782,-1,4
467,3.00588,2.785,-1,4
468,3.00866,2.780,-1,4
469,3.01144,2.776,-1,4
470,3.01421,2.773,-1,4
471,3.01698,2.772,-1,4
472,3.01976,2.773,-1,4
473,3.02252,2.766,-1,4
474,3.02529,2.763,-1,4
475,3.02805,2.763,-1,4
476,3.03081,2.757,-1,4
477,3.03356,2.756,-1,4
478,3.03632,2.753,-1,4
479,3.03907,2.749,-1,4
480,3.04181,2.745,-1,4
481,3.04455,2.745,-1,4
482,3.04729,2.739,-1,4
483,3.05003,2.732,-1,4
484,3.05276,2.732,-1,4
485,3.05549,2.728,-1,4
486,3.05821,2.722,-1,4
487,3.06093,2.719,-1,4
488,3.06364,2.716,-1,4
489,3.06635,2.713,-1,4
490,3.06906,2.705,-1,4
491,3.07176,2.702,-1,4
492,3.07446,2.700,-1,4
493,3.07716,2.694,-1,4
494,3.07984,2.688,-1,4
495,3.08253,2.686,-1,4
496,3.08521,2.681,-1,4
497,3.08789,2.675,-1,4
498,3.09056,2.674,-1,4
499,3.09323,2.669,-1,4
500,3.09589,2.663,-1,4
501,3.09855,2.656,-1,4
502,3.10120,2.650,-1,4
503,3.10385,2.650,-1,4
504,3.10650,2.641,-1,4
505,3.10914,2.641,-1,4
506,3.11177,2.630,-1,4
507,3.11440,2.632,-1,4
508,3.11702,2.622,-1,4
509,3.11965,2.623,-1,4
510,3.12226,2.613,-1,4
511,3.12748,2.603,-1,4
512,3.13008,2.602,-1,4
513,3.13268,2.596,-1,4
514,3.13527,2.591,-1,4
515,3.13786,2.590,-1,4
516,3.14044,2.581,-1,4
517,3.14301,2.575,-1,4
518,3.14559,2.574,-1,4
519,3.14816,2.570,-1,4
520,3.15072,2.564,-1,4
521,3.15328,2.560,-1,4
522,3.15584,2.556,-1,4
523,3.15838,2.549,-1,4
524,3.16093,2.546,-1,4
525,3.16348,2.544,-1,4
526,3.16601,2.540,-1,4
527,3.16855,2.535,-1,4
528,3.17108,2.528,-1,4
529,3.17360,2.524,-1,4
530,3.17613,2.524,-1,4
531,3.17865,2.521,-1,4
532,3.18116,2.512,-1,4
533,3.18367,2.509,-1,4
534,3.18618,2.508,-1,4
535,3.18868,2.502,-1,4
536,3.19117,2.496,-1,4
537,3.19367,2.496,-1,4
538,3.19616,2.490,-1,4
539,3.19864,2.484,-1,4
540,3.20113,2.481,-1,4
541,3.20360,2.479,-1,4
542,3.20608,2.472,-1,4
543,3.20855,2.469,-1,4
544,3.21101,2.465,-1,4
545,3.21347,2.460,-1,4
546,3.21593,2.458,-1,4
547,3.21838,2.452,-1,4
548,3.22083,2.448,-1,4
549,3.22327,2.448,-1,4
550,3.22572,2.444,-1,4
551,3.22815,2.435,-1,4
552,3.23059,2.432,-1,4
553,3.23302,2.434,-1,4
554,3.23545,2.429,-1,4
555,3.23787,2.422,-1,4
556,3.24029,2.420,-1,4
557,3.24271,2.418,-1,4
558,3.24512,2.413,-1,4
559,3.24753,2.412,-1,4
560,3.24994,2.409,-1,4
561,3.25234,2.401,-1,4
562,3.25475,2.402,-1,4
563,3.25715,2.399,-1,4
564,3.25954,2.393,-1,4
565,3.26193,2.392,-1,4
566,3.26432,2.391,-1,4
567,3.26670,2.380,-1,4
568,3.26908,2.383,-1,4
569,3.27147,2.384,-1,4
570,3.27384,2.375,-1,4
571,3.27621,2.371,-1,4
572,3.27858,2.371,-1,4
573,3.28096,2.372,-1,4
574,3.28332,2.366,-1,4
575,3.28568,2.358,-1,4
576,3.28804,2.363,-1,4
577,3.29040,2.357,-1,4
578,3.29276,2.358,-1,4
579,3.29511,2.351,-1,4
580,3.29747,2.356,-1,4
581,3.29981,2.346,-1,4
582,3.30216,2.352,-1,4
583,3.30451,2.347,-1,4
584,3.30686,2.350,-1,4
585,3.30920,2.342,-1,4
586,3.31155,2.345,-1,4
587,3.31388,2.336,-1,4
588,3.31623,2.344,-1,4
589,3.31857,2.341,-1,4
590,3.32091,2.341,-1,4
591,3.32324,2.334,-1,4
592,3.32558,2.340,-1,4
593,3.32793,2.341,-1,4
594,3.33026,2.337,-1,4
595,3.33260,2.334,-1,4
596,3.33494,2.339,-1,4
597,3.33728,2.340,-1,4
598,3.33961,2.337,-1,4
599,3.34195,2.337,-1,4
600,3.34429,2.337,-1,4
601,3.34663,2.339,-1,4
602,3.34896,2.339,-1,4
603,3.35131,2.342,-1,4
604,3.35365,2.338,-1,4
605,3.35599,2.345,-1,4
606,3.35833,2.343,-1,4
607,3.36068,2.344,-1,4
608,3.36302,2.345,-1,4
609,3.36537,2.352,-1,4
610,3.36772,2.348,-1,4
611,3.37007,2.348,-1,4
612,3.37242,2.351,-1,4
613,3.37478,2.355,-1,4
614,3.37714,2.355,-1,4
615,3.37949,2.358,-1,4
616,3.38186,2.362,-1,4
617,3.38422,2.365,-1,4
618,3.38896,2.370,-1,4
619,3.39133,2.375,-1,4
620,3.39370,2.370,-1,4
621,3.39608,2.376,-1,4
622,3.39846,2.380,-1,4
623,3.40084,2.384,-1,4
624,3.40323,2.390,-1,4
625,3.40562,2.389,-1,4
626,3.40801,2.390,-1,4
627,3.41041,2.396,-1,4
628,3.41281,2.401,-1,4
629,3.41521,2.403,-1,4
630,3.41762,2.405,-1,4
631,3.42003,2.412,-1,4
632,3.42245,2.416,-1,4
633,3.42487,2.421,-1,4
634,3.42729,2.428,-1,4
635,3.42973,2.434,-1,4
636,3.43216,2.436,-1,4
637,3.43461,2.444,-1,4
638,3.43706,2.449,-1,4
639,3.43951,2.457,-1,4
640,3.44198,2.462,-1,4
641,3.44445,2.471,-1,4
642,3.44692,2.474,-1,4
643,3.44940,2.484,-1,4
644,3.45189,2.491,-1,4
645,3.45439,2.497,-1,4
646,3.45689,2.501,-1,4
647,3.45941,2.516,-1,4
648,3.46193,2.522,-1,4
649,3.46446,2.527,-1,4
650,3.46700,2.539,-1,4
651,3.46954,2.544,-1,4
652,3.47209,2.553,-1,4
653,3.47466,2.562,-1,4
654,3.47723,2.574,-1,4
655,3.47981,2.577,-1,4
656,3.48239,2.587,-1,4
657,3.48499,2.595,-1,4
658,3.48759,2.605,-1,4
659,3.49021,2.617,-1,4
660,3.49283,2.623,-1,4
661,3.49547,2.634,-1,4
662,3.49811,2.642,-1,4
663,3.50076,2.652,-1,4
664,3.50342,2.661,-1,4
665,3.50609,2.672,-1,4
666,3.50877,2.680,-1,4
667,3.51146,2.690,-1,4
668,3.51417,2.703,-1,4
669,3.51688,2.712,-1,4
670,3.51960,2.717,-1,4
671,3.52233,2.731,-1,4
672,3.52507,2.741,-1,4
673,3.52782,2.751,-1,4
674,3.53058,2.762,-1,4
675,3.53335,2.772,-1,4
676,3.53613,2.779,-1,4
677,3.53892,2.792,-1,4
678,3.54173,2.802,-1,4
679,3.54454,2.813,-1,4
680,3.54736,2.824,-1,4
681,3.55019,2.831,-1,4
682,3.55304,2.843,-1,4
683,3.55589,2.854,-1,4
684,3.55875,2.863,-1,4
685,3.56163,2.877,-1,4
686,3.56452,2.884,-1,4
687,3.56741,2.891,-1,4
688,3.57031,2.915,-1,4
689,3.57615,2.926,-1,4
690,3.57909,2.936,-1,4
691,3.58203,2.945,-1,4
692,3.58499,2.955,-1,4
693,3.58795,2.966,-1,4
694,3.59093,2.974,-1,4
695,3.59391,2.986,-1,4
696,3.59691,2.991,-1,4
697,3.59991,3.005,-1,4
698,3.60293,3.018,-1,4
699,3.60595,3.024,-1,4
700,3.60899,3.036,-1,4
701,3.61203,3.046,-1,4
702,3.61509,3.055,-1,4
703,3.61815,3.063,-1,4
704,3.62123,3.076,-1,4
705,3.62431,3.083,-1,4
706,3.62741,3.095,-1,4
707,3.63051,3.102,-1,4
708,3.63674,3.122,-1,4
709,3.63674,3.132,-1,4
710,3.63987,3.137,-1,4
711,3.64301,3.137,-1,4
712,3.64932,3.159,-1,4
713,3.64932,3.159,-1,4
714,3.65249,3.177,-1,4
715,3.65567,3.188,-1,4
716,3.66205,3.195,-1,4
717,3.66526,3.207,-1,4
718,3.66847,3.210,-1,4
719,3.67169,3.222,-1,4
720,3.67492,3.234,-1,4
721,3.67816,3.239,-1,4
722,3.68140,3.244,-1,4
723,3.68466,3.255,-1,4
724,3.68792,3.265,-1,4
725,3.69120,3.273,-1,4
726,3.69448,3.281,-1,4
727,3.69776,3.283,-1,4
728,3.70105,3.290,-1,4
729,3.70435,3.300,-1,4
730,3.70766,3.308,-1,4
731,3.71097,3.314,-1,4
732,3.71430,3.322,-1,4
733,3.71762,3.326,-1,4
734,3.72095,3.332,-1,4
735,3.72429,3.340,-1,4
736,3.72764,3.343,-1,4
737,3.73099,3.349,-1,4
738,3.73434,3.353,-1,4
739,3.73770,3.358,-1,4
740,3.74106,3.359,-1,4
741,3.74442,3.368,-1,4
742,3.74779,3.369,-1,4
743,3.75117,3.374,-1,4
744,3.75454,3.375,-1,4
745,3.75792,3.376,-1,4
746,3.76130,3.381,-1,4
747,3.76806,3.385,-1,4
748,3.77145,3.386,-1,4
749,3.77145,3.386,-1,4
750,3.77822,3.385,-1,4
751,3.77822,3.388,-1,4
752,3.78500,3.387,-1,4
753,3.78500,3.390,-1,4
754,3.78839,3.390,-1,4
755,3.79177,3.388,-1,4
756,3.79516,3.385,-1,4
757,3.80194,3.388,-1,4
758,3.80532,3.383,-1,4
759,3.80532,3.382,-1,4
760,3.80870,3.382,-1,4
761,3.81208,3.382,-1,4
762,3.81546,3.380,-1,4
763,3.81884,3.378,-1,4
764,3.82221,3.373,-1,4
765,3.82558,3.371,-1,4
766,3.82895,3.370,-1,4
767,3.83232,3.367,-1,4
768,3.83568,3.359,-1,4
769,3.83904,3.357,-1,4
770,3.84239,3.351,-1,4
771,3.84574,3.355,-1,4
772,3.84909,3.347,-1,4
773,3.85243,3.340,-1,4
774,3.85577,3.335,-1,4
775,3.85910,3.334,-1,4
776,3.86243,3.329,-1,4
777,3.86575,3.324,-1,4
778,3.86907,3.317,-1,4
779,3.87238,3.312,-1,4
780,3.87569,3.308,-1,4
781,3.87899,3.303,-1,4
782,3.88229,3.298,-1,4
783,3.88558,3.292,-1,4
784,3.88887,3.283,-1,4
785,3.89215,3.279,-1,4
786,3.89542,3.275,-1,4
787,3.89869,3.262,-1,4
788,3.90195,3.254,-1,4
789,3.90845,3.249,-1,4
790,3.90845,3.240,-1,4
791,3.91169,3.240,-1,4
792,3.91492,3.236,-1,4
793,3.91815,3.226,-1,4
794,3.92137,3.220,-1,4
795,3.92459,3.215,-1,4
796,3.93099,3.200,-1,4
797,3.93419,3.194,-1,4
798,3.93737,3.182,-1,4
799,3.94055,3.181,-1,4
800,3.94372,3.171,-1,4
801,3.94689,3.165,-1,4
802,3.95004,3.156,-1,4
803,3.95319,3.151,-1,4
804,3.95634,3.144,-1,4
805,3.95947,3.135,-1,4
806,3.96260,3.129,-1,4
807,3.96572,3.117,-1,4
808,3.96883,3.110,-1,4
809,3.97194,3.110,-1,4
810,3.97504,3.100,-1,4
811,3.97813,3.091,-1,4
812,3.98121,3.080,-1,4
813,3.98428,3.072,-1,4
814,3.98735,3.071,-1,4
815,3.99041,3.062,-1,4
816,3.99346,3.050,-1,4
817,3.99651,3.045,-1,4
818,3.99954,3.036,-1,4
819,4.00258,3.032,-1,4
820,4.00560,3.025,-1,4
821,4.00862,3.016,-1,4
822,4.01162,3.005,-1,4
823,4.01462,3.002,-1,4
824,4.01762,2.996,-1,4
825,4.02061,2.987,-1,4
826,4.02359,2.981,-1,4
827,4.02656,2.970,-1,4
828,4.02952,2.965,-1,4
829,4.03248,2.960,-1,4
830,4.03544,2.955,-1,4
831,4.03838,2.944,-1,4
832,4.04132,2.938,-1,4
833,4.04425,2.930,-1,4
834,4.04717,2.924,-1,4
835,4.05009,2.919,-1,4
836,4.05301,2.914,-1,4
837,4.05591,2.903,-1,4
838,4.05881,2.897,-1,4
839,4.06170,2.890,-1,4
840,4.06458,2.886,-1,4
841,4.06746,2.877,-1,4
842,4.07033,2.873,-1,4
843,4.07320,2.864,-1,4
844,4.07606,2.861,-1,4
845,4.07891,2.855,-1,4
846,4.08176,2.848,-1,4
847,4.08461,2.847,-1,4
848,4.08745,2.840,-1,4
849,4.09028,2.833,-1,4
850,4.09311,2.826,-1,4
851,4.09593,2.826,-1,4
852,4.09875,2.821,-1,4
853,4.10157,2.814,-1,4
854,4.10438,2.809,-1,4
855,4.10718,2.803,-1,4
856,4.10998,2.803,-1,4
857,4.11278,2.799,-1,4
858,4.11557,2.789,-1,4
859,4.11836,2.790,-1,4
860,4.12115,2.785,-1,4
861,4.12392,2.777,-1,4
862,4.12670,2.777,-1,4
863,4.12948,2.777,-1,4
864,4.13225,2.769,-1,4
865,4.13501,2.764,-1,4
866,4.13778,2.766,-1,4
867,4.14054,2.761,-1,4
868,4.14330,2.759,-1,4
869,4.14605,2.757,-1,4
870,4.14881,2.753,-1,4
871,4.15156,2.753,-1,4
872,4.15431,2.752,-1,4
873,4.15706,2.751,-1,4
