cnt,pos,speed,Dir,Force,
1,2.73747,1.001,-1,0
2,2.73848,1.007,-1,0
3,2.73948,1.003,-1,0
4,2.74049,1.003,-1,0
5,2.74149,1.000,-1,0
6,2.74249,1.004,-1,0
7,2.74349,1.004,-1,0
8,2.74450,1.013,-1,0
9,2.74653,1.013,-1,0
10,2.74653,1.012,-1,0
11,2.74754,1.012,-1,0
12,2.74855,1.008,-1,0
13,2.74956,1.009,-1,0
14,2.75057,1.010,-1,0
15,2.75158,1.012,-1,0
16,2.75259,1.016,-1,0
17,2.75361,1.016,-1,0
18,2.75463,1.016,-1,0
19,2.75564,1.015,-1,0
20,2.75666,1.014,-1,0
21,2.75767,1.013,-1,0
22,2.75868,1.012,-1,0
23,2.75970,1.014,-1,0
24,2.76071,1.015,-1,0
25,2.76173,1.015,-1,0
26,2.76274,1.016,-1,0
27,2.76375,1.013,-1,0
28,2.76477,1.013,-1,0
29,2.76578,1.009,-1,0
30,2.76678,1.007,-1,0
31,2.76779,1.008,-1,0
32,2.76880,1.010,-1,0
33,2.76981,1.010,-1,0
34,2.77082,1.011,-1,0
35,2.77183,1.008,-1,0
36,2.77284,1.005,-1,0
37,2.77384,1.004,-1,0
38,2.77484,0.999,-1,0
39,2.77584,0.997,-1,0
40,2.77683,0.997,-1,0
41,2.77783,0.998,-1,0
42,2.77883,1.001,-1,0
43,2.77983,1.002,-1,0
44,2.78083,0.996,-1,0
45,2.78182,0.994,-1,0
46,2.78281,0.986,-1,0
47,2.78380,0.986,-1,0
48,2.78478,0.985,-1,0
49,2.78576,0.984,-1,0
50,2.78675,0.987,-1,0
51,2.78774,0.988,-1,0
52,2.78873,0.988,-1,0
53,2.78971,0.981,-1,0
54,2.79069,0.978,-1,0
55,2.79166,0.972,-1,0
56,2.79263,0.970,-1,0
57,2.79360,0.970,-1,0
58,2.79457,0.972,-1,0
59,2.79554,0.973,-1,0
60,2.79652,0.974,-1,0
61,2.79749,0.971,-1,0
62,2.79846,0.967,-1,0
63,2.79942,0.962,-1,0
64,2.80037,0.957,-1,0
65,2.80133,0.956,-1,0
66,2.80229,0.956,-1,0
67,2.80324,0.955,-1,0
68,2.80420,0.959,-1,0
69,2.80516,0.955,-1,0
70,2.80611,0.955,-1,0
71,2.80706,0.950,-1,0
72,2.80801,0.950,-1,0
73,2.80896,0.945,-1,0
74,2.80990,0.944,-1,0
75,2.81084,0.943,-1,0
76,2.81178,0.941,-1,0
77,2.81273,0.942,-1,0
78,2.81367,0.940,-1,0
79,2.81460,0.939,-1,0
80,2.81554,0.939,-1,0
81,2.81648,0.935,-1,0
82,2.81741,0.934,-1,0
83,2.81834,0.931,-1,0
84,2.81927,0.927,-1,0
85,2.82020,0.927,-1,0
86,2.82112,0.926,-1,0
87,2.82205,0.925,-1,0
88,2.82298,0.927,-1,0
89,2.82390,0.925,-1,0
90,2.82483,0.924,-1,0
91,2.82575,0.921,-1,0
92,2.82666,0.913,-1,0
93,2.82757,0.912,-1,0
94,2.82848,0.909,-1,0
95,2.82939,0.909,-1,0
96,2.83030,0.913,-1,0
97,2.83122,0.916,-1,0
98,2.83213,0.914,-1,0
99,2.83304,0.908,-1,0
100,2.83395,0.905,-1,0
101,2.83485,0.900,-1,0
102,2.83574,0.895,-1,0
103,2.83664,0.893,-1,0
104,2.83753,0.895,-1,0
105,2.83843,0.898,-1,0
106,2.83933,0.901,-1,0
107,2.84023,0.897,-1,0
108,2.84112,0.894,-1,0
109,2.84201,0.889,-1,0
110,2.84289,0.884,-1,0
111,2.84378,0.882,-1,0
112,2.84466,0.882,-1,0
113,2.84554,0.884,-1,0
114,2.84643,0.885,-1,0
115,2.84731,0.883,-1,0
116,2.84819,0.881,-1,0
117,2.84907,0.877,-1,0
118,2.84994,0.875,-1,0
119,2.85081,0.871,-1,0
120,2.85168,0.870,-1,0
121,2.85255,0.870,-1,0
122,2.85342,0.871,-1,0
123,2.85430,0.871,-1,0
124,2.85516,0.869,-1,0
125,2.85603,0.865,-1,0
126,2.85689,0.861,-1,0
127,2.85775,0.859,-1,0
128,2.85861,0.857,-1,0
129,2.85946,0.856,-1,0
130,2.86032,0.858,-1,0
131,2.86118,0.856,-1,0
132,2.86203,0.855,-1,0
133,2.86289,0.853,-1,0
134,2.86374,0.851,-1,0
135,2.86458,0.847,-1,0
136,2.86543,0.846,-1,0
137,2.86627,0.845,-1,0
138,2.86712,0.843,-1,0
139,2.86796,0.843,-1,0
140,2.86880,0.841,-1,0
141,2.86964,0.840,-1,0
142,2.87048,0.838,-1,0
143,2.87132,0.837,-1,0
144,2.87215,0.835,-1,0
145,2.87298,0.834,-1,0
146,2.87381,0.830,-1,0
147,2.87464,0.828,-1,0
148,2.87547,0.827,-1,0
149,2.87630,0.827,-1,0
150,2.87712,0.827,-1,0
151,2.87795,0.827,-1,0
152,2.87878,0.824,-1,0
153,2.87960,0.822,-1,0
154,2.88041,0.818,-1,0
155,2.88123,0.816,-1,0
156,2.88205,0.815,-1,0
157,2.88286,0.814,-1,0
158,2.88367,0.812,-1,0
159,2.88448,0.813,-1,0
160,2.88530,0.812,-1,0
161,2.88611,0.810,-1,0
162,2.88691,0.808,-1,0
163,2.88772,0.806,-1,0
164,2.88853,0.805,-1,0
165,2.88933,0.803,-1,0
166,2.89013,0.804,-1,0
167,2.89093,0.802,-1,0
168,2.89174,0.802,-1,0
169,2.89253,0.798,-1,0
170,2.89333,0.798,-1,0
171,2.89413,0.796,-1,0
172,2.89492,0.795,-1,0
173,2.89572,0.794,-1,0
174,2.89651,0.793,-1,0
175,2.89730,0.791,-1,0
176,2.89809,0.789,-1,0
177,2.89888,0.786,-1,0
178,2.89966,0.786,-1,0
179,2.90045,0.785,-1,0
180,2.90123,0.783,-1,0
181,2.90201,0.784,-1,0
182,2.90280,0.782,-1,0
183,2.90357,0.778,-1,0
184,2.90435,0.776,-1,0
185,2.90512,0.775,-1,0
186,2.90590,0.774,-1,0
187,2.90667,0.774,-1,0
188,2.90744,0.772,-1,0
189,2.90822,0.771,-1,0
190,2.90898,0.769,-1,0
191,2.90975,0.769,-1,0
192,2.91052,0.768,-1,0
193,2.91128,0.764,-1,0
194,2.91205,0.764,-1,0
195,2.91281,0.762,-1,0
196,2.91357,0.762,-1,0
197,2.91433,0.760,-1,0
198,2.91509,0.759,-1,0
199,2.91585,0.757,-1,0
200,2.91661,0.757,-1,0
201,2.91736,0.753,-1,0
202,2.91811,0.752,-1,0
203,2.91886,0.752,-1,0
204,2.91961,0.748,-1,0
205,2.92036,0.747,-1,0
206,2.92110,0.745,-1,0
207,2.92185,0.745,-1,0
208,2.92259,0.743,-1,0
209,2.92333,0.742,-1,0
210,2.92407,0.742,-1,0
211,2.92481,0.740,-1,0
212,2.92555,0.738,-1,0
213,2.92629,0.736,-1,0
214,2.92702,0.734,-1,0
215,2.92776,0.732,-1,0
216,2.92849,0.732,-1,0
217,2.92922,0.732,-1,0
218,2.92995,0.729,-1,0
219,2.93068,0.730,-1,0
220,2.93140,0.726,-1,0
221,2.93213,0.725,-1,0
222,2.93285,0.724,-1,0
223,2.93358,0.723,-1,0
224,2.93430,0.722,-1,0
225,2.93502,0.720,-1,0
226,2.93573,0.717,-1,0
227,2.93645,0.717,-1,0
228,2.93717,0.715,-1,0
229,2.93788,0.714,-1,0
230,2.93859,0.714,-1,0
231,2.93930,0.711,-1,0
232,2.94001,0.710,-1,0
233,2.94072,0.707,-1,0
234,2.94143,0.708,-1,0
235,2.94213,0.704,-1,0
236,2.94284,0.704,-1,0
237,2.94354,0.702,-1,0
238,2.94424,0.700,-1,0
239,2.94494,0.698,-1,0
240,2.94564,0.697,-1,0
241,2.94633,0.696,-1,0
242,2.94703,0.695,-1,0
243,2.94772,0.694,-1,0
244,2.94841,0.693,-1,0
245,2.94910,0.691,-1,0
246,2.94979,0.690,-1,0
247,2.95048,0.688,-1,0
248,2.95117,0.686,-1,0
249,2.95185,0.686,-1,0
250,2.95254,0.684,-1,0
251,2.95322,0.682,-1,0
252,2.95390,0.681,-1,0
253,2.95458,0.680,-1,0
254,2.95526,0.678,-1,0
255,2.95593,0.675,-1,0
256,2.95661,0.677,-1,0
257,2.95728,0.674,-1,0
258,2.95796,0.674,-1,0
259,2.95863,0.672,-1,0
260,2.95930,0.671,-1,0
261,2.95997,0.669,-1,0
262,2.96064,0.668,-1,0
263,2.96130,0.666,-1,0
264,2.96197,0.665,-1,0
265,2.96263,0.665,-1,0
266,2.96330,0.662,-1,0
267,2.96396,0.660,-1,0
268,2.96462,0.661,-1,0
269,2.96528,0.659,-1,0
270,2.96593,0.660,-1,0
271,2.96659,0.656,-1,0
272,2.96725,0.655,-1,0
273,2.96790,0.653,-1,0
274,2.96855,0.651,-1,0
275,2.96920,0.648,-1,0
276,2.96985,0.648,-1,0
277,2.97049,0.646,-1,0
278,2.97114,0.646,-1,0
279,2.97178,0.646,-1,0
280,2.97243,0.644,-1,0
281,2.97307,0.643,-1,0
282,2.97371,0.643,-1,0
283,2.97435,0.640,-1,0
284,2.97499,0.638,-1,0
285,2.97563,0.638,-1,0
286,2.97627,0.636,-1,0
287,2.97690,0.633,-1,0
288,2.97753,0.633,-1,0
289,2.97816,0.631,-1,0
290,2.97879,0.627,-1,0
291,2.97942,0.628,-1,0
292,2.98005,0.628,-1,0
293,2.98068,0.628,-1,0
294,2.98130,0.626,-1,0
295,2.98193,0.626,-1,0
296,2.98255,0.623,-1,0
297,2.98317,0.621,-1,0
298,2.98379,0.618,-1,0
299,2.98441,0.620,-1,0
300,2.98503,0.619,-1,0
301,2.98565,0.617,-1,0
302,2.98626,0.614,-1,0
303,2.98687,0.613,-1,0
304,2.98748,0.611,-1,0
305,2.98810,0.612,-1,0
306,2.98871,0.611,-1,0
307,2.98932,0.610,-1,0
308,2.98993,0.610,-1,0
309,2.99053,0.607,-1,0
310,2.99114,0.605,-1,0
311,2.99174,0.602,-1,0
312,2.99234,0.601,-1,0
313,2.99294,0.602,-1,0
314,2.99354,0.600,-1,0
315,2.99414,0.598,-1,0
316,2.99474,0.597,-1,0
317,2.99533,0.596,-1,0
318,2.99593,0.595,-1,0
319,2.99653,0.595,-1,0
320,2.99712,0.594,-1,0
321,2.99771,0.594,-1,0
322,2.99831,0.594,-1,0
323,2.99890,0.592,-1,0
324,2.99949,0.592,-1,0
325,3.00008,0.587,-1,0
326,3.00066,0.587,-1,0
327,3.00125,0.584,-1,0
328,3.00183,0.583,-1,0
329,3.00241,0.582,-1,0
330,3.00300,0.583,-1,0
331,3.00358,0.582,-1,0
332,3.00416,0.582,-1,0
333,3.00474,0.582,-1,0
334,3.00532,0.579,-1,0
335,3.00590,0.580,-1,0
336,3.00648,0.579,-1,0
337,3.00706,0.576,-1,0
338,3.00763,0.575,-1,0
339,3.00820,0.572,-1,0
340,3.00877,0.570,-1,0
341,3.00934,0.568,-1,0
342,3.00991,0.566,-1,0
343,3.01047,0.565,-1,0
344,3.01104,0.566,-1,0
345,3.01160,0.566,-1,0
346,3.01217,0.566,-1,0
347,3.01274,0.565,-1,0
348,3.01330,0.562,-1,0
349,3.01386,0.558,-1,0
350,3.01441,0.553,-1,0
351,3.01496,0.550,-1,0
352,3.01551,0.547,-1,0
353,3.01605,0.546,-1,0
354,3.01660,0.545,-1,0
355,3.01714,0.545,-1,0
356,3.01768,0.541,-1,0
357,3.01822,0.539,-1,0
358,3.01876,0.535,-1,0
359,3.01929,0.531,-1,0
360,3.01982,0.528,-1,0
361,3.02034,0.526,-1,0
362,3.02087,0.523,-1,0
363,3.02139,0.520,-1,0
364,3.02190,0.515,-1,0
365,3.02241,0.512,-1,0
366,3.02292,0.507,-1,0
367,3.02342,0.504,-1,1
368,3.02392,0.499,-1,1
369,3.02442,0.495,-1,1
370,3.02491,0.491,-1,1
371,3.02540,0.487,-1,1
372,3.02588,0.482,-1,1
373,3.02636,0.477,-1,1
374,3.02683,0.473,-1,1
375,3.02730,0.469,-1,1
376,3.02776,0.465,-1,1
377,3.02823,0.461,-1,1
378,3.02868,0.459,-1,1
379,3.02914,0.452,-1,1
380,3.02958,0.447,-1,1
381,3.03002,0.441,-1,1
382,3.03046,0.435,-1,1
383,3.03089,0.431,-1,1
384,3.03131,0.423,-1,1
385,3.03173,0.420,-1,1
386,3.03215,0.413,-1,1
387,3.03256,0.410,-1,1
388,3.03296,0.402,-1,1
389,3.03335,0.398,-1,1
390,3.03375,0.393,-1,1
391,3.03413,0.387,-1,1
392,3.03451,0.380,-1,1
393,3.03489,0.373,-1,1
394,3.03525,0.367,-1,1
395,3.03561,0.360,-1,1
396,3.03597,0.352,-1,1
397,3.03631,0.348,-1,1
398,3.03666,0.342,-1,1
399,3.03699,0.336,-1,1
400,3.03732,0.329,-1,1
401,3.03765,0.323,-1,1
402,3.03796,0.317,-1,1
403,3.03827,0.310,-1,1
404,3.03858,0.304,-1,1
405,3.03887,0.297,-1,1
406,3.03916,0.289,-1,1
407,3.03944,0.281,-1,1
408,3.03972,0.273,-1,1
409,3.03998,0.264,-1,1
410,3.04049,0.250,-1,1
411,3.04073,0.243,-1,2
412,3.04097,0.237,-1,2
413,3.04120,0.231,-1,2
414,3.04142,0.225,-1,2
415,3.04164,0.219,-1,2
416,3.04185,0.211,-1,2
417,3.04206,0.203,-1,2
418,3.04225,0.189,-1,2
419,3.04262,0.181,-1,2
420,3.04280,0.176,-1,2
421,3.04297,0.168,-1,2
422,3.04313,0.161,-1,2
423,3.04328,0.154,-1,2
424,3.04357,0.142,-1,2
425,3.04370,0.132,-1,2
426,3.04383,0.126,-1,2
427,3.04395,0.117,-1,2
428,3.04406,0.110,-1,2
429,3.04416,0.103,-1,2
430,3.04434,0.089,-1,2
431,3.04442,0.083,-1,2
432,3.04450,0.076,-1,2
433,3.04457,0.072,-1,2
434,3.04464,0.065,-1,2
435,3.04470,0.060,-1,2
436,3.04475,0.050,-1,2
437,3.04480,0.048,-1,2
438,3.04485,0.048,-1,2
439,3.04490,0.043,-1,2
440,3.04493,0.038,-1,2
441,3.04501,0.035,-1,2
442,3.04504,0.034,-1,2
443,3.04507,0.032,-1,2
444,3.04511,0.032,-1,2
445,3.04516,0.028,-1,2
446,3.04516,0.027,-1,2
447,3.04519,0.027,-1,2
448,3.04522,0.028,-1,2
449,3.04525,0.028,-1,2
450,3.04528,0.029,-1,2
451,3.04531,0.029,-1,2
452,3.04537,0.031,-1,2
453,3.04540,0.036,-1,2
454,3.04548,0.038,-1,2
455,3.04552,0.041,-1,2
456,3.04556,0.043,-1,2
457,3.04561,0.047,-1,2
458,3.04566,0.051,-1,2
459,3.04571,0.056,-1,2
460,3.04577,0.060,-1,2
461,3.04584,0.064,-1,2
462,3.04591,0.069,-1,2
463,3.04607,0.082,-1,2
464,3.04615,0.087,-1,2
465,3.04625,0.094,-1,2
466,3.04635,0.102,-1,2
467,3.04646,0.108,-1,2
468,3.04657,0.117,-1,2
469,3.04670,0.124,-1,2
470,3.04683,0.133,-1,2
471,3.04697,0.141,-1,2
472,3.04712,0.150,-1,2
473,3.04728,0.169,-1,2
474,3.04763,0.178,-1,2
475,3.04782,0.188,-1,2
476,3.04802,0.200,-1,2
477,3.04822,0.209,-1,2
478,3.04844,0.220,-1,2
479,3.04868,0.230,-1,2
480,3.04892,0.243,-1,2
481,3.04917,0.255,-1,2
482,3.04944,0.267,-1,2
483,3.04972,0.280,-1,2
484,3.05031,0.304,-1,2
485,3.05063,0.318,-1,2
486,3.05096,0.332,-1,2
487,3.05131,0.345,-1,2
488,3.05167,0.358,-1,2
489,3.05204,0.371,-1,2
490,3.05242,0.385,-1,2
491,3.05282,0.397,-1,2
492,3.05323,0.413,-1,2
493,3.05366,0.424,-1,2
494,3.05410,0.439,-1,2
495,3.05501,0.465,-1,2
496,3.05549,0.495,-1,2
497,3.05599,0.495,-1,2
498,3.05650,0.510,-1,2
499,3.05756,0.537,-1,2
500,3.05811,0.550,-1,2
501,3.05867,0.563,-1,2
502,3.05925,0.576,-1,2
503,3.05984,0.589,-1,2
504,3.06105,0.614,-1,2
505,3.06105,0.626,-1,2
506,3.06168,0.626,-1,2
507,3.06297,0.649,-1,2
508,3.06362,0.660,-1,2
509,3.06430,0.682,-1,2
510,3.06498,0.695,-1,2
511,3.06638,0.706,-1,2
512,3.06710,0.719,-1,3
513,3.06782,0.727,-1,3
514,3.06856,0.734,-1,3
515,3.07006,0.753,-1,3
516,3.07082,0.765,-1,3
517,3.07159,0.771,-1,3
518,3.07237,0.779,-1,3
519,3.07316,0.784,-1,3
520,3.07395,0.792,-1,3
521,3.07475,0.798,-1,3
522,3.07636,0.813,-1,3
523,3.07718,0.816,-1,3
524,3.07800,0.817,-1,3
525,3.07882,0.822,-1,3
526,3.07965,0.829,-1,3
527,3.08048,0.842,-1,3
528,3.08217,0.846,-1,3
529,3.08302,0.846,-1,3
530,3.08387,0.847,-1,3
531,3.08472,0.853,-1,3
532,3.08557,0.856,-1,3
533,3.08643,0.856,-1,3
534,3.08729,0.857,-1,3
535,3.08814,0.854,-1,3
536,3.08900,0.857,-1,4
537,3.08986,0.861,-1,4
538,3.09159,0.863,-1,4
539,3.09245,0.860,-1,4
540,3.09330,0.857,-1,4
541,3.09416,0.856,-1,4
542,3.09502,0.857,-1,4
543,3.09587,0.855,-1,4
544,3.09672,0.852,-1,4
545,3.09757,0.848,-1,4
546,3.09842,0.849,-1,4
547,3.10012,0.850,-1,4
548,3.10097,0.848,-1,4
549,3.10181,0.841,-1,4
550,3.10264,0.835,-1,4
551,3.10348,0.835,-1,4
552,3.10431,0.833,-1,5
553,3.10515,0.833,-1,5
554,3.10597,0.821,-1,5
555,3.10761,0.816,-1,5
556,3.10842,0.813,-1,5
557,3.10924,0.812,-1,5
558,3.11004,0.808,-1,5
559,3.11163,0.790,-1,5
560,3.11242,0.787,-1,5
561,3.11321,0.786,-1,5
562,3.11399,0.785,-1,5
563,3.11477,0.780,-1,5
564,3.11554,0.770,-1,5
565,3.11630,0.759,-1,5
566,3.11706,0.756,-1,5
567,3.11857,0.755,-1,5
568,3.11932,0.749,-1,5
569,3.12006,0.738,-1,5
570,3.12079,0.729,-1,5
571,3.12151,0.727,-1,5
572,3.12224,0.726,-1,5
573,3.12296,0.724,-1,5
574,3.12368,0.717,-1,5
575,3.12439,0.704,-1,5
576,3.12508,0.695,-1,5
577,3.12577,0.693,-1,5
578,3.12647,0.693,-1,5
579,3.12716,0.691,-1,5
580,3.12784,0.684,-1,5
581,3.12852,0.675,-1,5
582,3.12918,0.668,-1,5
583,3.12985,0.664,-1,5
584,3.13051,0.666,-1,5
585,3.13118,0.663,-1,5
586,3.13183,0.657,-1,5
587,3.13248,0.650,-1,5
588,3.13313,0.644,-1,5
589,3.13377,0.642,-1,5
590,3.13441,0.640,-1,5
591,3.13505,0.636,-1,5
592,3.13568,0.632,-1,5
593,3.13631,0.629,-1,5
594,3.13693,0.627,-1,5
595,3.13756,0.622,-1,5
596,3.13817,0.612,-1,5
597,3.13939,0.608,-1,5
598,3.14000,0.605,-1,5
599,3.14060,0.603,-1,5
600,3.14120,0.600,-1,5
601,3.14180,0.596,-1,5
602,3.14239,0.590,-1,5
603,3.14356,0.585,-1,5
604,3.14414,0.580,-1,5
605,3.14472,0.579,-1,5
606,3.14529,0.575,-1,5
607,3.14586,0.573,-1,5
608,3.14700,0.568,-1,5
609,3.14757,0.560,-1,5
610,3.14869,0.557,-1,5
611,3.14869,0.554,-1,5
612,3.14924,0.553,-1,5
613,3.15035,0.552,-1,5
614,3.15090,0.550,-1,5
615,3.15144,0.547,-1,5
616,3.15253,0.540,-1,5
617,3.15306,0.537,-1,5
618,3.15360,0.533,-1,5
619,3.15413,0.534,-1,5
620,3.15466,0.534,-1,5
621,3.15520,0.533,-1,5
622,3.15626,0.531,-1,5
623,3.15679,0.524,-1,5
624,3.15731,0.524,-1,5
625,3.15784,0.523,-1,5
626,3.15836,0.523,-1,5
627,3.15888,0.525,-1,5
628,3.15994,0.527,-1,5
629,3.16046,0.525,-1,5
630,3.16098,0.522,-1,5
631,3.16202,0.518,-1,5
632,3.16254,0.517,-1,5
633,3.16305,0.516,-1,5
634,3.16357,0.517,-1,5
635,3.16409,0.518,-1,5
636,3.16512,0.516,-1,5
637,3.16564,0.515,-1,5
638,3.16615,0.514,-1,5
639,3.16667,0.516,-1,5
640,3.16719,0.517,-1,5
641,3.16770,0.516,-1,5
642,3.16822,0.517,-1,5
643,3.16874,0.520,-1,5
644,3.16926,0.519,-1,5
645,3.16978,0.518,-1,5
646,3.17080,0.514,-1,5
647,3.17132,0.513,-1,5
648,3.17183,0.513,-1,5
649,3.17235,0.515,-1,5
650,3.17286,0.514,-1,5
651,3.17337,0.515,-1,5
652,3.17389,0.514,-1,5
653,3.17440,0.513,-1,5
654,3.17491,0.513,-1,5
655,3.17594,0.515,-1,5
656,3.17646,0.516,-1,5
657,3.17697,0.516,-1,5
658,3.17749,0.515,-1,5
659,3.17852,0.516,-1,5
660,3.17852,0.515,-1,5
661,3.17903,0.515,-1,5
662,3.17955,0.514,-1,5
663,3.18006,0.514,-1,5
664,3.18057,0.512,-1,5
665,3.18160,0.511,-1,5
666,3.18211,0.510,-1,5
667,3.18313,0.510,-1,5
668,3.18364,0.512,-1,5
669,3.18415,0.511,-1,5
670,3.18466,0.509,-1,5
671,3.18517,0.509,-1,5
672,3.18618,0.505,-1,5
673,3.18669,0.508,-1,5
674,3.18720,0.508,-1,5
675,3.18770,0.507,-1,5
676,3.18821,0.506,-1,5
677,3.18871,0.504,-1,5
678,3.18972,0.504,-1,5
679,3.19022,0.503,-1,5
680,3.19072,0.498,-1,5
681,3.19122,0.498,-1,5
682,3.19172,0.498,-1,5
683,3.19222,0.500,-1,5
684,3.19321,0.495,-1,5
685,3.19370,0.492,-1,5
686,3.19419,0.492,-1,5
687,3.19469,0.493,-1,5
688,3.19518,0.492,-1,5
689,3.19616,0.487,-1,5
690,3.19664,0.488,-1,5
691,3.19713,0.489,-1,5
692,3.19762,0.486,-1,5
693,3.19810,0.484,-1,5
694,3.19859,0.482,-1,5
695,3.19907,0.483,-1,5
696,3.19955,0.481,-1,5
697,3.20003,0.478,-1,5
698,3.20050,0.475,-1,5
699,3.20145,0.472,-1,5
700,3.20192,0.471,-1,5
701,3.20239,0.470,-1,5
702,3.20285,0.465,-1,5
703,3.20332,0.463,-1,5
704,3.20378,0.463,-1,5
705,3.20424,0.460,-1,5
706,3.20469,0.456,-1,5
707,3.20515,0.455,-1,5
708,3.20606,0.452,-1,5
709,3.20651,0.453,-1,5
710,3.20696,0.447,-1,5
711,3.20784,0.443,-1,5
712,3.20828,0.442,-1,5
713,3.20828,0.442,-1,5
714,3.20916,0.435,-1,5
715,3.20959,0.431,-1,5
716,3.21002,0.428,-1,5
717,3.21045,0.426,-1,5
718,3.21087,0.422,-1,5
719,3.21172,0.420,-1,5
720,3.21213,0.416,-1,5
721,3.21255,0.417,-1,5
722,3.21296,0.415,-1,5
723,3.21379,0.408,-1,5
724,3.21419,0.408,-1,5
725,3.21460,0.406,-1,5
726,3.21501,0.407,-1,5
727,3.21541,0.405,-1,5
728,3.21581,0.401,-1,5
729,3.21621,0.399,-1,5
730,3.21661,0.398,-1,5
731,3.21740,0.395,-1,5
732,3.21780,0.393,-1,5
733,3.21819,0.390,-1,5
734,3.21857,0.388,-1,5
735,3.21896,0.386,-1,5
736,3.21934,0.384,-1,5
737,3.21973,0.382,-1,5
738,3.22010,0.379,-1,5
739,3.22048,0.378,-1,5
740,3.22086,0.377,-1,5
741,3.22123,0.374,-1,5
742,3.22161,0.373,-1,5
743,3.22235,0.370,-1,5
744,3.22272,0.372,-1,5
745,3.22346,0.365,-1,5
746,3.22382,0.365,-1,5
747,3.22419,0.365,-1,5
748,3.22455,0.360,-1,5
749,3.22491,0.360,-1,5
750,3.22562,0.353,-1,5
751,3.22597,0.353,-1,5
752,3.22632,0.352,-1,5
753,3.22667,0.351,-1,5
754,3.22702,0.347,-1,5
755,3.22737,0.346,-1,5
756,3.22771,0.345,-1,5
757,3.22805,0.344,-1,5
758,3.22839,0.339,-1,5
759,3.22907,0.337,-1,5
760,3.22941,0.336,-1,5
761,3.22974,0.334,-1,5
762,3.23007,0.331,-1,5
763,3.23040,0.332,-1,5
764,3.23073,0.329,-1,5
765,3.23139,0.329,-1,5
766,3.23172,0.327,-1,5
767,3.23204,0.326,-1,5
768,3.23237,0.325,-1,5
769,3.23269,0.323,-1,5
770,3.23301,0.318,-1,5
771,3.23365,0.317,-1,5
772,3.23365,0.315,-1,5
773,3.23396,0.315,-1,5
774,3.23459,0.311,-1,5
775,3.23490,0.310,-1,5
776,3.23521,0.308,-1,5
777,3.23551,0.307,-1,5
778,3.23582,0.306,-1,5
779,3.23643,0.303,-1,5
780,3.23673,0.302,-1,5
781,3.23703,0.301,-1,5
782,3.23733,0.299,-1,5
783,3.23763,0.298,-1,5
784,3.23792,0.296,-1,5
785,3.23822,0.293,-1,5
786,3.23880,0.291,-1,5
787,3.23909,0.289,-1,5
788,3.23966,0.286,-1,5
789,3.23995,0.284,-1,5
790,3.24023,0.285,-1,5
791,3.24052,0.284,-1,5
792,3.24108,0.283,-1,5
793,3.24137,0.284,-1,5
794,3.24137,0.282,-1,5
795,3.24165,0.282,-1,5
796,3.24193,0.280,-1,5
797,3.24249,0.281,-1,5
798,3.24277,0.280,-1,5
799,3.24305,0.279,-1,5
800,3.24333,0.277,-1,5
801,3.24388,0.277,-1,5
802,3.24416,0.277,-1,5
803,3.24444,0.275,-1,5
804,3.24471,0.275,-1,5
805,3.24499,0.275,-1,5
806,3.24526,0.276,-1,5
807,3.24554,0.276,-1,5
808,3.24582,0.275,-1,5
809,3.24637,0.275,-1,5
810,3.24664,0.274,-1,5
811,3.24691,0.273,-1,5
812,3.24718,0.271,-1,5
813,3.24745,0.271,-1,5
814,3.24772,0.270,-1,5
815,3.24799,0.270,-1,5
816,3.24826,0.267,-1,5
817,3.24879,0.266,-1,5
818,3.24906,0.266,-1,5
819,3.24933,0.266,-1,5
820,3.24959,0.267,-1,5
821,3.24986,0.266,-1,5
822,3.25039,0.266,-1,5
823,3.25066,0.266,-1,5
824,3.25092,0.266,-1,5
825,3.25119,0.266,-1,5
826,3.25145,0.266,-1,5
827,3.25172,0.265,-1,5
828,3.25198,0.264,-1,5
829,3.25251,0.263,-1,5
830,3.25277,0.262,-1,5
831,3.25303,0.261,-1,5
832,3.25329,0.261,-1,5
833,3.25355,0.260,-1,5
834,3.25381,0.260,-1,5
835,3.25433,0.259,-1,5
836,3.25459,0.260,-1,5
837,3.25485,0.259,-1,5
838,3.25511,0.260,-1,5
839,3.25537,0.259,-1,5
840,3.25563,0.258,-1,5
841,3.25589,0.257,-1,5
842,3.25615,0.257,-1,5
843,3.25640,0.255,-1,5
844,3.25691,0.252,-1,5
845,3.25716,0.250,-1,5
846,3.25741,0.249,-1,5
847,3.25765,0.248,-1,5
848,3.25815,0.246,-1,5
849,3.25839,0.245,-1,5
850,3.25864,0.243,-1,5
851,3.25888,0.244,-1,5
852,3.25912,0.243,-1,5
853,3.25937,0.243,-1,5
854,3.25985,0.244,-1,5
855,3.26010,0.245,-1,5
856,3.26034,0.243,-1,5
857,3.26058,0.242,-1,5
858,3.26082,0.242,-1,5
859,3.26107,0.242,-1,5
860,3.26131,0.241,-1,5
861,3.26155,0.238,-1,5
862,3.26178,0.239,-1,5
863,3.26226,0.236,-1,5
864,3.26249,0.235,-1,5
865,3.26273,0.234,-1,5
866,3.26296,0.233,-1,5
867,3.26319,0.233,-1,5
868,3.26343,0.234,-1,5
869,3.26366,0.232,-1,5
870,3.26389,0.232,-1,5
871,3.26412,0.232,-1,5
872,3.26458,0.231,-1,5
873,3.26482,0.232,-1,5
