cnt,pos,speed,Dir,Force,
1,1.80532,1.003,-1,0
2,1.80633,1.015,-1,0
3,1.80735,1.024,-1,0
4,1.80839,1.036,-1,0
5,1.80944,1.048,-1,0
6,1.81050,1.057,-1,0
7,1.81156,1.069,-1,0
8,1.81264,1.075,-1,0
9,1.81372,1.083,-1,0
10,1.81481,1.089,-1,0
11,1.81591,1.098,-1,0
12,1.81702,1.109,-1,0
13,1.81814,1.120,-1,0
14,1.81927,1.130,-1,0
15,1.82041,1.139,-1,0
16,1.82155,1.140,-1,0
17,1.82269,1.146,-1,0
18,1.82384,1.151,-1,0
19,1.82500,1.163,-1,0
20,1.82618,1.175,-1,0
21,1.82737,1.186,-1,0
22,1.82856,1.191,-1,0
23,1.82975,1.193,-1,0
24,1.83094,1.195,-1,0
25,1.83215,1.201,-1,0
26,1.83336,1.214,-1,0
27,1.83459,1.225,-1,0
28,1.83582,1.238,-1,0
29,1.83706,1.238,-1,0
30,1.83830,1.237,-1,0
31,1.83954,1.237,-1,0
32,1.84078,1.247,-1,0
33,1.84204,1.260,-1,0
34,1.84332,1.273,-1,0
35,1.84459,1.277,-1,0
36,1.84587,1.275,-1,0
37,1.84714,1.274,-1,0
38,1.84970,1.289,-1,0
39,1.85100,1.300,-1,0
40,1.85231,1.308,-1,0
41,1.85362,1.308,-1,0
42,1.85492,1.305,-1,0
43,1.85623,1.301,-1,0
44,1.85753,1.308,-1,0
45,1.85886,1.324,-1,0
46,1.86019,1.336,-1,0
47,1.86153,1.336,-1,0
48,1.86286,1.332,-1,0
49,1.86419,1.327,-1,0
50,1.86552,1.327,-1,0
51,1.86685,1.339,-1,0
52,1.86821,1.351,-1,0
53,1.86957,1.355,-1,0
54,1.87092,1.350,-1,0
55,1.87362,1.348,-1,0
56,1.87497,1.352,-1,0
57,1.87497,1.362,-1,0
58,1.87771,1.373,-1,0
59,1.87908,1.374,-1,0
60,1.88045,1.371,-1,0
61,1.88045,1.366,-1,0
62,1.88182,1.366,-1,0
63,1.88318,1.366,-1,0
64,1.88456,1.372,-1,0
65,1.88594,1.380,-1,0
66,1.88732,1.387,-1,0
67,1.88871,1.386,-1,0
68,1.89009,1.384,-1,0
69,1.89286,1.382,-1,0
70,1.89424,1.386,-1,0
71,1.89563,1.391,-1,0
72,1.89703,1.394,-1,0
73,1.89842,1.396,-1,0
74,1.89982,1.395,-1,0
75,1.90121,1.395,-1,0
76,1.90260,1.393,-1,0
77,1.90400,1.393,-1,0
78,1.90539,1.395,-1,0
79,1.90679,1.399,-1,0
80,1.90820,1.403,-1,0
81,1.90960,1.403,-1,0
82,1.91100,1.399,-1,0
83,1.91239,1.395,-1,0
84,1.91379,1.395,-1,0
85,1.91519,1.398,-1,0
86,1.91659,1.402,-1,0
87,1.91799,1.402,-1,0
88,1.91939,1.402,-1,0
89,1.92079,1.398,-1,0
90,1.92219,1.397,-1,0
91,1.92358,1.398,-1,0
92,1.92498,1.400,-1,0
93,1.92638,1.399,-1,0
94,1.92918,1.397,-1,0
95,1.93057,1.397,-1,0
96,1.93197,1.396,-1,0
97,1.93336,1.394,-1,0
98,1.93476,1.394,-1,0
99,1.93615,1.391,-1,0
100,1.93754,1.393,-1,0
101,1.93893,1.392,-1,0
102,1.94032,1.390,-1,0
103,1.94171,1.386,-1,0
104,1.94310,1.386,-1,0
105,1.94448,1.386,-1,0
106,1.94587,1.387,-1,0
107,1.94726,1.386,-1,0
108,1.95002,1.378,-1,0
109,1.95139,1.377,-1,0
110,1.95277,1.378,-1,0
111,1.95415,1.381,-1,0
112,1.95553,1.377,-1,0
113,1.95690,1.374,-1,0
114,1.95827,1.368,-1,0
115,1.95964,1.367,-1,0
116,1.96101,1.367,-1,0
117,1.96238,1.371,-1,0
118,1.96374,1.367,-1,0
119,1.96510,1.362,-1,0
120,1.96646,1.357,-1,0
121,1.96782,1.356,-1,0
122,1.96917,1.358,-1,0
123,1.97053,1.359,-1,0
124,1.97324,1.348,-1,0
125,1.97458,1.345,-1,0
126,1.97593,1.344,-1,0
127,1.97727,1.346,-1,0
128,1.97861,1.338,-1,0
129,1.98129,1.336,-1,0
130,1.98262,1.332,-1,0
131,1.98395,1.334,-1,0
132,1.98529,1.333,-1,0
133,1.98662,1.331,-1,0
134,1.98794,1.324,-1,0
135,1.98926,1.322,-1,0
136,1.99059,1.322,-1,0
137,1.99191,1.323,-1,0
138,1.99323,1.320,-1,0
139,1.99454,1.315,-1,0
140,1.99585,1.309,-1,0
141,1.99716,1.311,-1,0
142,1.99847,1.309,-1,0
143,1.99978,1.308,-1,0
144,2.00108,1.305,-1,0
145,2.00239,1.302,-1,0
146,2.00368,1.296,-1,0
147,2.00628,1.295,-1,0
148,2.00757,1.294,-1,0
149,2.00886,1.290,-1,0
150,2.01015,1.288,-1,0
151,2.01144,1.287,-1,0
152,2.01272,1.282,-1,0
153,2.01400,1.283,-1,0
154,2.01528,1.281,-1,0
155,2.01656,1.278,-1,0
156,2.01784,1.277,-1,0
157,2.01911,1.272,-1,0
158,2.02038,1.271,-1,0
159,2.02165,1.268,-1,0
160,2.02291,1.266,-1,0
161,2.02418,1.270,-1,0
162,2.02545,1.264,-1,0
163,2.02671,1.260,-1,0
164,2.02797,1.260,-1,0
165,2.02922,1.257,-1,0
166,2.03173,1.253,-1,0
167,2.03299,1.255,-1,0
168,2.03424,1.249,-1,0
169,2.03549,1.249,-1,0
170,2.03673,1.243,-1,0
171,2.03797,1.245,-1,0
172,2.03921,1.239,-1,0
173,2.04045,1.240,-1,0
174,2.04169,1.234,-1,0
175,2.04292,1.235,-1,0
176,2.04415,1.230,-1,0
177,2.04538,1.228,-1,0
178,2.04661,1.226,-1,0
179,2.04783,1.226,-1,0
180,2.04905,1.223,-1,0
181,2.05027,1.219,-1,0
182,2.05149,1.219,-1,0
183,2.05271,1.215,-1,0
184,2.05514,1.214,-1,0
185,2.05635,1.212,-1,0
186,2.05756,1.210,-1,0
187,2.05877,1.209,-1,0
188,2.05997,1.205,-1,0
189,2.06118,1.205,-1,0
190,2.06238,1.200,-1,0
191,2.06358,1.199,-1,0
192,2.06477,1.197,-1,0
193,2.06597,1.192,-1,0
194,2.06716,1.192,-1,0
195,2.06835,1.189,-1,0
196,2.06953,1.186,-1,0
197,2.07072,1.184,-1,0
198,2.07190,1.184,-1,0
199,2.07308,1.180,-1,0
200,2.07426,1.178,-1,0
201,2.07543,1.177,-1,0
202,2.07661,1.175,-1,0
203,2.07778,1.174,-1,0
204,2.07895,1.172,-1,0
205,2.08013,1.172,-1,0
206,2.08130,1.170,-1,0
207,2.08247,1.166,-1,0
208,2.08480,1.165,-1,0
209,2.08596,1.165,-1,0
210,2.08713,1.164,-1,0
211,2.08829,1.160,-1,0
212,2.08944,1.159,-1,0
213,2.09060,1.156,-1,0
214,2.09175,1.154,-1,0
215,2.09291,1.151,-1,0
216,2.09405,1.149,-1,0
217,2.09520,1.145,-1,0
218,2.09634,1.144,-1,0
219,2.09749,1.142,-1,0
220,2.09863,1.141,-1,0
221,2.09976,1.137,-1,0
222,2.10090,1.134,-1,0
223,2.10203,1.134,-1,0
224,2.10317,1.133,-1,0
225,2.10430,1.132,-1,0
226,2.10543,1.132,-1,0
227,2.10656,1.127,-1,0
228,2.10768,1.123,-1,0
229,2.10880,1.123,-1,0
230,2.10993,1.122,-1,0
231,2.11217,1.119,-1,0
232,2.11328,1.118,-1,0
233,2.11440,1.114,-1,0
234,2.11551,1.111,-1,0
235,2.11662,1.108,-1,0
236,2.11772,1.106,-1,0
237,2.11883,1.105,-1,0
238,2.11993,1.103,-1,0
239,2.12103,1.102,-1,0
240,2.12213,1.100,-1,0
241,2.12323,1.097,-1,0
242,2.12432,1.094,-1,0
243,2.12542,1.093,-1,0
244,2.12651,1.091,-1,0
245,2.12760,1.091,-1,0
246,2.12869,1.089,-1,0
247,2.12978,1.087,-1,0
248,2.13086,1.085,-1,0
249,2.13194,1.082,-1,0
250,2.13302,1.078,-1,0
251,2.13410,1.075,-1,0
252,2.13625,1.074,-1,0
253,2.13732,1.074,-1,0
254,2.13839,1.071,-1,0
255,2.13946,1.066,-1,0
256,2.14052,1.065,-1,0
257,2.14159,1.064,-1,0
258,2.14265,1.063,-1,0
259,2.14371,1.063,-1,0
260,2.14477,1.061,-1,0
261,2.14583,1.060,-1,0
262,2.14689,1.054,-1,0
263,2.14794,1.053,-1,0
264,2.14899,1.049,-1,0
265,2.15004,1.046,-1,0
266,2.15108,1.047,-1,0
267,2.15213,1.046,-1,0
268,2.15317,1.046,-1,0
269,2.15422,1.041,-1,0
270,2.15525,1.037,-1,0
271,2.15629,1.034,-1,0
272,2.15835,1.032,-1,0
273,2.15938,1.032,-1,0
274,2.16041,1.029,-1,0
275,2.16144,1.031,-1,0
276,2.16247,1.026,-1,0
277,2.16349,1.022,-1,0
278,2.16451,1.021,-1,0
279,2.16553,1.019,-1,0
280,2.16655,1.017,-1,0
281,2.16757,1.016,-1,0
282,2.16858,1.016,-1,0
283,2.16959,1.012,-1,0
284,2.17060,1.011,-1,0
285,2.17161,1.008,-1,0
286,2.17262,1.004,-1,0
287,2.17362,1.004,-1,0
288,2.17462,1.002,-1,0
289,2.17562,0.999,-1,0
290,2.17662,1.000,-1,0
291,2.17762,0.994,-1,0
292,2.17861,0.992,-1,0
293,2.17960,0.989,-1,0
294,2.18158,0.989,-1,0
295,2.18257,0.986,-1,0
296,2.18355,0.986,-1,0
297,2.18454,0.984,-1,0
298,2.18552,0.981,-1,0
299,2.18650,0.979,-1,0
300,2.18747,0.975,-1,0
301,2.18845,0.976,-1,0
302,2.18942,0.972,-1,0
303,2.19039,0.974,-1,0
304,2.19136,0.970,-1,0
305,2.19233,0.970,-1,0
306,2.19330,0.966,-1,0
307,2.19427,0.966,-1,0
308,2.19523,0.960,-1,0
309,2.19619,0.961,-1,0
310,2.19714,0.957,-1,0
311,2.19810,0.958,-1,0
312,2.19906,0.955,-1,0
313,2.20001,0.955,-1,0
314,2.20096,0.951,-1,0
315,2.20191,0.947,-1,0
316,2.20380,0.945,-1,0
317,2.20475,0.944,-1,0
318,2.20569,0.941,-1,0
319,2.20663,0.941,-1,0
320,2.20757,0.939,-1,0
321,2.20850,0.937,-1,0
322,2.20944,0.934,-1,0
323,2.21037,0.932,-1,0
324,2.21130,0.931,-1,0
325,2.21223,0.930,-1,0
326,2.21316,0.925,-1,0
327,2.21409,0.927,-1,0
328,2.21501,0.924,-1,0
329,2.21593,0.921,-1,0
330,2.21685,0.921,-1,0
331,2.21777,0.918,-1,0
332,2.21868,0.916,-1,0
333,2.21960,0.915,-1,0
334,2.22051,0.913,-1,0
335,2.22142,0.910,-1,0
336,2.22324,0.909,-1,0
337,2.22415,0.905,-1,0
338,2.22505,0.903,-1,0
339,2.22595,0.904,-1,0
340,2.22686,0.902,-1,0
341,2.22775,0.898,-1,0
342,2.22865,0.897,-1,0
343,2.22955,0.897,-1,0
344,2.23044,0.894,-1,0
345,2.23133,0.892,-1,0
346,2.23222,0.888,-1,0
347,2.23311,0.886,-1,0
348,2.23399,0.883,-1,0
349,2.23487,0.882,-1,0
350,2.23576,0.881,-1,0
351,2.23663,0.879,-1,0
352,2.23751,0.880,-1,0
353,2.23839,0.878,-1,0
354,2.24014,0.873,-1,0
355,2.24101,0.870,-1,0
356,2.24188,0.867,-1,0
357,2.24274,0.866,-1,0
358,2.24361,0.864,-1,0
359,2.24447,0.864,-1,0
360,2.24534,0.864,-1,0
361,2.24620,0.862,-1,0
362,2.24706,0.859,-1,0
363,2.24792,0.858,-1,0
364,2.24877,0.853,-1,0
365,2.24962,0.852,-1,0
366,2.25047,0.851,-1,0
367,2.25132,0.849,-1,0
368,2.25217,0.846,-1,0
369,2.25301,0.847,-1,0
370,2.25386,0.846,-1,0
371,2.25470,0.845,-1,0
372,2.25555,0.843,-1,0
373,2.25639,0.839,-1,0
374,2.25722,0.836,-1,0
375,2.25806,0.834,-1,0
376,2.25889,0.833,-1,0
377,2.25972,0.832,-1,0
378,2.26055,0.830,-1,0
379,2.26221,0.829,-1,0
380,2.26304,0.826,-1,0
381,2.26386,0.824,-1,0
382,2.26468,0.821,-1,0
383,2.26550,0.818,-1,0
384,2.26632,0.816,-1,0
385,2.26713,0.816,-1,0
386,2.26795,0.816,-1,0
387,2.26876,0.816,-1,0
388,2.26958,0.815,-1,0
389,2.27039,0.812,-1,0
390,2.27120,0.808,-1,0
391,2.27200,0.805,-1,0
392,2.27280,0.801,-1,0
393,2.27360,0.801,-1,0
394,2.27440,0.799,-1,0
395,2.27520,0.798,-1,0
396,2.27600,0.800,-1,0
397,2.27680,0.798,-1,0
398,2.27760,0.794,-1,0
399,2.27839,0.790,-1,0
400,2.27997,0.786,-1,0
401,2.28075,0.783,-1,0
402,2.28153,0.783,-1,0
403,2.28231,0.781,-1,0
404,2.28310,0.783,-1,0
405,2.28388,0.784,-1,0
406,2.28466,0.781,-1,0
407,2.28544,0.781,-1,0
408,2.28622,0.777,-1,0
409,2.28699,0.773,-1,0
410,2.28776,0.769,-1,0
411,2.28853,0.765,-1,0
412,2.28929,0.765,-1,0
413,2.29006,0.765,-1,0
414,2.29082,0.765,-1,0
415,2.29159,0.765,-1,0
416,2.29235,0.766,-1,0
417,2.29312,0.765,-1,0
418,2.29388,0.760,-1,0
419,2.29463,0.756,-1,0
420,2.29539,0.753,-1,0
421,2.29688,0.748,-1,0
422,2.29763,0.748,-1,0
423,2.29838,0.750,-1,0
424,2.29913,0.748,-1,0
425,2.29988,0.748,-1,0
426,2.30062,0.746,-1,0
427,2.30137,0.743,-1,0
428,2.30211,0.739,-1,0
429,2.30284,0.735,-1,0
430,2.30357,0.732,-1,0
431,2.30430,0.729,-1,0
432,2.30503,0.731,-1,0
433,2.30577,0.733,-1,0
434,2.30650,0.732,-1,0
435,2.30723,0.731,-1,0
436,2.30796,0.728,-1,0
437,2.30868,0.724,-1,0
438,2.30940,0.722,-1,0
439,2.31012,0.718,-1,0
440,2.31084,0.717,-1,0
441,2.31155,0.715,-1,0
442,2.31227,0.714,-1,0
443,2.31298,0.714,-1,0
444,2.31441,0.714,-1,0
445,2.31512,0.712,-1,0
446,2.31583,0.710,-1,0
447,2.31654,0.707,-1,0
448,2.31724,0.702,-1,0
449,2.31794,0.702,-1,0
450,2.31864,0.697,-1,0
451,2.31934,0.699,-1,0
452,2.32004,0.696,-1,0
453,2.32074,0.700,-1,0
454,2.32143,0.695,-1,0
455,2.32213,0.696,-1,0
456,2.32282,0.692,-1,0
457,2.32351,0.691,-1,0
458,2.32420,0.687,-1,0
459,2.32488,0.687,-1,0
460,2.32557,0.684,-1,0
461,2.32625,0.683,-1,0
462,2.32693,0.678,-1,0
463,2.32761,0.679,-1,0
464,2.32828,0.675,-1,0
465,2.32896,0.678,-1,0
466,2.32964,0.676,-1,0
467,2.33031,0.673,-1,0
468,2.33099,0.673,-1,0
469,2.33166,0.672,-1,0
470,2.33233,0.666,-1,0
471,2.33299,0.665,-1,0
472,2.33366,0.665,-1,0
473,2.33432,0.663,-1,0
474,2.33498,0.659,-1,0
475,2.33564,0.658,-1,0
476,2.33629,0.654,-1,0
477,2.33695,0.655,-1,0
478,2.33760,0.654,-1,0
479,2.33825,0.653,-1,0
480,2.33891,0.655,-1,0
481,2.33956,0.653,-1,0
482,2.34021,0.651,-1,0
483,2.34086,0.648,-1,0
484,2.34150,0.644,-1,0
485,2.34214,0.642,-1,0
486,2.34278,0.639,-1,0
487,2.34342,0.637,-1,0
488,2.34406,0.636,-1,0
489,2.34533,0.636,-1,0
490,2.34597,0.635,-1,0
491,2.34660,0.634,-1,0
492,2.34724,0.634,-1,0
493,2.34787,0.631,-1,0
494,2.34849,0.629,-1,0
495,2.34912,0.627,-1,0
496,2.34975,0.625,-1,0
497,2.35037,0.620,-1,0
498,2.35099,0.619,-1,0
499,2.35160,0.617,-1,0
500,2.35222,0.618,-1,0
501,2.35284,0.616,-1,0
502,2.35345,0.615,-1,0
503,2.35407,0.615,-1,0
504,2.35468,0.614,-1,0
505,2.35529,0.612,-1,0
506,2.35651,0.610,-1,0
507,2.35712,0.606,-1,0
508,2.35772,0.603,-1,0
509,2.35832,0.599,-1,0
510,2.35892,0.598,-1,0
511,2.35951,0.595,-1,0
512,2.36011,0.596,-1,0
513,2.36070,0.594,-1,0
514,2.36130,0.594,-1,0
515,2.36189,0.594,-1,0
516,2.36248,0.593,-1,0
517,2.36307,0.591,-1,0
518,2.36366,0.589,-1,0
519,2.36425,0.586,-1,0
520,2.36483,0.583,-1,0
521,2.36541,0.580,-1,0
522,2.36599,0.579,-1,0
523,2.36657,0.578,-1,0
524,2.36715,0.577,-1,0
525,2.36772,0.576,-1,0
526,2.36830,0.576,-1,0
527,2.36887,0.575,-1,0
528,2.36945,0.574,-1,0
529,2.37002,0.573,-1,0
530,2.37116,0.569,-1,0
531,2.37173,0.566,-1,0
532,2.37229,0.563,-1,0
533,2.37285,0.560,-1,0
534,2.37341,0.558,-1,0
535,2.37396,0.557,-1,0
536,2.37452,0.556,-1,0
537,2.37507,0.555,-1,0
538,2.37563,0.555,-1,0
539,2.37618,0.554,-1,0
540,2.37674,0.554,-1,0
541,2.37729,0.552,-1,0
542,2.37784,0.551,-1,0
543,2.37839,0.546,-1,0
544,2.37894,0.545,-1,0
545,2.38002,0.542,-1,0
546,2.38056,0.541,-1,0
547,2.38110,0.540,-1,0
548,2.38164,0.538,-1,0
549,2.38218,0.535,-1,0
550,2.38271,0.534,-1,0
551,2.38324,0.531,-1,0
552,2.38377,0.531,-1,0
553,2.38430,0.530,-1,0
554,2.38483,0.529,-1,0
555,2.38536,0.528,-1,0
556,2.38589,0.526,-1,0
557,2.38641,0.525,-1,0
558,2.38693,0.524,-1,0
559,2.38746,0.521,-1,0
560,2.38798,0.520,-1,0
561,2.38849,0.517,-1,0
562,2.38901,0.517,-1,0
563,2.38952,0.514,-1,0
564,2.39004,0.513,-1,0
565,2.39055,0.511,-1,0
566,2.39106,0.511,-1,0
567,2.39157,0.509,-1,0
568,2.39207,0.508,-1,0
569,2.39258,0.506,-1,0
570,2.39309,0.503,-1,0
571,2.39359,0.503,-1,0
572,2.39409,0.502,-1,0
573,2.39459,0.500,-1,0
574,2.39509,0.500,-1,0
575,2.39559,0.498,-1,0
576,2.39609,0.496,-1,0
577,2.39658,0.494,-1,0
578,2.39707,0.491,-1,0
579,2.39756,0.491,-1,0
580,2.39805,0.490,-1,0
581,2.39854,0.487,-1,0
582,2.39903,0.487,-1,0
583,2.39951,0.487,-1,0
584,2.40000,0.486,-1,0
585,2.40048,0.485,-1,0
586,2.40097,0.483,-1,0
587,2.40145,0.481,-1,0
588,2.40193,0.477,-1,0
589,2.40241,0.475,-1,0
590,2.40288,0.475,-1,0
591,2.40383,0.474,-1,0
592,2.40430,0.471,-1,0
593,2.40477,0.471,-1,0
594,2.40524,0.471,-1,0
595,2.40571,0.467,-1,0
596,2.40618,0.465,-1,0
597,2.40664,0.465,-1,0
598,2.40710,0.464,-1,0
599,2.40757,0.462,-1,0
600,2.40803,0.461,-1,0
601,2.40849,0.460,-1,0
602,2.40895,0.459,-1,0
603,2.40941,0.459,-1,0
604,2.40986,0.456,-1,0
605,2.41032,0.453,-1,0
606,2.41077,0.450,-1,0
607,2.41122,0.448,-1,0
608,2.41212,0.448,-1,0
609,2.41256,0.445,-1,0
610,2.41301,0.445,-1,0
611,2.41345,0.443,-1,0
612,2.41389,0.441,-1,0
613,2.41433,0.443,-1,0
614,2.41477,0.440,-1,0
615,2.41521,0.439,-1,0
616,2.41565,0.437,-1,0
617,2.41608,0.435,-1,0
618,2.41652,0.435,-1,0
619,2.41695,0.432,-1,0
620,2.41738,0.433,-1,0
621,2.41781,0.430,-1,0
622,2.41824,0.428,-1,0
623,2.41867,0.427,-1,0
624,2.41910,0.426,-1,0
625,2.41952,0.424,-1,0
626,2.41994,0.422,-1,0
627,2.42078,0.419,-1,0
628,2.42120,0.419,-1,0
629,2.42162,0.415,-1,0
630,2.42203,0.417,-1,0
631,2.42245,0.414,-1,0
632,2.42286,0.416,-1,0
633,2.42327,0.411,-1,0
634,2.42369,0.413,-1,0
635,2.42410,0.410,-1,0
636,2.42451,0.410,-1,0
637,2.42491,0.407,-1,0
638,2.42532,0.406,-1,0
639,2.42573,0.405,-1,0
640,2.42613,0.402,-1,0
641,2.42653,0.401,-1,0
642,2.42693,0.401,-1,0
643,2.42733,0.400,-1,0
644,2.42773,0.397,-1,0
645,2.42813,0.399,-1,0
646,2.42852,0.395,-1,0
647,2.42892,0.395,-1,0
648,2.42931,0.391,-1,0
649,2.43009,0.390,-1,0
650,2.43048,0.387,-1,0
651,2.43086,0.388,-1,0
652,2.43125,0.387,-1,0
653,2.43164,0.385,-1,0
654,2.43202,0.385,-1,0
655,2.43240,0.383,-1,0
656,2.43279,0.383,-1,0
657,2.43317,0.381,-1,0
658,2.43355,0.379,-1,0
659,2.43392,0.377,-1,0
660,2.43430,0.374,-1,0
661,2.43467,0.373,-1,0
662,2.43504,0.373,-1,0
663,2.43541,0.369,-1,0
664,2.43578,0.370,-1,0
665,2.43615,0.369,-1,0
666,2.43652,0.366,-1,0
667,2.43689,0.367,-1,0
668,2.43725,0.366,-1,0
669,2.43762,0.364,-1,0
670,2.43798,0.364,-1,0
671,2.43834,0.363,-1,0
672,2.43870,0.360,-1,0
673,2.43906,0.358,-1,0
674,2.43978,0.355,-1,0
675,2.44013,0.354,-1,0
676,2.44048,0.353,-1,0
677,2.44083,0.352,-1,0
678,2.44118,0.350,-1,0
679,2.44153,0.348,-1,0
680,2.44188,0.348,-1,0
681,2.44223,0.347,-1,0
682,2.44257,0.344,-1,0
683,2.44292,0.344,-1,0
684,2.44326,0.343,-1,0
685,2.44360,0.341,-1,0
686,2.44394,0.339,-1,0
687,2.44428,0.337,-1,0
688,2.44495,0.335,-1,0
689,2.44528,0.335,-1,0
690,2.44562,0.333,-1,0
691,2.44628,0.332,-1,0
692,2.44661,0.332,-1,0
693,2.44695,0.332,-1,0
694,2.44728,0.330,-1,0
695,2.44760,0.330,-1,0
696,2.44793,0.329,-1,0
697,2.44826,0.327,-1,0
698,2.44859,0.326,-1,0
699,2.44891,0.324,-1,0
700,2.44923,0.323,-1,0
701,2.44956,0.324,-1,0
702,2.44988,0.322,-1,0
703,2.45020,0.322,-1,0
704,2.45053,0.323,-1,0
705,2.45084,0.319,-1,0
706,2.45116,0.320,-1,0
707,2.45148,0.320,-1,0
708,2.45180,0.318,-1,0
709,2.45212,0.318,-1,0
710,2.45275,0.315,-1,0
711,2.45307,0.314,-1,0
712,2.45338,0.314,-1,0
713,2.45369,0.314,-1,0
714,2.45401,0.313,-1,0
715,2.45432,0.312,-1,0
716,2.45463,0.312,-1,0
717,2.45494,0.311,-1,0
718,2.45525,0.309,-1,0
719,2.45556,0.309,-1,0
720,2.45587,0.307,-1,0
721,2.45618,0.307,-1,0
722,2.45648,0.307,-1,0
723,2.45679,0.306,-1,0
724,2.45709,0.305,-1,0
725,2.45740,0.305,-1,0
726,2.45770,0.305,-1,0
727,2.45800,0.303,-1,0
728,2.45831,0.304,-1,0
729,2.45861,0.303,-1,0
730,2.45891,0.303,-1,0
731,2.45922,0.303,-1,0
732,2.45952,0.303,-1,0
733,2.45982,0.303,-1,0
734,2.46013,0.304,-1,0
735,2.46043,0.304,-1,0
736,2.46074,0.305,-1,0
737,2.46135,0.307,-1,0
738,2.46166,0.307,-1,0
739,2.46197,0.309,-1,0
740,2.46228,0.309,-1,0
741,2.46258,0.309,-1,0
742,2.46289,0.310,-1,0
743,2.46321,0.311,-1,0
744,2.46352,0.310,-1,0
745,2.46383,0.313,-1,0
746,2.46414,0.314,-1,0
747,2.46446,0.319,-1,0
748,2.46478,0.322,-1,0
749,2.46511,0.327,-1,0
750,2.46544,0.333,-1,0
751,2.46578,0.338,-1,0
752,2.46613,0.346,-1,0
753,2.46648,0.349,-1,0
754,2.46683,0.351,-1,0
755,2.46753,0.355,-1,0
756,2.46789,0.358,-1,0
757,2.46826,0.364,-1,0
758,2.46863,0.368,-1,0
759,2.46900,0.373,-1,0
760,2.46937,0.375,-1,0
761,2.46975,0.380,-1,0
762,2.47014,0.382,-1,0
763,2.47052,0.385,-1,0
764,2.47091,0.391,-1,0
765,2.47131,0.395,-1,0
766,2.47171,0.401,-1,0
767,2.47211,0.405,-1,0
768,2.47252,0.409,-1,0
769,2.47293,0.413,-1,0
770,2.47335,0.419,-1,0
771,2.47378,0.425,-1,0
772,2.47421,0.431,-1,0
773,2.47509,0.445,-1,0
774,2.47554,0.448,-1,0
775,2.47599,0.455,-1,0
776,2.47645,0.461,-1,0
777,2.47692,0.467,-1,0
778,2.47739,0.473,-1,0
779,2.47787,0.480,-1,0
780,2.47836,0.486,-1,0
781,2.47885,0.491,-1,0
782,2.47935,0.496,-1,0
783,2.47985,0.502,-1,0
784,2.48036,0.508,-1,0
785,2.48087,0.514,-1,0
786,2.48139,0.519,-1,0
787,2.48192,0.525,-1,0
788,2.48245,0.531,-1,0
789,2.48299,0.538,-1,0
790,2.48353,0.544,-1,0
791,2.48464,0.558,-1,0
792,2.48520,0.564,-1,0
793,2.48577,0.570,-1,0
794,2.48635,0.575,-1,0
795,2.48693,0.581,-1,0
796,2.48752,0.587,-1,0
797,2.48811,0.592,-1,0
798,2.48871,0.598,-1,0
799,2.48931,0.605,-1,0
800,2.48992,0.610,-1,0
801,2.49054,0.617,-1,0
802,2.49116,0.622,-1,0
803,2.49179,0.628,-1,0
804,2.49242,0.636,-1,0
805,2.49307,0.643,-1,0
806,2.49372,0.648,-1,0
807,2.49437,0.657,-1,0
808,2.49503,0.660,-1,0
809,2.49570,0.666,-1,0
810,2.49637,0.671,-1,0
811,2.49704,0.675,-1,0
812,2.49773,0.683,-1,0
813,2.49911,0.696,-1,0
814,2.49981,0.700,-1,0
815,2.50052,0.705,-1,0
816,2.50123,0.711,-1,0
817,2.50194,0.716,-1,0
818,2.50266,0.721,-1,0
819,2.50339,0.726,-1,0
820,2.50412,0.731,-1,0
821,2.50485,0.732,-1,0
822,2.50559,0.735,-1,0
823,2.50633,0.741,-1,0
824,2.50707,0.745,-1,0
825,2.50782,0.750,-1,0
826,2.50858,0.757,-1,0
827,2.50934,0.763,-1,0
828,2.51011,0.766,-1,0
829,2.51088,0.770,-1,0
830,2.51165,0.775,-1,0
831,2.51320,0.777,-1,0
832,2.51398,0.779,-1,0
833,2.51476,0.783,-1,0
834,2.51555,0.788,-1,0
835,2.51634,0.791,-1,0
836,2.51714,0.796,-1,0
837,2.51794,0.801,-1,0
838,2.51874,0.802,-1,0
839,2.51954,0.805,-1,0
840,2.52035,0.804,-1,0
841,2.52116,0.806,-1,0
842,2.52196,0.807,-1,0
843,2.52277,0.812,-1,0
844,2.52359,0.814,-1,0
845,2.52441,0.819,-1,0
846,2.52523,0.821,-1,0
847,2.52605,0.824,-1,0
848,2.52688,0.826,-1,0
849,2.52770,0.827,-1,0
850,2.52853,0.827,-1,0
851,2.52936,0.826,-1,0
852,2.53018,0.827,-1,0
853,2.53185,0.834,-1,0
854,2.53268,0.837,-1,0
855,2.53353,0.841,-1,0
856,2.53437,0.842,-1,0
857,2.53521,0.842,-1,0
858,2.53605,0.840,-1,0
859,2.53689,0.839,-1,0
860,2.53773,0.840,-1,0
861,2.53857,0.840,-1,0
862,2.53941,0.842,-1,0
863,2.54026,0.847,-1,0
864,2.54111,0.850,-1,0
865,2.54196,0.851,-1,0
866,2.54281,0.853,-1,0
867,2.54366,0.849,-1,0
868,2.54451,0.848,-1,0
869,2.54535,0.846,-1,0
870,2.54620,0.847,-1,0
871,2.54790,0.852,-1,0
872,2.54876,0.855,-1,0
873,2.54961,0.858,-1,0
