cnt,pos,speed,Dir,Force,
1,2.92084,1.003,-1,0
2,2.92185,1.014,-1,0
3,2.92287,1.018,-1,0
4,2.92389,1.023,-1,0
5,2.92492,1.028,-1,0
6,2.92596,1.034,-1,0
7,2.92699,1.038,-1,0
8,2.92804,1.044,-1,0
9,2.92909,1.052,-1,0
10,2.93015,1.055,-1,0
11,2.93121,1.059,-1,0
12,2.93227,1.063,-1,0
13,2.93334,1.069,-1,0
14,2.93441,1.076,-1,0
15,2.93550,1.082,-1,0
16,2.93658,1.088,-1,0
17,2.93767,1.091,-1,0
18,2.93877,1.093,-1,0
19,2.93986,1.096,-1,0
20,2.94096,1.098,-1,0
21,2.94206,1.104,-1,0
22,2.94317,1.108,-1,0
23,2.94429,1.112,-1,0
24,2.94540,1.113,-1,0
25,2.94651,1.114,-1,0
26,2.94763,1.114,-1,0
27,2.94874,1.118,-1,0
28,2.94987,1.122,-1,0
29,2.95099,1.127,-1,0
30,2.95212,1.131,-1,0
31,2.95326,1.132,-1,0
32,2.95439,1.130,-1,0
33,2.95552,1.130,-1,0
34,2.95665,1.131,-1,0
35,2.95778,1.133,-1,0
36,2.95892,1.139,-1,0
37,2.96006,1.140,-1,0
38,2.96120,1.143,-1,0
39,2.96234,1.141,-1,0
40,2.96349,1.140,-1,0
41,2.96463,1.141,-1,0
42,2.96577,1.142,-1,0
43,2.96691,1.146,-1,0
44,2.96806,1.149,-1,0
45,2.96921,1.150,-1,0
46,2.97036,1.149,-1,0
47,2.97151,1.149,-1,0
48,2.97266,1.149,-1,0
49,2.97381,1.148,-1,0
50,2.97496,1.151,-1,0
51,2.97611,1.155,-1,0
52,2.97727,1.155,-1,0
53,2.97843,1.156,-1,0
54,2.97958,1.152,-1,0
55,2.98073,1.152,-1,0
56,2.98188,1.151,-1,0
57,2.98303,1.154,-1,0
58,2.98419,1.156,-1,0
59,2.98535,1.159,-1,0
60,2.98650,1.155,-1,0
61,2.98766,1.154,-1,0
62,2.98881,1.154,-1,0
63,2.98997,1.154,-1,0
64,2.99112,1.155,-1,0
65,2.99228,1.156,-1,0
66,2.99343,1.157,-1,0
67,2.99459,1.155,-1,0
68,2.99574,1.154,-1,0
69,2.99689,1.150,-1,0
70,2.99804,1.152,-1,0
71,2.99920,1.152,-1,0
72,3.00035,1.155,-1,0
73,3.00150,1.153,-1,0
74,3.00265,1.152,-1,0
75,3.00380,1.148,-1,0
76,3.00495,1.147,-1,0
77,3.00609,1.143,-1,0
78,3.00724,1.146,-1,0
79,3.00839,1.147,-1,0
80,3.00953,1.148,-1,0
81,3.01068,1.146,-1,0
82,3.01182,1.143,-1,0
83,3.01296,1.141,-1,0
84,3.01410,1.137,-1,0
85,3.01524,1.138,-1,0
86,3.01638,1.136,-1,0
87,3.01751,1.137,-1,0
88,3.01865,1.136,-1,0
89,3.01978,1.131,-1,0
90,3.02091,1.129,-1,0
91,3.02204,1.128,-1,0
92,3.02316,1.127,-1,0
93,3.02429,1.124,-1,0
94,3.02541,1.121,-1,0
95,3.02653,1.118,-1,0
96,3.02764,1.116,-1,0
97,3.02875,1.113,-1,0
98,3.02987,1.110,-1,0
99,3.03097,1.107,-1,0
100,3.03208,1.103,-1,0
101,3.03317,1.100,-1,0
102,3.03427,1.095,-1,0
103,3.03536,1.091,-1,0
104,3.03645,1.088,-1,0
105,3.03753,1.085,-1,0
106,3.03861,1.080,-1,0
107,3.03969,1.075,-1,0
108,3.04076,1.069,-1,0
109,3.04182,1.064,-1,1
110,3.04288,1.058,-1,1
111,3.04393,1.054,-1,1
112,3.04498,1.049,-1,1
113,3.04603,1.044,-1,1
114,3.04707,1.041,-1,1
115,3.04810,1.029,-1,1
116,3.05015,1.021,-1,1
117,3.05117,1.014,-1,1
118,3.05218,1.013,-1,1
119,3.05319,1.005,-1,1
120,3.05418,0.998,-1,1
121,3.05518,0.993,-1,1
122,3.05616,0.985,-1,1
123,3.05714,0.981,-1,1
124,3.05812,0.972,-1,1
125,3.05908,0.965,-1,1
126,3.06004,0.958,-1,1
127,3.06099,0.954,-1,1
128,3.06194,0.944,-1,1
129,3.06287,0.939,-1,1
130,3.06380,0.927,-1,1
131,3.06472,0.921,-1,1
132,3.06564,0.915,-1,1
133,3.06655,0.909,-1,1
134,3.06745,0.901,-1,1
135,3.06834,0.895,-1,1
136,3.06923,0.886,-1,2
137,3.07011,0.879,-1,2
138,3.07098,0.869,-1,2
139,3.07184,0.862,-1,2
140,3.07269,0.851,-1,2
141,3.07353,0.844,-1,2
142,3.07437,0.836,-1,2
143,3.07520,0.830,-1,2
144,3.07602,0.821,-1,2
145,3.07683,0.802,-1,2
146,3.07843,0.792,-1,2
147,3.07843,0.784,-1,2
148,3.07998,0.775,-1,2
149,3.08075,0.767,-1,2
150,3.08151,0.757,-1,2
151,3.08225,0.746,-1,2
152,3.08299,0.736,-1,2
153,3.08372,0.727,-1,2
154,3.08444,0.722,-1,2
155,3.08515,0.712,-1,2
156,3.08586,0.706,-1,2
157,3.08655,0.692,-1,2
158,3.08723,0.682,-1,2
159,3.08790,0.669,-1,2
160,3.08856,0.652,-1,2
161,3.08986,0.644,-1,2
162,3.09049,0.633,-1,2
163,3.09111,0.620,-1,2
164,3.09172,0.607,-1,2
165,3.09232,0.597,-1,2
166,3.09291,0.589,-1,2
167,3.09349,0.582,-1,2
168,3.09406,0.572,-1,2
169,3.09462,0.559,-1,2
170,3.09516,0.546,-1,2
171,3.09570,0.534,-1,2
172,3.09622,0.523,-1,2
173,3.09673,0.513,-1,2
174,3.09724,0.506,-1,2
175,3.09773,0.495,-1,2
176,3.09822,0.483,-1,2
177,3.09869,0.471,-1,2
178,3.09915,0.459,-1,2
179,3.09960,0.448,-1,2
180,3.10003,0.437,-1,2
181,3.10046,0.425,-1,2
182,3.10087,0.411,-1,3
183,3.10127,0.400,-1,3
184,3.10166,0.388,-1,3
185,3.10204,0.378,-1,3
186,3.10240,0.368,-1,3
187,3.10276,0.358,-1,3
188,3.10311,0.346,-1,3
189,3.10344,0.334,-1,3
190,3.10376,0.321,-1,3
191,3.10407,0.311,-1,3
192,3.10437,0.299,-1,3
193,3.10466,0.288,-1,3
194,3.10494,0.278,-1,3
195,3.10520,0.265,-1,3
196,3.10546,0.254,-1,3
197,3.10570,0.242,-1,3
198,3.10593,0.231,-1,3
199,3.10615,0.219,-1,3
200,3.10636,0.208,-1,3
201,3.10656,0.199,-1,3
202,3.10674,0.187,-1,3
203,3.10692,0.176,-1,3
204,3.10709,0.166,-1,3
205,3.10724,0.154,-1,3
206,3.10738,0.145,-1,3
207,3.10752,0.134,-1,3
208,3.10764,0.125,-1,3
209,3.10776,0.114,-1,3
210,3.10786,0.104,-1,3
211,3.10796,0.095,-1,3
212,3.10804,0.085,-1,3
213,3.10812,0.078,-1,3
214,3.10819,0.068,-1,3
215,3.10825,0.059,-1,3
216,3.10830,0.050,-1,3
217,3.10834,0.041,-1,3
218,3.10837,0.034,-1,3
219,3.10839,0.025,-1,3
220,3.10841,0.017,-1,3
221,3.10842,0.010,-1,3
222,3.10843,0.003,-1,3
223,3.10842,-0.003,-1,3
224,3.10841,-0.009,-1,3
225,3.10840,-0.014,-1,3
226,3.10838,-0.019,-1,3
227,3.10836,-0.024,-1,3
228,3.10833,-0.028,-1,3
229,3.10830,-0.029,-1,3
230,3.10827,-0.032,-1,3
231,3.10823,-0.033,-1,3
232,3.10820,-0.035,-1,3
233,3.10816,-0.036,-1,3
234,3.10813,-0.035,-1,3
235,3.10809,-0.034,-1,3
236,3.10806,-0.033,-1,3
237,3.10803,-0.030,-1,3
238,3.10800,-0.027,-1,3
239,3.10798,-0.025,-1,3
240,3.10796,-0.021,-1,3
241,3.10794,-0.017,-1,3
242,3.10793,-0.014,-1,3
243,3.10792,-0.010,-1,3
244,3.10791,-0.006,-1,3
245,3.10791,-0.002,-1,3
246,3.10791,0.002,-1,3
247,3.10792,0.005,-1,3
248,3.10793,0.008,-1,3
249,3.10794,0.011,-1,3
250,3.10795,0.014,-1,3
251,3.10797,0.016,-1,3
252,3.10799,0.019,-1,3
253,3.10801,0.023,-1,3
254,3.10803,0.026,-1,3
255,3.10807,0.030,-1,3
256,3.10810,0.036,-1,3
257,3.10814,0.040,-1,3
258,3.10819,0.046,-1,3
259,3.10824,0.052,-1,3
260,3.10829,0.056,-1,3
261,3.10836,0.063,-1,3
262,3.10843,0.070,-1,3
263,3.10850,0.076,-1,3
264,3.10858,0.081,-1,3
265,3.10867,0.089,-1,3
266,3.10877,0.095,-1,3
267,3.10887,0.099,-1,3
268,3.10898,0.108,-1,3
269,3.10909,0.112,-1,3
270,3.10921,0.118,-1,3
271,3.10933,0.124,-1,3
272,3.10946,0.128,-1,3
273,3.10959,0.136,-1,3
274,3.10973,0.140,-1,3
275,3.10988,0.149,-1,3
276,3.11004,0.153,-1,3
277,3.11020,0.161,-1,3
278,3.11037,0.170,-1,3
279,3.11054,0.176,-1,3
280,3.11073,0.187,-1,3
281,3.11092,0.194,-1,3
282,3.11113,0.203,-1,3
283,3.11134,0.211,-1,3
284,3.11156,0.222,-1,3
285,3.11179,0.229,-1,3
286,3.11203,0.238,-1,3
287,3.11227,0.247,-1,3
288,3.11253,0.255,-1,3
289,3.11279,0.263,-1,3
290,3.11306,0.271,-1,3
291,3.11334,0.279,-1,3
292,3.11363,0.286,-1,3
293,3.11392,0.293,-1,3
294,3.11422,0.301,-1,3
295,3.11453,0.308,-1,3
296,3.11485,0.317,-1,3
297,3.11517,0.324,-1,3
298,3.11550,0.333,-1,3
299,3.11585,0.343,-1,3
300,3.11620,0.352,-1,3
301,3.11656,0.362,-1,3
302,3.11693,0.370,-1,3
303,3.11731,0.380,-1,3
304,3.11770,0.387,-1,3
305,3.11810,0.398,-1,3
306,3.11850,0.406,-1,3
307,3.11891,0.413,-1,3
308,3.11933,0.420,-1,3
309,3.11976,0.427,-1,3
310,3.12020,0.434,-1,3
311,3.12064,0.443,-1,3
312,3.12109,0.449,-1,3
313,3.12154,0.455,-1,3
314,3.12200,0.461,-1,3
315,3.12247,0.466,-1,3
316,3.12294,0.472,-1,3
317,3.12342,0.478,-1,3
318,3.12390,0.482,-1,3
319,3.12439,0.489,-1,3
320,3.12489,0.496,-1,3
321,3.12539,0.505,-1,3
322,3.12590,0.510,-1,3
323,3.12642,0.513,-1,3
324,3.12694,0.520,-1,3
325,3.12746,0.526,-1,3
326,3.12800,0.532,-1,3
327,3.12853,0.537,-1,3
328,3.12907,0.541,-1,3
329,3.12962,0.546,-1,3
330,3.13017,0.551,-1,3
331,3.13073,0.557,-1,3
332,3.13129,0.559,-1,3
333,3.13185,0.560,-1,3
334,3.13241,0.563,-1,3
335,3.13298,0.566,-1,3
336,3.13354,0.569,-1,3
337,3.13412,0.573,-1,3
338,3.13469,0.576,-1,3
339,3.13527,0.580,-1,3
340,3.13586,0.583,-1,3
341,3.13645,0.588,-1,3
342,3.13704,0.591,-1,3
343,3.13763,0.595,-1,3
344,3.13823,0.596,-1,3
345,3.13883,0.599,-1,3
346,3.13943,0.604,-1,3
347,3.14004,0.607,-1,3
348,3.14065,0.611,-1,3
349,3.14126,0.614,-1,3
350,3.14188,0.613,-1,3
351,3.14249,0.612,-1,3
352,3.14310,0.613,-1,3
353,3.14372,0.615,-1,3
354,3.14434,0.619,-1,3
355,3.14496,0.622,-1,3
356,3.14558,0.623,-1,3
357,3.14620,0.624,-1,3
358,3.14683,0.622,-1,3
359,3.14745,0.621,-1,3
360,3.14807,0.619,-1,3
361,3.14869,0.620,-1,3
362,3.14931,0.622,-1,3
363,3.14993,0.623,-1,3
364,3.15055,0.622,-1,3
365,3.15118,0.624,-1,3
366,3.15180,0.623,-1,3
367,3.15242,0.623,-1,3
368,3.15304,0.622,-1,3
369,3.15367,0.624,-1,3
370,3.15429,0.624,-1,3
371,3.15492,0.623,-1,3
372,3.15554,0.622,-1,3
373,3.15616,0.623,-1,3
374,3.15678,0.621,-1,3
375,3.15740,0.618,-1,3
376,3.15801,0.615,-1,3
377,3.15863,0.615,-1,3
378,3.15924,0.614,-1,3
379,3.15986,0.614,-1,3
380,3.16047,0.612,-1,3
381,3.16108,0.611,-1,3
382,3.16169,0.608,-1,3
383,3.16229,0.605,-1,3
384,3.16290,0.603,-1,3
385,3.16350,0.600,-1,3
386,3.16409,0.598,-1,3
387,3.16469,0.599,-1,3
388,3.16529,0.598,-1,3
389,3.16589,0.596,-1,3
390,3.16648,0.590,-1,3
391,3.16766,0.589,-1,3
392,3.16825,0.591,-1,3
393,3.16884,0.591,-1,3
394,3.16943,0.590,-1,3
395,3.17002,0.589,-1,3
396,3.17060,0.587,-1,3
397,3.17119,0.584,-1,3
398,3.17177,0.581,-1,3
399,3.17235,0.579,-1,3
400,3.17292,0.577,-1,3
401,3.17350,0.576,-1,3
402,3.17408,0.575,-1,3
403,3.17465,0.575,-1,3
404,3.17522,0.572,-1,3
405,3.17579,0.569,-1,3
406,3.17636,0.566,-1,3
407,3.17692,0.563,-1,3
408,3.17748,0.562,-1,3
409,3.17804,0.560,-1,3
410,3.17860,0.560,-1,3
411,3.17916,0.560,-1,3
412,3.17972,0.557,-1,3
413,3.18027,0.554,-1,3
414,3.18082,0.550,-1,3
415,3.18137,0.547,-1,3
416,3.18192,0.545,-1,3
417,3.18246,0.546,-1,3
418,3.18301,0.548,-1,3
419,3.18356,0.548,-1,3
420,3.18411,0.548,-1,3
421,3.18519,0.542,-1,3
422,3.18573,0.540,-1,3
423,3.18627,0.538,-1,3
424,3.18681,0.539,-1,3
425,3.18735,0.540,-1,3
426,3.18789,0.541,-1,3
427,3.18843,0.542,-1,3
428,3.18897,0.538,-1,3
429,3.18951,0.535,-1,3
430,3.19004,0.532,-1,3
431,3.19057,0.530,-1,3
432,3.19110,0.529,-1,3
433,3.19163,0.530,-1,3
434,3.19216,0.533,-1,3
435,3.19322,0.530,-1,3
436,3.19375,0.529,-1,3
437,3.19428,0.526,-1,3
438,3.19480,0.525,-1,3
439,3.19532,0.523,-1,3
440,3.19585,0.524,-1,3
441,3.19637,0.527,-1,3
442,3.19690,0.527,-1,3
443,3.19743,0.528,-1,3
444,3.19796,0.527,-1,3
445,3.19848,0.527,-1,3
446,3.19901,0.527,-1,3
447,3.19954,0.526,-1,3
448,3.20006,0.526,-1,3
449,3.20059,0.527,-1,3
450,3.20112,0.529,-1,3
451,3.20165,0.532,-1,3
452,3.20219,0.535,-1,3
453,3.20272,0.535,-1,3
454,3.20325,0.532,-1,3
455,3.20378,0.529,-1,3
456,3.20431,0.527,-1,3
457,3.20483,0.525,-1,3
458,3.20536,0.528,-1,3
459,3.20589,0.532,-1,3
460,3.20643,0.536,-1,3
461,3.20697,0.536,-1,3
462,3.20750,0.534,-1,3
463,3.20803,0.532,-1,3
464,3.20857,0.533,-1,3
465,3.20910,0.536,-1,3
466,3.20964,0.538,-1,3
467,3.21018,0.540,-1,3
468,3.21072,0.542,-1,3
469,3.21126,0.542,-1,3
470,3.21181,0.543,-1,3
471,3.21235,0.545,-1,3
472,3.21290,0.544,-1,3
473,3.21344,0.545,-1,3
474,3.21399,0.545,-1,3
475,3.21453,0.547,-1,3
476,3.21508,0.551,-1,3
477,3.21564,0.555,-1,3
478,3.21620,0.556,-1,3
479,3.21675,0.556,-1,3
480,3.21731,0.556,-1,3
481,3.21787,0.557,-1,3
482,3.21842,0.557,-1,3
483,3.21898,0.558,-1,3
484,3.21954,0.560,-1,3
485,3.22010,0.564,-1,3
486,3.22067,0.566,-1,3
487,3.22123,0.565,-1,3
488,3.22180,0.565,-1,3
489,3.22237,0.567,-1,3
490,3.22294,0.569,-1,3
491,3.22351,0.572,-1,3
492,3.22408,0.574,-1,3
493,3.22466,0.577,-1,3
494,3.22524,0.579,-1,3
495,3.22582,0.581,-1,3
496,3.22640,0.584,-1,3
497,3.22699,0.584,-1,3
498,3.22757,0.586,-1,3
499,3.22816,0.585,-1,3
500,3.22875,0.590,-1,3
501,3.22934,0.592,-1,3
502,3.22993,0.594,-1,3
503,3.23053,0.597,-1,3
504,3.23113,0.598,-1,3
505,3.23173,0.600,-1,3
506,3.23233,0.601,-1,3
507,3.23293,0.603,-1,3
508,3.23354,0.604,-1,3
509,3.23414,0.608,-1,3
510,3.23475,0.608,-1,3
511,3.23536,0.609,-1,3
512,3.23597,0.611,-1,3
513,3.23658,0.611,-1,3
514,3.23720,0.612,-1,3
515,3.23781,0.616,-1,3
516,3.23843,0.620,-1,3
517,3.23905,0.623,-1,3
518,3.23968,0.624,-1,3
519,3.24030,0.624,-1,3
520,3.24093,0.627,-1,3
521,3.24156,0.628,-1,3
522,3.24219,0.630,-1,3
523,3.24282,0.631,-1,3
524,3.24345,0.634,-1,3
525,3.24409,0.636,-1,3
526,3.24472,0.635,-1,3
527,3.24536,0.637,-1,3
528,3.24600,0.641,-1,3
529,3.24664,0.640,-1,3
530,3.24728,0.644,-1,3
531,3.24793,0.646,-1,3
532,3.24858,0.645,-1,3
533,3.24922,0.648,-1,3
534,3.24987,0.650,-1,3
535,3.25052,0.647,-1,3
536,3.25117,0.649,-1,3
537,3.25182,0.650,-1,3
538,3.25247,0.651,-1,3
539,3.25313,0.656,-1,3
540,3.25378,0.656,-1,3
541,3.25444,0.657,-1,3
542,3.25510,0.658,-1,3
543,3.25576,0.660,-1,3
544,3.25642,0.663,-1,3
545,3.25708,0.664,-1,3
546,3.25775,0.665,-1,3
547,3.25841,0.665,-1,3
548,3.25908,0.664,-1,3
549,3.25975,0.667,-1,3
550,3.26041,0.668,-1,3
551,3.26108,0.669,-1,3
552,3.26175,0.672,-1,3
553,3.26243,0.672,-1,3
554,3.26310,0.676,-1,3
555,3.26378,0.673,-1,3
556,3.26445,0.675,-1,3
557,3.26513,0.675,-1,3
558,3.26580,0.675,-1,3
559,3.26648,0.675,-1,3
560,3.26715,0.676,-1,3
561,3.26783,0.677,-1,3
562,3.26850,0.676,-1,3
563,3.26918,0.677,-1,3
564,3.26986,0.675,-1,3
565,3.27053,0.677,-1,3
566,3.27121,0.679,-1,3
567,3.27189,0.680,-1,3
568,3.27257,0.680,-1,3
569,3.27325,0.677,-1,3
570,3.27392,0.676,-1,3
571,3.27460,0.677,-1,3
572,3.27528,0.679,-1,3
573,3.27596,0.677,-1,3
574,3.27664,0.679,-1,3
575,3.27731,0.676,-1,3
576,3.27799,0.677,-1,3
577,3.27867,0.677,-1,3
578,3.27934,0.677,-1,3
579,3.28002,0.675,-1,3
580,3.28069,0.674,-1,3
581,3.28137,0.675,-1,3
582,3.28204,0.673,-1,3
583,3.28272,0.672,-1,3
584,3.28338,0.668,-1,3
585,3.28405,0.668,-1,3
586,3.28472,0.668,-1,3
587,3.28539,0.670,-1,3
588,3.28606,0.671,-1,3
589,3.28673,0.668,-1,3
590,3.28740,0.668,-1,3
591,3.28806,0.664,-1,3
592,3.28872,0.665,-1,3
593,3.28939,0.663,-1,3
594,3.29005,0.664,-1,3
595,3.29071,0.662,-1,3
596,3.29137,0.660,-1,3
597,3.29203,0.660,-1,3
598,3.29269,0.659,-1,3
599,3.29335,0.658,-1,3
600,3.29401,0.661,-1,3
601,3.29467,0.657,-1,3
602,3.29533,0.657,-1,3
603,3.29598,0.657,-1,3
604,3.29663,0.652,-1,3
605,3.29729,0.653,-1,3
606,3.29794,0.649,-1,3
607,3.29858,0.645,-1,3
608,3.29923,0.647,-1,3
609,3.29988,0.647,-1,3
610,3.30052,0.645,-1,3
611,3.30117,0.646,-1,3
612,3.30181,0.640,-1,3
613,3.30244,0.638,-1,3
614,3.30308,0.639,-1,3
615,3.30372,0.638,-1,3
616,3.30436,0.635,-1,3
617,3.30499,0.634,-1,3
618,3.30562,0.630,-1,3
619,3.30625,0.627,-1,3
620,3.30687,0.626,-1,3
621,3.30750,0.627,-1,3
622,3.30813,0.625,-1,3
623,3.30875,0.622,-1,3
624,3.30937,0.622,-1,3
625,3.30999,0.622,-1,3
626,3.31061,0.622,-1,3
627,3.31123,0.616,-1,3
628,3.31185,0.615,-1,3
629,3.31246,0.615,-1,3
630,3.31307,0.612,-1,3
631,3.31368,0.611,-1,3
632,3.31429,0.610,-1,3
633,3.31490,0.609,-1,3
634,3.31551,0.606,-1,3
635,3.31611,0.605,-1,3
636,3.31672,0.604,-1,3
637,3.31732,0.602,-1,3
638,3.31792,0.601,-1,3
639,3.31852,0.600,-1,3
640,3.31912,0.598,-1,3
641,3.31972,0.597,-1,3
642,3.32031,0.594,-1,3
643,3.32090,0.592,-1,3
644,3.32149,0.588,-1,3
645,3.32208,0.589,-1,3
646,3.32267,0.588,-1,3
647,3.32325,0.588,-1,3
648,3.32384,0.587,-1,3
649,3.32443,0.585,-1,3
650,3.32501,0.581,-1,3
651,3.32559,0.582,-1,3
652,3.32617,0.580,-1,3
653,3.32675,0.580,-1,3
654,3.32733,0.577,-1,3
655,3.32790,0.575,-1,3
656,3.32848,0.576,-1,3
657,3.32905,0.573,-1,3
658,3.32962,0.571,-1,3
659,3.33019,0.568,-1,3
660,3.33076,0.569,-1,3
661,3.33133,0.566,-1,3
662,3.33189,0.565,-1,3
663,3.33245,0.563,-1,3
664,3.33302,0.562,-1,3
665,3.33358,0.562,-1,3
666,3.33414,0.559,-1,3
667,3.33469,0.556,-1,3
668,3.33524,0.552,-1,3
669,3.33579,0.550,-1,3
670,3.33634,0.549,-1,3
671,3.33689,0.548,-1,3
672,3.33744,0.545,-1,3
673,3.33798,0.543,-1,3
674,3.33852,0.541,-1,3
675,3.33906,0.539,-1,3
676,3.33960,0.537,-1,3
677,3.34013,0.535,-1,3
678,3.34067,0.534,-1,3
679,3.34173,0.532,-1,3
680,3.34226,0.529,-1,3
681,3.34279,0.526,-1,3
682,3.34331,0.525,-1,3
683,3.34384,0.523,-1,3
684,3.34436,0.521,-1,3
685,3.34487,0.518,-1,3
686,3.34539,0.515,-1,3
687,3.34590,0.513,-1,3
688,3.34642,0.513,-1,3
689,3.34693,0.512,-1,3
690,3.34744,0.508,-1,3
691,3.34794,0.506,-1,3
692,3.34845,0.504,-1,3
693,3.34895,0.503,-1,3
694,3.34945,0.502,-1,3
695,3.34995,0.498,-1,3
696,3.35044,0.495,-1,3
697,3.35094,0.494,-1,3
698,3.35143,0.492,-1,3
699,3.35192,0.491,-1,3
700,3.35241,0.485,-1,3
701,3.35289,0.483,-1,3
702,3.35337,0.479,-1,3
703,3.35385,0.479,-1,3
704,3.35432,0.478,-1,3
705,3.35480,0.476,-1,3
706,3.35527,0.470,-1,3
707,3.35574,0.467,-1,3
708,3.35621,0.469,-1,3
709,3.35667,0.467,-1,3
710,3.35760,0.460,-1,3
711,3.35805,0.456,-1,3
712,3.35851,0.455,-1,3
713,3.35896,0.455,-1,3
714,3.35941,0.450,-1,3
715,3.35986,0.445,-1,3
716,3.36030,0.443,-1,3
717,3.36074,0.440,-1,3
718,3.36118,0.439,-1,3
719,3.36162,0.436,-1,3
720,3.36205,0.431,-1,3
721,3.36248,0.428,-1,3
722,3.36290,0.425,-1,3
723,3.36333,0.420,-1,3
724,3.36375,0.418,-1,3
725,3.36416,0.413,-1,3
726,3.36499,0.412,-1,3
727,3.36540,0.407,-1,3
728,3.36580,0.407,-1,3
729,3.36620,0.401,-1,3
730,3.36660,0.400,-1,3
731,3.36700,0.395,-1,3
732,3.36739,0.394,-1,3
733,3.36778,0.392,-1,3
734,3.36817,0.386,-1,3
735,3.36855,0.385,-1,3
736,3.36894,0.382,-1,3
737,3.36931,0.378,-1,3
738,3.36969,0.377,-1,3
739,3.37006,0.372,-1,3
740,3.37043,0.371,-1,3
741,3.37080,0.368,-1,3
742,3.37117,0.365,-1,3
743,3.37153,0.363,-1,3
744,3.37189,0.361,-1,3
745,3.37225,0.357,-1,3
746,3.37260,0.355,-1,3
747,3.37296,0.353,-1,3
748,3.37331,0.350,-1,3
749,3.37365,0.345,-1,3
750,3.37400,0.345,-1,3
751,3.37434,0.342,-1,3
752,3.37468,0.339,-1,3
753,3.37501,0.336,-1,3
754,3.37534,0.331,-1,3
755,3.37568,0.331,-1,3
756,3.37600,0.328,-1,3
757,3.37633,0.327,-1,3
758,3.37665,0.323,-1,3
759,3.37697,0.321,-1,3
760,3.37729,0.319,-1,3
761,3.37761,0.317,-1,3
762,3.37792,0.314,-1,3
763,3.37824,0.313,-1,3
764,3.37855,0.311,-1,3
765,3.37885,0.308,-1,3
766,3.37916,0.305,-1,3
767,3.37946,0.302,-1,3
768,3.37976,0.301,-1,3
769,3.38006,0.300,-1,3
770,3.38036,0.298,-1,3
771,3.38066,0.295,-1,3
772,3.38095,0.293,-1,3
773,3.38124,0.291,-1,3
774,3.38153,0.289,-1,3
775,3.38182,0.288,-1,3
776,3.38210,0.285,-1,3
777,3.38238,0.282,-1,3
778,3.38266,0.280,-1,3
779,3.38294,0.277,-1,3
780,3.38322,0.276,-1,3
781,3.38349,0.272,-1,3
782,3.38376,0.269,-1,3
783,3.38402,0.267,-1,3
784,3.38429,0.265,-1,3
785,3.38455,0.263,-1,3
786,3.38481,0.261,-1,3
787,3.38507,0.258,-1,3
788,3.38533,0.256,-1,3
789,3.38558,0.254,-1,3
790,3.38583,0.252,-1,3
791,3.38609,0.252,-1,3
792,3.38633,0.250,-1,3
793,3.38658,0.248,-1,3
794,3.38683,0.246,-1,3
795,3.38707,0.244,-1,3
796,3.38731,0.241,-1,3
797,3.38755,0.240,-1,3
798,3.38779,0.237,-1,3
799,3.38803,0.235,-1,3
800,3.38826,0.234,-1,3
801,3.38849,0.232,-1,3
802,3.38872,0.229,-1,3
803,3.38895,0.227,-1,3
804,3.38917,0.225,-1,3
805,3.38940,0.224,-1,3
806,3.38962,0.221,-1,3
807,3.38984,0.220,-1,3
808,3.39005,0.217,-1,3
809,3.39027,0.215,-1,3
810,3.39048,0.214,-1,3
811,3.39070,0.212,-1,3
812,3.39091,0.209,-1,3
813,3.39111,0.208,-1,3
814,3.39132,0.206,-1,3
815,3.39152,0.205,-1,3
816,3.39173,0.201,-1,3
817,3.39192,0.200,-1,3
818,3.39212,0.199,-1,3
819,3.39232,0.196,-1,3
820,3.39251,0.193,-1,3
821,3.39270,0.191,-1,3
822,3.39289,0.190,-1,3
823,3.39308,0.186,-1,3
824,3.39326,0.184,-1,3
825,3.39345,0.184,-1,3
826,3.39363,0.180,-1,3
827,3.39381,0.179,-1,3
828,3.39398,0.178,-1,3
829,3.39416,0.175,-1,3
830,3.39433,0.175,-1,3
831,3.39451,0.173,-1,3
832,3.39468,0.172,-1,3
833,3.39485,0.172,-1,3
834,3.39502,0.169,-1,3
835,3.39519,0.167,-1,3
836,3.39535,0.168,-1,3
837,3.39552,0.165,-1,3
838,3.39569,0.165,-1,3
839,3.39585,0.163,-1,3
840,3.39601,0.162,-1,3
841,3.39617,0.160,-1,3
842,3.39633,0.158,-1,3
843,3.39649,0.159,-1,3
844,3.39664,0.155,-1,3
845,3.39680,0.153,-1,3
846,3.39695,0.153,-1,3
847,3.39710,0.150,-1,3
848,3.39725,0.148,-1,3
849,3.39739,0.146,-1,3
850,3.39754,0.145,-1,3
851,3.39768,0.141,-1,3
852,3.39782,0.141,-1,3
853,3.39796,0.138,-1,3
854,3.39810,0.137,-1,3
855,3.39823,0.135,-1,3
856,3.39836,0.134,-1,3
857,3.39850,0.132,-1,3
858,3.39863,0.131,-1,3
859,3.39876,0.129,-1,3
860,3.39888,0.127,-1,3
861,3.39901,0.126,-1,3
862,3.39913,0.126,-1,3
863,3.39926,0.125,-1,3
864,3.39938,0.122,-1,3
865,3.39950,0.121,-1,3
866,3.39962,0.120,-1,3
867,3.39974,0.121,-1,3
868,3.39986,0.119,-1,3
869,3.39998,0.118,-1,3
870,3.40010,0.116,-1,3
871,3.40021,0.115,-1,3
872,3.40033,0.115,-1,3
