cnt,pos,speed,Dir,Force,
1,3.60244,1.001,-1,3
2,3.60345,1.006,-1,3
3,3.60445,0.997,-1,3
4,3.60543,0.984,-1,3
5,3.60642,0.989,-1,3
6,3.60743,1.010,-1,3
7,3.60845,1.019,-1,3
8,3.60946,1.010,-1,3
9,3.61046,1.001,-1,3
10,3.61146,1.005,-1,3
11,3.61249,1.024,-1,3
12,3.61352,1.030,-1,3
13,3.61454,1.018,-1,3
14,3.61554,1.007,-1,3
15,3.61656,1.021,-1,3
16,3.61760,1.039,-1,3
17,3.61865,1.043,-1,3
18,3.61968,1.029,-1,3
19,3.62070,1.023,-1,3
20,3.62173,1.049,-1,3
21,3.62383,1.048,-1,3
22,3.62487,1.040,-1,3
23,3.62591,1.039,-1,3
24,3.62696,1.051,-1,3
25,3.62802,1.061,-1,3
26,3.62908,1.055,-1,3
27,3.63012,1.049,-1,3
28,3.63224,1.065,-1,3
29,3.63332,1.073,-1,3
30,3.63438,1.068,-1,3
31,3.63545,1.062,-1,3
32,3.63651,1.069,-1,3
33,3.63759,1.077,-1,3
34,3.63867,1.079,-1,3
35,3.63975,1.082,-1,3
36,3.64083,1.081,-1,3
37,3.64192,1.084,-1,3
38,3.64300,1.086,-1,3
39,3.64409,1.087,-1,3
40,3.64518,1.091,-1,3
41,3.64628,1.096,-1,3
42,3.64737,1.096,-1,3
43,3.64847,1.097,-1,3
44,3.64957,1.101,-1,3
45,3.65068,1.107,-1,3
46,3.65178,1.106,-1,3
47,3.65289,1.104,-1,3
48,3.65400,1.107,-1,3
49,3.65511,1.116,-1,3
50,3.65623,1.121,-1,3
51,3.65735,1.118,-1,3
52,3.65847,1.117,-1,3
53,3.65959,1.123,-1,3
54,3.66072,1.129,-1,3
55,3.66185,1.128,-1,3
56,3.66298,1.128,-1,3
57,3.66411,1.136,-1,3
58,3.66525,1.141,-1,3
59,3.66639,1.140,-1,3
60,3.66753,1.137,-1,3
61,3.66867,1.141,-1,3
62,3.66982,1.151,-1,3
63,3.67097,1.153,-1,3
64,3.67213,1.151,-1,3
65,3.67328,1.151,-1,3
66,3.67443,1.156,-1,3
67,3.67559,1.159,-1,3
68,3.67675,1.163,-1,3
69,3.67792,1.165,-1,3
70,3.67909,1.168,-1,3
71,3.68026,1.170,-1,3
72,3.68143,1.169,-1,3
73,3.68260,1.173,-1,3
74,3.68378,1.183,-1,3
75,3.68614,1.181,-1,3
76,3.68733,1.181,-1,3
77,3.68852,1.195,-1,3
78,3.68971,1.190,-1,3
79,3.69090,1.190,-1,3
80,3.69210,1.194,-1,3
81,3.69330,1.202,-1,3
82,3.69450,1.203,-1,3
83,3.69571,1.206,-1,3
84,3.69691,1.206,-1,3
85,3.69812,1.208,-1,3
86,3.69933,1.214,-1,3
87,3.70055,1.216,-1,3
88,3.70299,1.223,-1,3
89,3.70421,1.221,-1,3
90,3.70544,1.224,-1,3
91,3.70667,1.229,-1,3
92,3.70790,1.238,-1,3
93,3.70914,1.234,-1,3
94,3.71037,1.234,-1,3
95,3.71161,1.239,-1,3
96,3.71286,1.247,-1,3
97,3.71411,1.248,-1,3
98,3.71535,1.248,-1,3
99,3.71660,1.250,-1,3
100,3.71786,1.256,-1,3
101,3.71912,1.257,-1,3
102,3.72038,1.265,-1,3
103,3.72165,1.265,-1,3
104,3.72291,1.266,-1,3
105,3.72418,1.266,-1,3
106,3.72545,1.271,-1,3
107,3.72673,1.284,-1,3
108,3.72801,1.281,-1,3
109,3.72929,1.278,-1,3
110,3.73057,1.282,-1,3
111,3.73186,1.286,-1,3
112,3.73315,1.291,-1,3
113,3.73445,1.299,-1,3
114,3.73575,1.300,-1,3
115,3.73705,1.298,-1,3
116,3.73835,1.298,-1,3
117,3.73965,1.303,-1,3
118,3.74096,1.315,-1,3
119,3.74228,1.317,-1,3
120,3.74360,1.317,-1,3
121,3.74492,1.317,-1,3
122,3.74624,1.321,-1,3
123,3.74756,1.325,-1,3
124,3.74889,1.333,-1,3
125,3.75023,1.334,-1,3
126,3.75156,1.335,-1,3
127,3.75290,1.337,-1,3
128,3.75425,1.347,-1,3
129,3.75560,1.349,-1,3
130,3.75694,1.346,-1,3
131,3.75829,1.350,-1,3
132,3.75965,1.359,-1,3
133,3.76102,1.366,-1,3
134,3.76238,1.366,-1,3
135,3.76375,1.367,-1,3
136,3.76512,1.367,-1,3
137,3.76649,1.373,-1,3
138,3.76787,1.383,-1,3
139,3.76926,1.390,-1,3
140,3.77065,1.386,-1,3
141,3.77203,1.382,-1,3
142,3.77342,1.391,-1,3
143,3.77483,1.404,-1,3
144,3.77623,1.406,-1,3
145,3.77764,1.406,-1,3
146,3.77904,1.405,-1,3
147,3.78045,1.407,-1,3
148,3.78187,1.422,-1,3
149,3.78331,1.431,-1,3
150,3.78473,1.428,-1,3
151,3.78616,1.422,-1,3
152,3.78758,1.426,-1,3
153,3.78902,1.440,-1,3
154,3.79047,1.450,-1,3
155,3.79192,1.452,-1,3
156,3.79337,1.446,-1,3
157,3.79627,1.454,-1,3
158,3.79774,1.470,-1,3
159,3.79921,1.475,-1,3
160,3.80068,1.469,-1,3
161,3.80215,1.468,-1,3
162,3.80363,1.474,-1,3
163,3.80511,1.487,-1,3
164,3.80661,1.499,-1,3
165,3.80811,1.497,-1,3
166,3.80960,1.489,-1,3
167,3.81109,1.495,-1,3
168,3.81260,1.517,-1,3
169,3.81412,1.520,-1,3
170,3.81564,1.520,-1,3
171,3.81716,1.514,-1,3
172,3.81867,1.519,-1,3
173,3.82020,1.529,-1,3
174,3.82175,1.542,-1,3
175,3.82329,1.541,-1,3
176,3.82483,1.539,-1,3
177,3.82792,1.550,-1,3
178,3.82948,1.562,-1,3
179,3.83105,1.567,-1,3
180,3.83261,1.565,-1,3
181,3.83418,1.567,-1,3
182,3.83575,1.574,-1,3
183,3.83734,1.582,-1,3
184,3.83893,1.590,-1,3
185,3.84052,1.597,-1,3
186,3.84212,1.591,-1,3
187,3.84371,1.591,-1,3
188,3.84531,1.617,-1,3
189,3.84693,1.617,-1,3
190,3.84855,1.624,-1,3
191,3.85017,1.617,-1,3
192,3.85178,1.612,-1,3
193,3.85340,1.625,-1,3
194,3.85505,1.644,-1,3
195,3.85670,1.648,-1,3
196,3.85834,1.639,-1,3
197,3.85997,1.635,-1,3
198,3.86162,1.650,-1,3
199,3.86329,1.671,-1,3
200,3.86496,1.672,-1,3
201,3.86662,1.660,-1,3
202,3.86828,1.661,-1,3
203,3.86996,1.677,-1,3
204,3.87165,1.692,-1,3
205,3.87335,1.693,-1,3
206,3.87503,1.680,-1,3
207,3.87671,1.685,-1,3
208,3.87841,1.702,-1,3
209,3.88013,1.716,-1,3
210,3.88184,1.711,-1,3
211,3.88354,1.701,-1,3
212,3.88525,1.709,-1,3
213,3.88698,1.730,-1,3
214,3.88872,1.737,-1,3
215,3.89044,1.725,-1,3
216,3.89216,1.720,-1,3
217,3.89389,1.733,-1,3
218,3.89565,1.754,-1,3
219,3.89740,1.753,-1,3
220,3.89914,1.740,-1,3
221,3.90088,1.740,-1,3
222,3.90263,1.753,-1,3
223,3.90440,1.769,-1,3
224,3.90618,1.771,-1,3
225,3.90793,1.756,-1,3
226,3.90969,1.755,-1,3
227,3.91146,1.773,-1,3
228,3.91324,1.782,-1,3
229,3.91502,1.784,-1,3
230,3.91680,1.771,-1,3
231,3.91857,1.774,-1,3
232,3.92035,1.783,-1,3
233,3.92214,1.792,-1,3
234,3.92394,1.794,-1,3
235,3.92573,1.790,-1,3
236,3.92751,1.786,-1,3
237,3.92931,1.791,-1,3
238,3.93471,1.805,-1,3
239,3.93651,1.799,-1,3
240,3.93830,1.796,-1,3
241,3.94010,1.800,-1,3
242,3.94191,1.809,-1,3
243,3.94373,1.817,-1,3
244,3.94554,1.807,-1,3
245,3.94734,1.803,-1,3
246,3.94914,1.803,-1,3
247,3.95096,1.813,-1,3
248,3.95277,1.818,-1,3
249,3.95459,1.807,-1,3
250,3.95820,1.806,-1,3
251,3.96001,1.812,-1,3
252,3.96183,1.815,-1,3
253,3.96365,1.819,-1,3
254,3.96546,1.808,-1,3
255,3.96907,1.808,-1,3
256,3.97089,1.814,-1,3
257,3.97271,1.818,-1,3
258,3.97452,1.813,-1,3
259,3.97633,1.811,-1,3
260,3.97813,1.801,-1,3
261,3.97994,1.809,-1,3
262,3.98176,1.816,-1,3
263,3.98357,1.814,-1,3
264,3.98537,1.805,-1,3
265,3.98717,1.799,-1,3
266,3.98898,1.802,-1,3
267,3.99078,1.809,-1,3
268,3.99259,1.809,-1,3
269,3.99439,1.798,-1,3
270,3.99619,1.797,-1,3
271,3.99798,1.795,-1,3
272,3.99978,1.801,-1,3
273,4.00158,1.796,-1,3
274,4.00338,1.796,-1,3
275,4.00517,1.789,-1,3
276,4.00695,1.789,-1,3
277,4.00874,1.786,-1,3
278,4.01053,1.791,-1,3
279,4.01232,1.786,-1,3
280,4.01410,1.785,-1,3
281,4.01588,1.775,-1,3
282,4.01765,1.775,-1,3
283,4.01943,1.779,-1,3
284,4.02121,1.778,-1,3
285,4.02298,1.774,-1,3
286,4.02474,1.763,-1,3
287,4.02651,1.762,-1,3
288,4.02827,1.766,-1,3
289,4.03004,1.767,-1,3
290,4.03180,1.763,-1,3
291,4.03356,1.754,-1,3
292,4.03531,1.747,-1,3
293,4.03706,1.753,-1,3
294,4.03881,1.753,-1,3
295,4.04056,1.747,-1,3
296,4.04230,1.742,-1,3
297,4.04404,1.737,-1,3
298,4.04577,1.737,-1,3
299,4.04751,1.740,-1,3
300,4.04925,1.731,-1,3
301,4.05097,1.727,-1,3
302,4.05270,1.726,-1,3
303,4.05442,1.726,-1,3
304,4.05614,1.720,-1,3
305,4.05786,1.716,-1,3
306,4.05957,1.714,-1,3
307,4.06129,1.715,-1,3
308,4.06300,1.708,-1,3
309,4.06470,1.703,-1,3
310,4.06641,1.707,-1,3
311,4.06811,1.702,-1,3
312,4.06981,1.698,-1,3
313,4.07150,1.693,-1,3
314,4.07319,1.689,-1,3
315,4.07488,1.693,-1,3
316,4.07658,1.694,-1,3
317,4.07826,1.684,-1,3
318,4.08161,1.676,-1,3
319,4.08330,1.681,-1,3
320,4.08498,1.683,-1,3
321,4.08665,1.672,-1,3
322,4.08831,1.663,-1,3
323,4.08998,1.668,-1,3
324,4.09166,1.674,-1,3
325,4.09333,1.670,-1,3
326,4.09499,1.654,-1,3
327,4.09664,1.654,-1,3
328,4.09830,1.662,-1,3
329,4.09997,1.665,-1,3
330,4.10162,1.657,-1,3
331,4.10327,1.648,-1,3
332,4.10492,1.651,-1,3
333,4.10658,1.657,-1,3
334,4.10824,1.658,-1,3
335,4.10988,1.645,-1,3
336,4.11152,1.639,-1,3
337,4.11317,1.650,-1,3
338,4.11483,1.657,-1,3
339,4.11648,1.648,-1,3
340,4.11811,1.637,-1,3
341,4.11975,1.636,-1,3
342,4.12140,1.658,-1,3
343,4.12470,1.646,-1,3
344,4.12634,1.634,-1,3
345,4.12797,1.635,-1,3
346,4.12962,1.659,-1,3
347,4.13293,1.649,-1,3
348,4.13293,1.633,-1,3
349,4.13456,1.636,-1,3
350,4.13620,1.636,-1,3
351,4.13785,1.654,-1,3
352,4.13952,1.662,-1,3
353,4.14117,1.653,-1,3
354,4.14281,1.640,-1,3
355,4.14445,1.644,-1,3
356,4.14612,1.661,-1,3
357,4.14778,1.658,-1,3
358,4.14944,1.658,-1,3
359,4.15110,1.653,-1,3
360,4.15275,1.657,-1,3
361,4.15442,1.670,-1,3
362,4.15610,1.673,-1,3
363,4.15776,1.665,-1,3
364,4.15942,1.664,-1,3
365,4.16110,1.676,-1,3
366,4.16278,1.682,-1,3
367,4.16446,1.678,-1,3
368,4.16613,1.675,-1,3
369,4.16782,1.682,-1,3
370,4.16951,1.694,-1,3
371,4.17121,1.697,-1,3
372,4.17290,1.689,-1,3
373,4.17458,1.687,-1,3
374,4.17628,1.697,-1,3
375,4.17799,1.711,-1,3
376,4.17971,1.715,-1,3
377,4.18141,1.703,-1,3
378,4.18311,1.702,-1,3
379,4.18483,1.714,-1,3
380,4.18655,1.727,-1,3
381,4.18828,1.729,-1,3
382,4.19000,1.723,-1,3
383,4.19173,1.721,-1,3
384,4.19346,1.733,-1,3
385,4.19520,1.742,-1,3
386,4.19695,1.745,-1,3
387,4.19869,1.744,-1,3
388,4.20043,1.745,-1,3
389,4.20219,1.751,-1,3
390,4.20394,1.755,-1,3
391,4.20570,1.761,-1,3
392,4.20747,1.768,-1,3
393,4.20924,1.770,-1,3
394,4.21101,1.769,-1,3
395,4.21278,1.777,-1,3
396,4.21635,1.792,-1,3
397,4.21814,1.786,-1,3
398,4.22171,1.783,-1,3
399,4.22351,1.795,-1,3
400,4.22351,1.813,-1,3
401,4.22532,1.813,-1,3
402,4.22894,1.806,-1,3
403,4.22894,1.804,-1,3
404,4.23075,1.821,-1,3
405,4.23440,1.831,-1,3
406,4.23623,1.834,-1,3
407,4.23806,1.826,-1,3
408,4.23988,1.839,-1,3
409,4.24357,1.848,-1,3
410,4.24542,1.851,-1,3
411,4.24727,1.850,-1,3
412,4.24912,1.852,-1,3
413,4.25098,1.854,-1,3
414,4.25284,1.861,-1,3
415,4.25471,1.872,-1,3
416,4.25659,1.876,-1,3
417,4.25846,1.872,-1,3
418,4.26033,1.870,-1,3
419,4.26221,1.877,-1,3
420,4.26410,1.896,-1,3
421,4.26600,1.897,-1,3
422,4.26789,1.892,-1,3
423,4.26978,1.887,-1,3
424,4.27168,1.900,-1,3
425,4.27359,1.915,-1,3
426,4.27551,1.915,-1,3
427,4.27742,1.911,-1,3
428,4.27933,1.913,-1,3
429,4.28125,1.923,-1,3
430,4.28319,1.932,-1,3
431,4.28512,1.935,-1,3
432,4.28706,1.936,-1,3
433,4.28900,1.938,-1,3
434,4.29094,1.939,-1,3
435,4.29289,1.951,-1,3
436,4.29485,1.961,-1,3
437,4.29681,1.962,-1,3
438,4.29876,1.955,-1,3
439,4.30072,1.960,-1,3
440,4.30270,1.975,-1,3
441,4.30468,1.983,-1,3
442,4.30666,1.981,-1,3
443,4.30864,1.978,-1,3
444,4.31063,1.988,-1,3
445,4.31263,2.001,-1,3
446,4.31463,2.001,-1,3
447,4.31864,2.007,-1,3
448,4.31864,2.017,-1,3
449,4.32065,2.021,-1,3
450,4.32470,2.029,-1,3
451,4.32673,2.030,-1,3
452,4.32877,2.031,-1,3
453,4.33081,2.042,-1,3
454,4.33286,2.049,-1,3
455,4.33491,2.056,-1,3
456,4.33697,2.057,-1,3
457,4.33903,2.060,-1,3
458,4.34110,2.069,-1,3
459,4.34318,2.078,-1,3
460,4.34526,2.081,-1,3
461,4.34734,2.083,-1,3
462,4.34943,2.093,-1,3
463,4.35153,2.103,-1,3
464,4.35575,2.107,-1,3
465,4.35786,2.119,-1,3
466,4.35999,2.126,-1,3
467,4.36212,2.126,-1,3
468,4.36425,2.129,-1,3
469,4.36639,2.141,-1,3
470,4.36854,2.150,-1,3
471,4.37069,2.151,-1,3
472,4.37284,2.156,-1,3
473,4.37501,2.164,-1,3
474,4.37718,2.171,-1,3
475,4.37936,2.176,-1,3
476,4.38154,2.181,-1,3
477,4.38372,2.187,-1,3
478,4.38591,2.191,-1,3
479,4.38811,2.199,-1,3
480,4.39032,2.207,-1,3
481,4.39253,2.212,-1,3
482,4.39475,2.213,-1,3
483,4.39697,2.222,-1,3
484,4.39920,2.232,-1,3
485,4.40144,2.235,-1,3
486,4.40367,2.237,-1,3
487,4.40592,2.246,-1,3
488,4.40817,2.254,-1,3
489,4.41043,2.256,-1,3
490,4.41269,2.259,-1,3
491,4.41496,2.272,-1,3
492,4.41723,2.275,-1,3
493,4.41951,2.277,-1,3
494,4.42179,2.284,-1,3
495,4.42409,2.293,-1,3
496,4.42638,2.295,-1,3
497,4.42868,2.302,-1,3
498,4.43099,2.309,-1,3
499,4.43330,2.313,-1,3
500,4.43562,2.314,-1,3
501,4.43795,2.328,-1,3
502,4.44027,2.327,-1,3
503,4.44261,2.332,-1,3
504,4.44495,2.341,-1,3
505,4.44729,2.347,-1,3
506,4.44964,2.345,-1,3
507,4.45199,2.353,-1,3
508,4.45435,2.363,-1,3
509,4.45672,2.367,-1,3
510,4.45908,2.362,-1,3
511,4.46146,2.375,-1,3
512,4.46384,2.379,-1,3
513,4.46622,2.384,-1,3
514,4.47100,2.389,-1,3
515,4.47339,2.397,-1,3
516,4.47580,2.401,-1,3
517,4.47820,2.405,-1,3
518,4.48061,2.408,-1,3
519,4.48302,2.414,-1,3
520,4.48544,2.418,-1,3
521,4.48786,2.421,-1,3
522,4.49029,2.425,-1,3
523,4.49272,2.435,-1,3
524,4.49516,2.435,-1,3
525,4.49759,2.445,-1,3
526,4.50004,2.445,-1,3
527,4.50249,2.450,-1,3
528,4.50494,2.452,-1,3
529,4.50739,2.455,-1,3
530,4.50986,2.464,-1,3
531,4.51232,2.465,-1,3
532,4.51479,2.472,-1,3
533,4.51727,2.479,-1,3
534,4.52223,2.482,-1,3
535,4.52472,2.487,-1,3
536,4.52721,2.497,-1,3
537,4.53220,2.499,-1,3
538,4.53470,2.502,-1,3
539,4.53721,2.506,-1,3
540,4.53721,2.513,-1,3
541,4.53972,2.513,-1,3
542,4.54224,2.516,-1,3
543,4.54476,2.523,-1,3
544,4.54981,2.528,-1,3
545,4.55234,2.532,-1,3
546,4.55488,2.535,-1,3
547,4.55742,2.540,-1,3
548,4.55996,2.545,-1,3
549,4.56251,2.551,-1,3
550,4.56506,2.552,-1,3
551,4.56762,2.556,-1,3
552,4.57018,2.562,-1,3
553,4.57275,2.567,-1,3
554,4.57532,2.570,-1,3
555,4.57789,2.576,-1,3
556,4.58047,2.578,-1,3
557,4.58305,2.578,-1,3
558,4.58564,2.589,-1,3
559,4.58823,2.593,-1,3
560,4.59083,2.594,-1,3
561,4.59342,2.597,-1,3
562,4.59603,2.602,-1,3
563,4.59864,2.609,-1,3
564,4.60124,2.609,-1,3
565,4.60386,2.614,-1,3
566,4.60648,2.618,-1,3
567,4.60910,2.620,-1,3
568,4.61172,2.627,-1,3
569,4.61435,2.631,-1,3
570,4.61699,2.634,-1,3
571,4.61962,2.636,-1,3
572,4.62226,2.641,-1,3
573,4.62491,2.646,-1,3
574,4.62756,2.649,-1,3
575,4.63021,2.650,-1,3
576,4.63287,2.656,-1,3
577,4.63553,2.660,-1,3
578,4.63819,2.663,-1,3
579,4.64086,2.666,-1,3
580,4.64353,2.673,-1,3
581,4.64620,2.676,-1,3
582,4.64888,2.675,-1,3
583,4.65156,2.683,-1,3
584,4.65425,2.685,-1,3
585,4.65694,2.691,-1,3
586,4.65963,2.692,-1,3
587,4.66232,2.694,-1,3
588,4.66502,2.698,-1,3
589,4.66773,2.704,-1,3
590,4.67043,2.705,-1,3
591,4.67314,2.709,-1,3
592,4.67585,2.710,-1,3
593,4.67856,2.712,-1,3
594,4.68128,2.716,-1,3
595,4.68400,2.721,-1,3
596,4.68672,2.719,-1,3
597,4.68944,2.725,-1,3
598,4.69217,2.724,-1,3
599,4.69489,2.723,-1,3
600,4.69762,2.731,-1,3
601,4.70035,2.731,-1,3
602,4.70309,2.732,-1,3
603,4.70582,2.732,-1,3
604,4.71129,2.736,-1,3
605,4.71402,2.736,-1,3
606,4.71676,2.735,-1,3
607,4.71949,2.736,-1,3
608,4.72223,2.736,-1,3
609,4.72497,2.736,-1,3
610,4.72770,2.738,-1,3
611,4.73044,2.735,-1,3
612,4.73317,2.734,-1,3
613,4.73591,2.733,-1,3
614,4.73864,2.729,-1,3
615,4.74137,2.729,-1,3
616,4.74410,2.729,-1,3
617,4.74683,2.727,-1,3
618,4.74955,2.725,-1,3
619,4.75227,2.723,-1,3
620,4.75500,2.723,-1,3
621,4.75772,2.718,-1,3
622,4.76314,2.713,-1,3
623,4.76585,2.711,-1,3
624,4.76856,2.710,-1,3
625,4.77127,2.704,-1,3
626,4.77397,2.701,-1,3
627,4.77667,2.700,-1,3
628,4.77936,2.694,-1,3
629,4.78475,2.692,-1,3
630,4.78743,2.685,-1,3
631,4.79011,2.681,-1,3
632,4.79279,2.679,-1,3
633,4.79546,2.674,-1,3
634,4.79814,2.671,-1,3
635,4.80081,2.670,-1,3
636,4.80347,2.661,-1,3
637,4.80613,2.658,-1,3
638,4.80878,2.653,-1,3
639,4.81143,2.648,-1,3
640,4.81408,2.649,-1,3
641,4.81672,2.644,-1,3
642,4.81936,2.637,-1,3
643,4.82199,2.632,-1,3
644,4.82462,2.629,-1,3
645,4.82724,2.623,-1,3
646,4.82986,2.621,-1,3
647,4.83248,2.617,-1,3
648,4.83509,2.610,-1,3
649,4.83769,2.603,-1,3
650,4.84030,2.603,-1,3
651,4.84289,2.595,-1,3
652,4.84549,2.596,-1,3
653,4.84807,2.588,-1,3
654,4.85066,2.583,-1,3
655,4.85324,2.578,-1,3
656,4.85581,2.572,-1,3
657,4.85838,2.570,-1,3
658,4.86095,2.567,-1,3
659,4.86351,2.561,-1,3
660,4.86606,2.551,-1,3
661,4.86861,2.551,-1,3
662,4.87116,2.549,-1,3
663,4.87370,2.543,-1,3
664,4.87624,2.536,-1,3
665,4.87877,2.535,-1,3
666,4.88130,2.528,-1,3
667,4.88382,2.523,-1,3
668,4.88634,2.520,-1,3
669,4.88886,2.517,-1,3
670,4.89137,2.512,-1,3
671,4.89388,2.507,-1,3
672,4.89638,2.503,-1,3
673,4.89888,2.498,-1,3
674,4.90137,2.495,-1,3
675,4.90387,2.490,-1,3
676,4.90635,2.488,-1,3
677,4.90884,2.484,-1,3
678,4.91132,2.479,-1,3
679,4.91379,2.473,-1,3
680,4.91627,2.475,-1,3
681,4.91874,2.470,-1,3
682,4.92120,2.465,-1,3
683,4.92366,2.461,-1,3
684,4.92612,2.462,-1,3
685,4.92858,2.456,-1,3
686,4.93103,2.452,-1,3
687,4.93348,2.452,-1,3
688,4.93593,2.447,-1,3
689,4.93838,2.444,-1,3
690,4.94082,2.443,-1,3
691,4.94569,2.434,-1,3
692,4.94813,2.432,-1,3
693,4.95055,2.428,-1,3
694,4.95298,2.428,-1,3
695,4.95541,2.429,-1,3
696,4.95783,2.422,-1,3
697,4.96025,2.413,-1,3
698,4.96266,2.418,-1,3
699,4.96508,2.416,-1,3
700,4.96749,2.411,-1,3
701,4.96990,2.405,-1,3
702,4.97231,2.410,-1,3
703,4.97471,2.403,-1,3
704,4.97711,2.398,-1,3
705,4.97951,2.398,-1,3
706,4.98190,2.397,-1,3
707,4.98429,2.389,-1,3
708,4.98668,2.390,-1,3
709,4.98907,2.388,-1,3
710,4.99145,2.384,-1,3
711,4.99622,2.381,-1,3
712,4.99859,2.374,-1,3
713,5.00334,2.371,-1,3
714,5.00334,2.367,-1,3
715,5.00570,2.362,-1,3
716,5.00807,2.362,-1,3
717,5.01043,2.364,-1,3
718,5.01279,2.362,-1,3
719,5.01515,2.354,-1,3
720,5.01750,2.355,-1,3
721,5.01986,2.354,-1,3
722,5.02221,2.350,-1,3
723,5.02689,2.344,-1,3
724,5.02689,2.342,-1,3
725,5.02923,2.342,-1,3
726,5.03157,2.338,-1,3
727,5.03391,2.334,-1,3
728,5.03624,2.331,-1,3
729,5.03856,2.328,-1,3
730,5.04089,2.325,-1,3
731,5.04322,2.327,-1,3
732,5.04553,2.318,-1,3
733,5.05017,2.315,-1,3
734,5.05017,2.309,-1,3
735,5.05248,2.309,-1,3
736,5.05479,2.309,-1,3
737,5.05709,2.308,-1,3
738,5.05940,2.304,-1,3
739,5.06169,2.298,-1,3
740,5.06399,2.292,-1,3
741,5.06628,2.294,-1,3
742,5.06858,2.295,-1,3
743,5.07086,2.282,-1,3
744,5.07314,2.282,-1,3
745,5.07543,2.283,-1,3
746,5.07771,2.279,-1,3
747,5.07998,2.275,-1,3
748,5.08226,2.274,-1,3
749,5.08453,2.270,-1,3
750,5.08679,2.264,-1,3
751,5.08905,2.262,-1,3
752,5.09131,2.259,-1,3
753,5.09357,2.253,-1,3
754,5.09582,2.253,-1,3
755,5.09807,2.252,-1,3
756,5.10032,2.242,-1,3
757,5.10256,2.242,-1,3
758,5.10480,2.243,-1,3
759,5.10704,2.240,-1,3
760,5.10927,2.231,-1,3
761,5.11150,2.230,-1,3
762,5.11373,2.229,-1,3
763,5.11596,2.226,-1,3
764,5.11818,2.222,-1,3
765,5.12040,2.223,-1,3
766,5.12262,2.220,-1,3
767,5.12484,2.215,-1,3
768,5.12705,2.213,-1,3
769,5.12926,2.213,-1,3
770,5.13147,2.211,-1,3
771,5.13368,2.208,-1,3
772,5.13589,2.207,-1,3
773,5.13809,2.205,-1,3
774,5.14030,2.203,-1,3
775,5.14250,2.202,-1,3
776,5.14470,2.204,-1,3
777,5.14690,2.200,-1,3
778,5.14910,2.196,-1,3
779,5.15130,2.201,-1,3
780,5.15570,2.198,-1,3
781,5.15790,2.197,-1,3
782,5.16010,2.203,-1,3
783,5.16230,2.198,-1,3
784,5.16450,2.198,-1,3
785,5.16670,2.200,-1,3
786,5.16890,2.205,-1,3
787,5.17111,2.206,-1,3
788,5.17331,2.205,-1,3
789,5.17552,2.206,-1,3
790,5.17773,2.208,-1,3
791,5.17994,2.210,-1,3
792,5.18215,2.214,-1,3
793,5.18437,2.216,-1,3
794,5.18658,2.214,-1,3
795,5.18880,2.218,-1,3
796,5.19102,2.223,-1,3
797,5.19325,2.225,-1,3
798,5.19547,2.224,-1,3
799,5.19770,2.229,-1,3
800,5.19994,2.237,-1,3
801,5.20217,2.236,-1,3
802,5.20666,2.248,-1,3
803,5.20891,2.250,-1,3
804,5.21116,2.250,-1,3
805,5.21341,2.253,-1,3
806,5.21568,2.264,-1,3
807,5.21794,2.267,-1,3
808,5.22021,2.269,-1,3
809,5.22249,2.273,-1,3
810,5.22476,2.279,-1,3
811,5.22705,2.286,-1,3
812,5.22934,2.291,-1,3
813,5.23164,2.296,-1,3
814,5.23394,2.300,-1,3
815,5.23624,2.306,-1,3
816,5.23856,2.314,-1,3
817,5.24088,2.323,-1,3
818,5.24320,2.322,-1,3
819,5.24553,2.331,-1,3
820,5.24788,2.342,-1,3
821,5.25022,2.347,-1,3
822,5.25257,2.351,-1,3
823,5.25494,2.364,-1,3
824,5.25731,2.371,-1,3
825,5.25968,2.376,-1,3
826,5.26207,2.384,-1,3
827,5.26447,2.399,-1,3
828,5.26687,2.403,-1,3
829,5.26928,2.412,-1,3
830,5.27170,2.422,-1,3
831,5.27414,2.434,-1,3
832,5.27658,2.442,-1,3
833,5.27904,2.455,-1,3
834,5.28150,2.462,-1,3
835,5.28397,2.473,-1,3
836,5.28646,2.486,-1,3
837,5.28895,2.496,-1,3
838,5.29146,2.506,-1,3
839,5.29398,2.520,-1,3
840,5.29651,2.531,-1,3
841,5.29905,2.539,-1,3
842,5.30160,2.556,-1,3
843,5.30417,2.570,-1,3
844,5.30675,2.577,-1,3
845,5.30934,2.590,-1,3
846,5.31195,2.606,-1,3
847,5.31456,2.617,-1,3
848,5.31719,2.631,-1,3
849,5.31984,2.645,-1,3
850,5.32249,2.654,-1,3
851,5.32516,2.671,-1,3
852,5.32785,2.682,-1,3
853,5.33054,2.697,-1,3
854,5.33326,2.713,-1,3
855,5.33598,2.722,-1,3
856,5.33871,2.736,-1,3
857,5.34147,2.754,-1,3
858,5.34423,2.766,-1,3
859,5.34980,2.793,-1,3
860,5.35261,2.805,-1,3
861,5.35827,2.835,-1,3
862,5.36111,2.846,-1,3
863,5.36397,2.862,-1,3
864,5.36685,2.874,-1,3
865,5.36973,2.885,-1,3
866,5.37263,2.901,-1,3
867,5.37554,2.909,-1,3
868,5.37847,2.927,-1,3
869,5.38141,2.939,-1,3
870,5.38436,2.948,-1,3
871,5.38732,2.963,-1,3
872,5.39029,2.973,-1,3
873,5.39328,2.986,-1,3
