cnt,pos,speed,Dir,Force,
1,3.64359,1.010,-1,4
2,3.64460,1.003,-1,4
3,3.64559,0.992,-1,4
4,3.64659,1.006,-1,4
5,3.64762,1.026,-1,4
6,3.64866,1.036,-1,4
7,3.64968,1.027,-1,4
8,3.65070,1.015,-1,4
9,3.65172,1.027,-1,4
10,3.65278,1.052,-1,4
11,3.65384,1.063,-1,4
12,3.65489,1.050,-1,4
13,3.65593,1.041,-1,4
14,3.65699,1.060,-1,4
15,3.65807,1.082,-1,4
16,3.65916,1.083,-1,4
17,3.66022,1.068,-1,4
18,3.66129,1.070,-1,4
19,3.66239,1.095,-1,4
20,3.66350,1.114,-1,4
21,3.66461,1.104,-1,4
22,3.66570,1.090,-1,4
23,3.66680,1.100,-1,4
24,3.66792,1.127,-1,4
25,3.66906,1.138,-1,4
26,3.67019,1.125,-1,4
27,3.67131,1.121,-1,4
28,3.67244,1.138,-1,4
29,3.67360,1.159,-1,4
30,3.67591,1.149,-1,4
31,3.67706,1.155,-1,4
32,3.67824,1.173,-1,4
33,3.67942,1.184,-1,4
34,3.68061,1.186,-1,4
35,3.68179,1.184,-1,4
36,3.68298,1.189,-1,4
37,3.68418,1.199,-1,4
38,3.68539,1.213,-1,4
39,3.68661,1.223,-1,4
40,3.68783,1.219,-1,4
41,3.68905,1.219,-1,4
42,3.69028,1.229,-1,4
43,3.69153,1.249,-1,4
44,3.69279,1.254,-1,4
45,3.69403,1.248,-1,4
46,3.69528,1.251,-1,4
47,3.69655,1.269,-1,4
48,3.69783,1.278,-1,4
49,3.69911,1.280,-1,4
50,3.70039,1.284,-1,4
51,3.70169,1.290,-1,4
52,3.70299,1.301,-1,4
53,3.70430,1.312,-1,4
54,3.70561,1.316,-1,4
55,3.70693,1.319,-1,4
56,3.70826,1.323,-1,4
57,3.70959,1.339,-1,4
58,3.71095,1.353,-1,4
59,3.71365,1.350,-1,4
60,3.71501,1.363,-1,4
61,3.71639,1.378,-1,4
62,3.71777,1.385,-1,4
63,3.71916,1.390,-1,4
64,3.72056,1.393,-1,4
65,3.72196,1.399,-1,4
66,3.72337,1.412,-1,4
67,3.72479,1.426,-1,4
68,3.72622,1.427,-1,4
69,3.72765,1.432,-1,4
70,3.72909,1.441,-1,4
71,3.73055,1.454,-1,4
72,3.73201,1.460,-1,4
73,3.73348,1.467,-1,4
74,3.73495,1.474,-1,4
75,3.73643,1.479,-1,4
76,3.73792,1.494,-1,4
77,3.73943,1.504,-1,4
78,3.74093,1.507,-1,4
79,3.74245,1.513,-1,4
80,3.74397,1.525,-1,4
81,3.74551,1.534,-1,4
82,3.74705,1.543,-1,4
83,3.74860,1.550,-1,4
84,3.75016,1.558,-1,4
85,3.75172,1.562,-1,4
86,3.75329,1.583,-1,4
87,3.75647,1.591,-1,4
88,3.75807,1.602,-1,4
89,3.75968,1.607,-1,4
90,3.76129,1.612,-1,4
91,3.76291,1.623,-1,4
92,3.76454,1.633,-1,4
93,3.76619,1.645,-1,4
94,3.76784,1.654,-1,4
95,3.76950,1.654,-1,4
96,3.77116,1.660,-1,4
97,3.77283,1.675,-1,4
98,3.77452,1.689,-1,4
99,3.77622,1.697,-1,4
100,3.77792,1.698,-1,4
101,3.77961,1.698,-1,4
102,3.78133,1.717,-1,4
103,3.78307,1.734,-1,4
104,3.78480,1.740,-1,4
105,3.78654,1.738,-1,4
106,3.78828,1.738,-1,4
107,3.79004,1.760,-1,4
108,3.79182,1.780,-1,4
109,3.79360,1.777,-1,4
110,3.79716,1.784,-1,4
111,3.79896,1.806,-1,4
112,3.80078,1.820,-1,4
113,3.80260,1.813,-1,4
114,3.80441,1.813,-1,4
115,3.80625,1.835,-1,4
116,3.80810,1.853,-1,4
117,3.80995,1.851,-1,4
118,3.81179,1.845,-1,4
119,3.81366,1.863,-1,4
120,3.81554,1.885,-1,4
121,3.81743,1.887,-1,4
122,3.81931,1.879,-1,4
123,3.82120,1.887,-1,4
124,3.82311,1.914,-1,4
125,3.82503,1.924,-1,4
126,3.82695,1.915,-1,4
127,3.82887,1.918,-1,4
128,3.83080,1.936,-1,4
129,3.83276,1.954,-1,4
130,3.83471,1.955,-1,4
131,3.83666,1.947,-1,4
132,3.83862,1.960,-1,4
133,3.84060,1.980,-1,4
134,3.84259,1.989,-1,4
135,3.84457,1.986,-1,4
136,3.84656,1.985,-1,4
137,3.84856,2.001,-1,4
138,3.85058,2.021,-1,4
139,3.85462,2.019,-1,4
140,3.85664,2.025,-1,4
141,3.85868,2.035,-1,4
142,3.86072,2.048,-1,4
143,3.86278,2.060,-1,4
144,3.86483,2.050,-1,4
145,3.86689,2.055,-1,4
146,3.86896,2.068,-1,4
147,3.87104,2.088,-1,4
148,3.87313,2.085,-1,4
149,3.87521,2.079,-1,4
150,3.87730,2.087,-1,4
151,3.87940,2.107,-1,4
152,3.88152,2.115,-1,4
153,3.88363,2.109,-1,4
154,3.88574,2.110,-1,4
155,3.88786,2.118,-1,4
156,3.88999,2.134,-1,4
157,3.89213,2.142,-1,4
158,3.89427,2.136,-1,4
159,3.89640,2.131,-1,4
160,3.89854,2.144,-1,4
161,3.90070,2.162,-1,4
162,3.90287,2.162,-1,4
163,3.90502,2.152,-1,4
164,3.90717,2.153,-1,4
165,3.90934,2.172,-1,4
166,3.91369,2.171,-1,4
167,3.91586,2.166,-1,4
168,3.91804,2.177,-1,4
169,3.92022,2.188,-1,4
170,3.92241,2.186,-1,4
171,3.92459,2.181,-1,4
172,3.92677,2.181,-1,4
173,3.92896,2.190,-1,4
174,3.93116,2.194,-1,4
175,3.93335,2.193,-1,4
176,3.93554,2.187,-1,4
177,3.93772,2.188,-1,4
178,3.93992,2.196,-1,4
179,3.94212,2.200,-1,4
180,3.94431,2.193,-1,4
181,3.94650,2.189,-1,4
182,3.94870,2.193,-1,4
183,3.95089,2.196,-1,4
184,3.95308,2.193,-1,4
185,3.95527,2.191,-1,4
186,3.95747,2.192,-1,4
187,3.95965,2.188,-1,4
188,3.96184,2.185,-1,4
189,3.96622,2.188,-1,4
190,3.96840,2.182,-1,4
191,3.97058,2.178,-1,4
192,3.97275,2.178,-1,4
193,3.97493,2.176,-1,4
194,3.97710,2.173,-1,4
195,3.97927,2.168,-1,4
196,3.98143,2.162,-1,4
197,3.98359,2.159,-1,4
198,3.98575,2.158,-1,4
199,3.98790,2.155,-1,4
200,3.99005,2.149,-1,4
201,3.99219,2.139,-1,4
202,3.99433,2.138,-1,4
203,3.99646,2.135,-1,4
204,3.99859,2.128,-1,4
205,4.00071,2.117,-1,4
206,4.00283,2.116,-1,4
207,4.00494,2.113,-1,4
208,4.00704,2.100,-1,4
209,4.00913,2.094,-1,4
210,4.01122,2.086,-1,4
211,4.01331,2.087,-1,4
212,4.01538,2.075,-1,4
213,4.01745,2.067,-1,4
214,4.01950,2.056,-1,4
215,4.02156,2.055,-1,4
216,4.02360,2.043,-1,4
217,4.02564,2.037,-1,4
218,4.02767,2.017,-1,4
219,4.03170,2.013,-1,4
220,4.03370,2.003,-1,4
221,4.03569,1.994,-1,4
222,4.03767,1.980,-1,4
223,4.03965,1.974,-1,4
224,4.04162,1.969,-1,4
225,4.04358,1.959,-1,4
226,4.04552,1.947,-1,4
227,4.04746,1.933,-1,4
228,4.04938,1.927,-1,4
229,4.05131,1.924,-1,4
230,4.05322,1.911,-1,4
231,4.05512,1.897,-1,4
232,4.05700,1.883,-1,4
233,4.05888,1.881,-1,4
234,4.06075,1.875,-1,4
235,4.06261,1.859,-1,4
236,4.06446,1.847,-1,4
237,4.06630,1.839,-1,4
238,4.06813,1.831,-1,4
239,4.06996,1.825,-1,4
240,4.07177,1.811,-1,4
241,4.07357,1.799,-1,4
242,4.07536,1.793,-1,4
243,4.07714,1.783,-1,4
244,4.07892,1.775,-1,4
245,4.08068,1.764,-1,4
246,4.08244,1.756,-1,4
247,4.08419,1.748,-1,4
248,4.08765,1.731,-1,4
249,4.08938,1.726,-1,4
250,4.09109,1.715,-1,4
251,4.09279,1.701,-1,4
252,4.09448,1.692,-1,4
253,4.09618,1.694,-1,4
254,4.09787,1.691,-1,4
255,4.09955,1.675,-1,4
256,4.10121,1.661,-1,4
257,4.10286,1.656,-1,4
258,4.10452,1.660,-1,4
259,4.10618,1.660,-1,4
260,4.10783,1.645,-1,4
261,4.10945,1.627,-1,4
262,4.11108,1.627,-1,4
263,4.11272,1.633,-1,4
264,4.11435,1.632,-1,4
265,4.11597,1.618,-1,4
266,4.11757,1.603,-1,4
267,4.11917,1.600,-1,4
268,4.12078,1.614,-1,4
269,4.12239,1.612,-1,4
270,4.12399,1.595,-1,4
271,4.12557,1.585,-1,4
272,4.12716,1.588,-1,4
273,4.13036,1.597,-1,4
274,4.13194,1.579,-1,4
275,4.13351,1.572,-1,4
276,4.13510,1.589,-1,4
277,4.13669,1.593,-1,4
278,4.13828,1.584,-1,4
279,4.13985,1.570,-1,4
280,4.14142,1.573,-1,4
281,4.14300,1.585,-1,4
282,4.14460,1.597,-1,4
283,4.14618,1.584,-1,4
284,4.14776,1.571,-1,4
285,4.14933,1.572,-1,4
286,4.15092,1.588,-1,4
287,4.15252,1.603,-1,4
288,4.15411,1.595,-1,4
289,4.15569,1.578,-1,4
290,4.15727,1.578,-1,4
291,4.15887,1.602,-1,4
292,4.16049,1.614,-1,4
293,4.16209,1.608,-1,4
294,4.16369,1.595,-1,4
295,4.16528,1.595,-1,4
296,4.16690,1.616,-1,4
297,4.16853,1.635,-1,4
298,4.17178,1.616,-1,4
299,4.17340,1.621,-1,4
300,4.17504,1.639,-1,4
301,4.17669,1.652,-1,4
302,4.17834,1.648,-1,4
303,4.17998,1.639,-1,4
304,4.18162,1.649,-1,4
305,4.18329,1.670,-1,4
306,4.18497,1.676,-1,4
307,4.18664,1.672,-1,4
308,4.18831,1.668,-1,4
309,4.18999,1.682,-1,4
310,4.19169,1.702,-1,4
311,4.19340,1.707,-1,4
312,4.19510,1.698,-1,4
313,4.19680,1.700,-1,4
314,4.19851,1.716,-1,4
315,4.20025,1.736,-1,4
316,4.20199,1.740,-1,4
317,4.20372,1.730,-1,4
318,4.20545,1.733,-1,4
319,4.20720,1.749,-1,4
320,4.20897,1.768,-1,4
321,4.21074,1.772,-1,4
322,4.21251,1.764,-1,4
323,4.21428,1.769,-1,4
324,4.21606,1.784,-1,4
325,4.21786,1.801,-1,4
326,4.21967,1.804,-1,4
327,4.22327,1.804,-1,4
328,4.22509,1.818,-1,4
329,4.22692,1.828,-1,4
330,4.22876,1.838,-1,4
331,4.23060,1.844,-1,4
332,4.23244,1.838,-1,4
333,4.23428,1.843,-1,4
334,4.23614,1.857,-1,4
335,4.23801,1.873,-1,4
336,4.23989,1.879,-1,4
337,4.24176,1.868,-1,4
338,4.24362,1.868,-1,4
339,4.24551,1.885,-1,4
340,4.24742,1.906,-1,4
341,4.24932,1.907,-1,4
342,4.25122,1.896,-1,4
343,4.25312,1.897,-1,4
344,4.25503,1.914,-1,4
345,4.25696,1.930,-1,4
346,4.25889,1.930,-1,4
347,4.26081,1.920,-1,4
348,4.26273,1.923,-1,4
349,4.26467,1.934,-1,4
350,4.26662,1.950,-1,4
351,4.26857,1.951,-1,4
352,4.27051,1.947,-1,4
353,4.27246,1.944,-1,4
354,4.27441,1.947,-1,4
355,4.27637,1.966,-1,4
356,4.28031,1.967,-1,4
357,4.28227,1.955,-1,4
358,4.28423,1.961,-1,4
359,4.28621,1.978,-1,4
360,4.28819,1.989,-1,4
361,4.29017,1.977,-1,4
362,4.29214,1.969,-1,4
363,4.29412,1.976,-1,4
364,4.29611,1.989,-1,4
365,4.29810,1.993,-1,4
366,4.30009,1.990,-1,4
367,4.30207,1.984,-1,4
368,4.30406,1.985,-1,4
369,4.30605,1.993,-1,4
370,4.30805,2.001,-1,4
371,4.31006,2.002,-1,4
372,4.31205,1.992,-1,4
373,4.31404,1.991,-1,4
374,4.31604,2.000,-1,4
375,4.31805,2.011,-1,4
376,4.32005,2.005,-1,4
377,4.32205,1.993,-1,4
378,4.32405,2.001,-1,4
379,4.32606,2.012,-1,4
380,4.32807,2.011,-1,4
381,4.33007,2.002,-1,4
382,4.33208,2.006,-1,4
383,4.33409,2.014,-1,4
384,4.33611,2.012,-1,4
385,4.33811,2.008,-1,4
386,4.34215,2.019,-1,4
387,4.34215,2.016,-1,4
388,4.34416,2.018,-1,4
389,4.34820,2.021,-1,4
390,4.34820,2.021,-1,4
391,4.35225,2.027,-1,4
392,4.35428,2.028,-1,4
393,4.35428,2.028,-1,4
394,4.35834,2.031,-1,4
395,4.36037,2.033,-1,4
396,4.36241,2.038,-1,4
397,4.36445,2.044,-1,4
398,4.36650,2.043,-1,4
399,4.36854,2.040,-1,4
400,4.37059,2.052,-1,4
401,4.37265,2.058,-1,4
402,4.37471,2.062,-1,4
403,4.37677,2.056,-1,4
404,4.37883,2.066,-1,4
405,4.38091,2.078,-1,4
406,4.38299,2.080,-1,4
407,4.38507,2.076,-1,4
408,4.38715,2.086,-1,4
409,4.38925,2.098,-1,4
410,4.39135,2.104,-1,4
411,4.39346,2.101,-1,4
412,4.39556,2.110,-1,4
413,4.39769,2.120,-1,4
414,4.39981,2.129,-1,4
415,4.40409,2.139,-1,4
416,4.40409,2.145,-1,4
417,4.40623,2.155,-1,4
418,4.41055,2.167,-1,4
419,4.41055,2.173,-1,4
420,4.41490,2.177,-1,4
421,4.41709,2.185,-1,4
422,4.41709,2.203,-1,4
423,4.42150,2.212,-1,4
424,4.42372,2.216,-1,4
425,4.42594,2.223,-1,4
426,4.42818,2.243,-1,4
427,4.43044,2.254,-1,4
428,4.43269,2.258,-1,4
429,4.43496,2.266,-1,4
430,4.43724,2.283,-1,4
431,4.43954,2.299,-1,4
432,4.44185,2.307,-1,4
433,4.44417,2.317,-1,4
434,4.44650,2.332,-1,4
435,4.44884,2.342,-1,4
436,4.45120,2.362,-1,4
437,4.45358,2.371,-1,4
438,4.45596,2.383,-1,4
439,4.45836,2.399,-1,4
440,4.46077,2.415,-1,4
441,4.46320,2.426,-1,4
442,4.46564,2.443,-1,4
443,4.46810,2.460,-1,4
444,4.47057,2.470,-1,4
445,4.47306,2.485,-1,4
446,4.47556,2.521,-1,4
447,4.47809,2.532,-1,4
448,4.48062,2.549,-1,4
449,4.48574,2.572,-1,4
450,4.48832,2.584,-1,4
451,4.49092,2.601,-1,4
452,4.49354,2.618,-1,4
453,4.49618,2.636,-1,4
454,4.49883,2.654,-1,4
455,4.50150,2.671,-1,4
456,4.50419,2.688,-1,4
457,4.50690,2.706,-1,4
458,4.50962,2.723,-1,4
459,4.51236,2.743,-1,4
460,4.51512,2.762,-1,4
461,4.51790,2.776,-1,4
462,4.52070,2.796,-1,4
463,4.52352,2.820,-1,4
464,4.52635,2.834,-1,4
465,4.52920,2.848,-1,4
466,4.53207,2.870,-1,4
467,4.53495,2.885,-1,4
468,4.53786,2.906,-1,4
469,4.54078,2.923,-1,4
470,4.54372,2.940,-1,4
471,4.54667,2.952,-1,4
472,4.54964,2.970,-1,4
473,4.55263,2.989,-1,4
474,4.55564,3.008,-1,4
475,4.55866,3.018,-1,4
476,4.56169,3.033,-1,4
477,4.56474,3.048,-1,4
478,4.56780,3.062,-1,4
479,4.57088,3.080,-1,4
480,4.57398,3.103,-1,4
481,4.58020,3.119,-1,4
482,4.58333,3.133,-1,4
483,4.58648,3.147,-1,4
484,4.58964,3.156,-1,4
485,4.59281,3.169,-1,4
486,4.59599,3.180,-1,4
487,4.59918,3.196,-1,4
488,4.60239,3.204,-1,4
489,4.60560,3.211,-1,4
490,4.60882,3.223,-1,4
491,4.61205,3.231,-1,4
492,4.61529,3.243,-1,4
493,4.61854,3.251,-1,4
494,4.62180,3.255,-1,4
495,4.62506,3.264,-1,4
496,4.62834,3.274,-1,4
497,4.63162,3.279,-1,4
498,4.63490,3.287,-1,4
499,4.63820,3.292,-1,4
500,4.64149,3.297,-1,4
501,4.64480,3.304,-1,4
502,4.64810,3.307,-1,4
503,4.65141,3.311,-1,4
504,4.65473,3.315,-1,4
505,4.65805,3.321,-1,4
506,4.66137,3.321,-1,4
507,4.66470,3.327,-1,4
508,4.66803,3.328,-1,4
509,4.67135,3.328,-1,4
510,4.67469,3.331,-1,4
511,4.68135,3.334,-1,4
512,4.68469,3.334,-1,4
513,4.68802,3.334,-1,4
514,4.69135,3.332,-1,4
515,4.69469,3.335,-1,4
516,4.69802,3.332,-1,4
517,4.70135,3.330,-1,4
518,4.70468,3.326,-1,4
519,4.70800,3.324,-1,4
520,4.71132,3.324,-1,4
521,4.71465,3.323,-1,4
522,4.71796,3.315,-1,4
523,4.72128,3.313,-1,4
524,4.72458,3.307,-1,4
525,4.72789,3.306,-1,4
526,4.73119,3.303,-1,4
527,4.73449,3.296,-1,4
528,4.73778,3.290,-1,4
529,4.74107,3.288,-1,4
530,4.74435,3.281,-1,4
531,4.74762,3.273,-1,4
532,4.75089,3.270,-1,4
533,4.75415,3.262,-1,4
534,4.75741,3.257,-1,4
535,4.76066,3.241,-1,4
536,4.76390,3.235,-1,4
537,4.76714,3.227,-1,4
538,4.77358,3.218,-1,4
539,4.77680,3.214,-1,4
540,4.78000,3.204,-1,4
541,4.78319,3.191,-1,4
542,4.78638,3.189,-1,4
543,4.78956,3.179,-1,4
544,4.79273,3.172,-1,4
545,4.79589,3.159,-1,4
546,4.79904,3.154,-1,4
547,4.80218,3.140,-1,4
548,4.80532,3.136,-1,4
549,4.80845,3.129,-1,4
550,4.81157,3.118,-1,4
551,4.81467,3.106,-1,4
552,4.81777,3.101,-1,4
553,4.82087,3.091,-1,4
554,4.82395,3.085,-1,4
555,4.82702,3.074,-1,4
556,4.83009,3.064,-1,4
557,4.83314,3.054,-1,4
558,4.83619,3.046,-1,4
559,4.83923,3.041,-1,4
560,4.84226,3.033,-1,4
561,4.84528,3.021,-1,4
562,4.84829,3.007,-1,4
563,4.85129,3.003,-1,4
564,4.85429,2.995,-1,4
565,4.85727,2.974,-1,4
566,4.86025,2.969,-1,4
567,4.86617,2.958,-1,4
568,4.86913,2.953,-1,4
569,4.87207,2.942,-1,4
570,4.87500,2.933,-1,4
571,4.87792,2.920,-1,4
572,4.88084,2.915,-1,4
573,4.88375,2.908,-1,4
574,4.88665,2.902,-1,4
575,4.88954,2.887,-1,4
576,4.89242,2.881,-1,4
577,4.89529,2.869,-1,4
578,4.89815,2.863,-1,4
579,4.90101,2.859,-1,4
580,4.90385,2.844,-1,4
581,4.90669,2.837,-1,4
582,4.90952,2.828,-1,4
583,4.91234,2.821,-1,4
584,4.91515,2.811,-1,4
585,4.91796,2.807,-1,4
586,4.92075,2.798,-1,4
587,4.92354,2.790,-1,4
588,4.92633,2.782,-1,4
589,4.92910,2.775,-1,4
590,4.93187,2.769,-1,4
591,4.93463,2.759,-1,4
592,4.93738,2.756,-1,4
593,4.94013,2.750,-1,4
594,4.94287,2.740,-1,4
595,4.94561,2.735,-1,4
596,4.94834,2.732,-1,4
597,4.95107,2.723,-1,4
598,4.95379,2.719,-1,4
599,4.95650,2.715,-1,4
600,4.96191,2.702,-1,4
601,4.96461,2.699,-1,4
602,4.96730,2.692,-1,4
603,4.96999,2.689,-1,4
604,4.97267,2.681,-1,4
605,4.97535,2.680,-1,4
606,4.97803,2.678,-1,4
607,4.98070,2.668,-1,4
608,4.98336,2.666,-1,4
609,4.98603,2.668,-1,4
610,4.98869,2.660,-1,4
611,4.99134,2.655,-1,4
612,4.99400,2.659,-1,4
613,4.99665,2.651,-1,4
614,4.99930,2.650,-1,4
615,5.00195,2.647,-1,4
616,5.00460,2.647,-1,4
617,5.00724,2.644,-1,4
618,5.00988,2.642,-1,4
619,5.01253,2.643,-1,4
620,5.01516,2.638,-1,4
621,5.01781,2.641,-1,4
622,5.02044,2.637,-1,4
623,5.02308,2.639,-1,4
624,5.02572,2.639,-1,4
625,5.02835,2.632,-1,4
626,5.03098,2.633,-1,4
627,5.03362,2.637,-1,4
628,5.03626,2.636,-1,4
629,5.03889,2.638,-1,4
630,5.04416,2.633,-1,4
631,5.04679,2.632,-1,4
632,5.04942,2.633,-1,4
633,5.05206,2.634,-1,4
634,5.05469,2.634,-1,4
635,5.05732,2.632,-1,4
636,5.05996,2.634,-1,4
637,5.06259,2.632,-1,4
638,5.06522,2.634,-1,4
639,5.06786,2.633,-1,4
640,5.07049,2.633,-1,4
641,5.07312,2.633,-1,4
642,5.07576,2.634,-1,4
643,5.07839,2.633,-1,4
644,5.08103,2.636,-1,4
645,5.08366,2.631,-1,4
646,5.08629,2.632,-1,4
647,5.08892,2.635,-1,4
648,5.09156,2.634,-1,4
649,5.09419,2.634,-1,4
650,5.09683,2.637,-1,4
651,5.09946,2.635,-1,4
652,5.10210,2.634,-1,4
653,5.10474,2.638,-1,4
654,5.10737,2.635,-1,4
655,5.11001,2.636,-1,4
656,5.11264,2.634,-1,4
657,5.11528,2.638,-1,4
658,5.11792,2.637,-1,4
659,5.12055,2.638,-1,4
660,5.12582,2.636,-1,4
661,5.12846,2.637,-1,4
662,5.13110,2.634,-1,4
663,5.13373,2.639,-1,4
664,5.13637,2.635,-1,4
665,5.13901,2.635,-1,4
666,5.14163,2.630,-1,4
667,5.14427,2.638,-1,4
668,5.14691,2.636,-1,4
669,5.14955,2.637,-1,4
670,5.15218,2.634,-1,4
671,5.15481,2.631,-1,4
672,5.15745,2.637,-1,4
673,5.16008,2.637,-1,4
674,5.16272,2.637,-1,4
675,5.16535,2.634,-1,4
676,5.16799,2.637,-1,4
677,5.17062,2.631,-1,4
678,5.17326,2.640,-1,4
679,5.17590,2.640,-1,4
680,5.17854,2.635,-1,4
681,5.18117,2.637,-1,4
682,5.18381,2.639,-1,4
683,5.18645,2.638,-1,4
684,5.18909,2.638,-1,4
685,5.19173,2.644,-1,4
686,5.19437,2.638,-1,4
687,5.19701,2.642,-1,4
688,5.19966,2.643,-1,4
689,5.20230,2.645,-1,4
690,5.20760,2.646,-1,4
691,5.21025,2.651,-1,4
692,5.21290,2.652,-1,4
693,5.21555,2.654,-1,4
694,5.21821,2.656,-1,4
695,5.22087,2.659,-1,4
696,5.22353,2.664,-1,4
697,5.22620,2.664,-1,4
698,5.22887,2.671,-1,4
699,5.23154,2.673,-1,4
700,5.23422,2.676,-1,4
701,5.23690,2.679,-1,4
702,5.23958,2.685,-1,4
703,5.24227,2.689,-1,4
704,5.24496,2.692,-1,4
705,5.24766,2.697,-1,4
706,5.25036,2.703,-1,4
707,5.25307,2.709,-1,4
708,5.25578,2.712,-1,4
709,5.25850,2.718,-1,4
710,5.26123,2.726,-1,4
711,5.26395,2.729,-1,4
712,5.26669,2.736,-1,4
713,5.26944,2.746,-1,4
714,5.27219,2.749,-1,4
715,5.27494,2.758,-1,4
716,5.27771,2.767,-1,4
717,5.28049,2.774,-1,4
718,5.28326,2.777,-1,4
719,5.28605,2.791,-1,4
720,5.29166,2.809,-1,4
721,5.29448,2.817,-1,4
722,5.29730,2.822,-1,4
723,5.30014,2.836,-1,4
724,5.30298,2.846,-1,4
725,5.30584,2.856,-1,4
726,5.30871,2.866,-1,4
727,5.31158,2.874,-1,4
728,5.31446,2.885,-1,4
729,5.31737,2.902,-1,4
730,5.32027,2.904,-1,4
731,5.32319,2.920,-1,4
732,5.32612,2.930,-1,4
733,5.32906,2.941,-1,4
734,5.33202,2.954,-1,4
735,5.33498,2.962,-1,4
736,5.33795,2.972,-1,4
737,5.34094,2.988,-1,4
738,5.34394,3.002,-1,4
739,5.34695,3.010,-1,4
740,5.34997,3.022,-1,4
741,5.35301,3.034,-1,4
742,5.35606,3.049,-1,4
743,5.35911,3.059,-1,4
744,5.36219,3.075,-1,4
745,5.36527,3.081,-1,4
746,5.36837,3.098,-1,4
747,5.37148,3.112,-1,4
748,5.37461,3.125,-1,4
749,5.37774,3.135,-1,4
750,5.38089,3.146,-1,4
751,5.38722,3.178,-1,4
752,5.39041,3.186,-1,4
753,5.39361,3.199,-1,4
754,5.39682,3.207,-1,4
755,5.40004,3.220,-1,4
756,5.40328,3.240,-1,4
757,5.40652,3.249,-1,4
758,5.40978,3.260,-1,4
759,5.41305,3.267,-1,4
760,5.41633,3.281,-1,4
761,5.41963,3.299,-1,4
762,5.42294,3.310,-1,4
763,5.42626,3.317,-1,4
764,5.42959,3.328,-1,4
765,5.43293,3.340,-1,4
766,5.43628,3.357,-1,4
767,5.43965,3.366,-1,4
768,5.44302,3.373,-1,4
769,5.44641,3.386,-1,4
770,5.44981,3.399,-1,4
771,5.45321,3.408,-1,4
772,5.45663,3.418,-1,4
773,5.46006,3.429,-1,4
774,5.46350,3.437,-1,4
775,5.46695,3.451,-1,4
776,5.47041,3.458,-1,4
777,5.47388,3.469,-1,4
778,5.47735,3.476,-1,4
779,5.48084,3.490,-1,4
780,5.48434,3.498,-1,4
781,5.48785,3.508,-1,4
782,5.49136,3.515,-1,4
783,5.49489,3.523,-1,4
784,5.49842,3.534,-1,4
785,5.50196,3.543,-1,4
786,5.50551,3.552,-1,4
787,5.50907,3.558,-1,4
788,5.51622,3.578,-1,4
789,5.51981,3.586,-1,4
790,5.52340,3.593,-1,4
791,5.52700,3.602,-1,4
792,5.53061,3.610,-1,4
793,5.53423,3.617,-1,4
794,5.53785,3.622,-1,4
795,5.54148,3.632,-1,4
796,5.54512,3.641,-1,4
797,5.54877,3.646,-1,4
798,5.55242,3.650,-1,4
799,5.55607,3.654,-1,4
800,5.55974,3.668,-1,4
801,5.56342,3.676,-1,4
802,5.56710,3.678,-1,4
803,5.57078,3.684,-1,4
804,5.57447,3.690,-1,4
805,5.57817,3.699,-1,4
806,5.58188,3.710,-1,4
807,5.58559,3.709,-1,4
808,5.58931,3.719,-1,4
809,5.59303,3.722,-1,4
810,5.59676,3.733,-1,4
811,5.60050,3.738,-1,4
812,5.60424,3.744,-1,4
813,5.60799,3.746,-1,4
814,5.61174,3.754,-1,4
815,5.61550,3.760,-1,4
816,5.61927,3.762,-1,4
817,5.62304,3.770,-1,4
818,5.62681,3.773,-1,4
819,5.63059,3.785,-1,4
820,5.63816,3.789,-1,4
821,5.64195,3.791,-1,4
822,5.64575,3.798,-1,4
823,5.64955,3.801,-1,4
824,5.65336,3.807,-1,4
825,5.65717,3.811,-1,4
826,5.66099,3.816,-1,4
827,5.66481,3.819,-1,4
828,5.66863,3.823,-1,4
829,5.67246,3.828,-1,4
830,5.67629,3.832,-1,4
831,5.68012,3.831,-1,4
832,5.68395,3.834,-1,4
833,5.68779,3.841,-1,4
834,5.69164,3.846,-1,4
835,5.69549,3.845,-1,4
836,5.69933,3.845,-1,4
837,5.70318,3.850,-1,4
838,5.70703,3.850,-1,4
839,5.71089,3.856,-1,4
840,5.71474,3.857,-1,4
841,5.71860,3.860,-1,4
842,5.72246,3.860,-1,4
843,5.72632,3.861,-1,4
844,5.73019,3.862,-1,4
845,5.73405,3.866,-1,4
846,5.73792,3.866,-1,4
847,5.74179,3.868,-1,4
848,5.74565,3.865,-1,4
849,5.74952,3.867,-1,4
850,5.75725,3.870,-1,4
851,5.76112,3.866,-1,4
852,5.76498,3.865,-1,4
853,5.76885,3.865,-1,4
854,5.77271,3.864,-1,4
855,5.77658,3.864,-1,4
856,5.78044,3.861,-1,4
857,5.78430,3.858,-1,4
858,5.78815,3.857,-1,4
859,5.79201,3.856,-1,4
860,5.79586,3.855,-1,4
861,5.79972,3.854,-1,4
862,5.80357,3.849,-1,4
863,5.80741,3.844,-1,4
864,5.81125,3.844,-1,4
865,5.81510,3.844,-1,4
866,5.81894,3.839,-1,4
867,5.82277,3.831,-1,4
868,5.82660,3.832,-1,4
869,5.83042,3.824,-1,4
870,5.83425,3.824,-1,4
871,5.83806,3.815,-1,4
872,5.84188,3.812,-1,4
873,5.84568,3.807,-1,4
