cnt,pos,speed,Dir,Force,
1,3.99262,1.001,-1,4
2,3.99363,1.011,-1,4
3,3.99462,0.997,-1,4
4,3.99561,0.986,-1,4
5,3.99660,0.989,-1,4
6,3.99761,1.009,-1,4
7,3.99863,1.019,-1,4
8,3.99964,1.011,-1,4
9,4.00064,1.002,-1,4
10,4.00165,1.008,-1,4
11,4.00267,1.022,-1,4
12,4.00370,1.028,-1,4
13,4.00472,1.021,-1,4
14,4.00573,1.014,-1,4
15,4.00675,1.021,-1,4
16,4.00779,1.036,-1,4
17,4.00883,1.038,-1,4
18,4.00986,1.035,-1,4
19,4.01089,1.033,-1,4
20,4.01193,1.039,-1,4
21,4.01298,1.041,-1,4
22,4.01402,1.042,-1,4
23,4.01506,1.046,-1,4
24,4.01612,1.054,-1,4
25,4.01717,1.055,-1,4
26,4.01823,1.053,-1,4
27,4.01928,1.051,-1,4
28,4.02034,1.059,-1,4
29,4.02140,1.064,-1,4
30,4.02247,1.067,-1,4
31,4.02353,1.062,-1,4
32,4.02460,1.067,-1,4
33,4.02567,1.074,-1,4
34,4.02675,1.078,-1,4
35,4.02782,1.070,-1,4
36,4.02889,1.069,-1,4
37,4.02997,1.078,-1,4
38,4.03105,1.089,-1,4
39,4.03214,1.087,-1,4
40,4.03322,1.080,-1,4
41,4.03430,1.080,-1,4
42,4.03539,1.088,-1,4
43,4.03648,1.093,-1,4
44,4.03757,1.089,-1,4
45,4.03866,1.087,-1,4
46,4.03975,1.094,-1,4
47,4.04085,1.099,-1,4
48,4.04195,1.096,-1,4
49,4.04304,1.093,-1,4
50,4.04413,1.095,-1,4
51,4.04523,1.100,-1,4
52,4.04633,1.101,-1,4
53,4.04743,1.100,-1,4
54,4.04854,1.103,-1,4
55,4.05075,1.106,-1,4
56,4.05185,1.099,-1,4
57,4.05295,1.101,-1,4
58,4.05406,1.109,-1,4
59,4.05517,1.112,-1,4
60,4.05628,1.108,-1,4
61,4.05738,1.105,-1,4
62,4.05849,1.109,-1,4
63,4.05960,1.112,-1,4
64,4.06071,1.108,-1,4
65,4.06182,1.105,-1,4
66,4.06293,1.110,-1,4
67,4.06404,1.115,-1,4
68,4.06515,1.111,-1,4
69,4.06626,1.107,-1,4
70,4.06737,1.109,-1,4
71,4.06848,1.112,-1,4
72,4.06959,1.111,-1,4
73,4.07070,1.106,-1,4
74,4.07181,1.107,-1,4
75,4.07292,1.114,-1,4
76,4.07403,1.115,-1,4
77,4.07514,1.108,-1,4
78,4.07625,1.103,-1,4
79,4.07735,1.109,-1,4
80,4.07847,1.114,-1,4
81,4.07958,1.112,-1,4
82,4.08069,1.107,-1,4
83,4.08180,1.108,-1,4
84,4.08291,1.110,-1,4
85,4.08401,1.108,-1,4
86,4.08512,1.105,-1,4
87,4.08623,1.110,-1,4
88,4.08734,1.114,-1,4
89,4.08845,1.110,-1,4
90,4.08956,1.102,-1,4
91,4.09066,1.101,-1,4
92,4.09176,1.108,-1,4
93,4.09287,1.109,-1,4
94,4.09398,1.104,-1,4
95,4.09508,1.101,-1,4
96,4.09618,1.106,-1,4
97,4.09729,1.107,-1,4
98,4.09839,1.099,-1,4
99,4.09948,1.092,-1,4
100,4.10058,1.098,-1,4
101,4.10168,1.105,-1,4
102,4.10279,1.102,-1,4
103,4.10388,1.095,-1,4
104,4.10498,1.093,-1,4
105,4.10607,1.097,-1,4
106,4.10717,1.096,-1,4
107,4.10826,1.089,-1,4
108,4.10934,1.087,-1,4
109,4.11044,1.095,-1,4
110,4.11154,1.096,-1,4
111,4.11262,1.087,-1,4
112,4.11370,1.079,-1,4
113,4.11478,1.083,-1,4
114,4.11587,1.088,-1,4
115,4.11696,1.083,-1,4
116,4.11803,1.076,-1,4
117,4.11911,1.078,-1,4
118,4.12019,1.081,-1,4
119,4.12127,1.078,-1,4
120,4.12234,1.067,-1,4
121,4.12340,1.063,-1,4
122,4.12447,1.072,-1,4
123,4.12555,1.074,-1,4
124,4.12661,1.065,-1,4
125,4.12767,1.059,-1,4
126,4.12873,1.059,-1,4
127,4.12979,1.057,-1,4
128,4.13085,1.049,-1,4
129,4.13295,1.050,-1,4
130,4.13401,1.059,-1,4
131,4.13506,1.058,-1,4
132,4.13611,1.042,-1,4
133,4.13714,1.035,-1,4
134,4.13818,1.039,-1,4
135,4.13923,1.048,-1,4
136,4.14027,1.043,-1,4
137,4.14130,1.030,-1,4
138,4.14233,1.028,-1,4
139,4.14337,1.039,-1,4
140,4.14441,1.038,-1,4
141,4.14543,1.024,-1,4
142,4.14644,1.014,-1,4
143,4.14746,1.020,-1,4
144,4.14849,1.027,-1,4
145,4.14951,1.023,-1,4
146,4.15053,1.013,-1,4
147,4.15153,1.005,-1,4
148,4.15254,1.012,-1,4
149,4.15356,1.018,-1,4
150,4.15457,1.005,-1,4
151,4.15556,0.993,-1,4
152,4.15656,0.997,-1,4
153,4.15756,1.007,-1,4
154,4.15857,1.007,-1,4
155,4.15956,0.992,-1,4
156,4.16054,0.981,-1,4
157,4.16153,0.988,-1,4
158,4.16253,0.994,-1,4
159,4.16352,0.993,-1,4
160,4.16450,0.980,-1,4
161,4.16547,0.974,-1,4
162,4.16646,0.982,-1,4
163,4.16744,0.987,-1,4
164,4.16842,0.980,-1,4
165,4.16939,0.964,-1,4
166,4.17035,0.963,-1,4
167,4.17132,0.971,-1,4
168,4.17230,0.982,-1,4
169,4.17327,0.969,-1,4
170,4.17423,0.956,-1,4
171,4.17518,0.951,-1,4
172,4.17614,0.964,-1,4
173,4.17711,0.965,-1,4
174,4.17806,0.955,-1,4
175,4.17900,0.941,-1,4
176,4.17995,0.947,-1,4
177,4.18091,0.959,-1,4
178,4.18187,0.958,-1,4
179,4.18281,0.945,-1,4
180,4.18374,0.929,-1,4
181,4.18468,0.936,-1,4
182,4.18563,0.948,-1,4
183,4.18658,0.949,-1,4
184,4.18751,0.936,-1,4
185,4.18843,0.923,-1,4
186,4.18937,0.932,-1,4
187,4.19031,0.944,-1,4
188,4.19125,0.941,-1,4
189,4.19218,0.924,-1,4
190,4.19309,0.914,-1,4
191,4.19495,0.937,-1,4
192,4.19589,0.935,-1,4
193,4.19680,0.919,-1,4
194,4.19771,0.910,-1,4
195,4.19863,0.916,-1,4
196,4.19956,0.930,-1,4
197,4.20049,0.928,-1,4
198,4.20140,0.910,-1,4
199,4.20230,0.898,-1,4
200,4.20321,0.909,-1,4
201,4.20413,0.926,-1,4
202,4.20506,0.925,-1,4
203,4.20596,0.905,-1,4
204,4.20685,0.892,-1,4
205,4.20775,0.899,-1,4
206,4.20867,0.919,-1,4
207,4.20959,0.919,-1,4
208,4.21049,0.898,-1,4
209,4.21137,0.885,-1,4
210,4.21227,0.894,-1,4
211,4.21318,0.913,-1,4
212,4.21409,0.914,-1,4
213,4.21499,0.896,-1,4
214,4.21587,0.880,-1,4
215,4.21676,0.886,-1,4
216,4.21766,0.904,-1,4
217,4.21857,0.910,-1,4
218,4.21947,0.896,-1,4
219,4.22034,0.878,-1,4
220,4.22122,0.878,-1,4
221,4.22212,0.896,-1,4
222,4.22303,0.909,-1,4
223,4.22392,0.895,-1,4
224,4.22480,0.873,-1,4
225,4.22567,0.870,-1,4
226,4.22655,0.888,-1,4
227,4.22746,0.905,-1,4
228,4.22836,0.898,-1,4
229,4.22923,0.875,-1,4
230,4.23010,0.865,-1,4
231,4.23097,0.874,-1,4
232,4.23187,0.894,-1,4
233,4.23276,0.895,-1,4
234,4.23364,0.877,-1,4
235,4.23450,0.861,-1,4
236,4.23536,0.865,-1,4
237,4.23625,0.886,-1,4
238,4.23714,0.894,-1,4
239,4.23802,0.880,-1,4
240,4.23888,0.859,-1,4
241,4.23973,0.853,-1,4
242,4.24061,0.871,-1,4
243,4.24149,0.887,-1,4
244,4.24237,0.881,-1,4
245,4.24324,0.861,-1,4
246,4.24409,0.851,-1,4
247,4.24495,0.864,-1,4
248,4.24583,0.880,-1,4
249,4.24671,0.881,-1,4
250,4.24757,0.862,-1,4
251,4.24842,0.847,-1,4
252,4.24927,0.851,-1,4
253,4.25014,0.872,-1,4
254,4.25102,0.868,-1,4
255,4.25274,0.851,-1,4
256,4.25274,0.844,-1,4
257,4.25445,0.857,-1,4
258,4.25532,0.873,-1,4
259,4.25619,0.869,-1,4
260,4.25704,0.852,-1,4
261,4.25788,0.839,-1,4
262,4.25873,0.847,-1,4
263,4.25959,0.864,-1,4
264,4.26046,0.871,-1,4
265,4.26132,0.857,-1,4
266,4.26215,0.837,-1,4
267,4.26299,0.834,-1,4
268,4.26384,0.850,-1,4
269,4.26470,0.866,-1,4
270,4.26640,0.842,-1,4
271,4.26724,0.833,-1,4
272,4.26808,0.840,-1,4
273,4.26893,0.856,-1,4
274,4.26979,0.860,-1,4
275,4.27064,0.846,-1,4
276,4.27147,0.831,-1,4
277,4.27230,0.831,-1,4
278,4.27315,0.844,-1,4
279,4.27400,0.857,-1,4
280,4.27485,0.852,-1,4
281,4.27569,0.837,-1,4
282,4.27652,0.828,-1,4
283,4.27735,0.833,-1,4
284,4.27820,0.847,-1,4
285,4.27905,0.853,-1,4
286,4.27990,0.842,-1,4
287,4.28072,0.828,-1,4
288,4.28155,0.826,-1,4
289,4.28239,0.837,-1,4
290,4.28323,0.848,-1,4
291,4.28408,0.847,-1,4
292,4.28491,0.832,-1,4
293,4.28573,0.820,-1,4
294,4.28656,0.824,-1,4
295,4.28739,0.837,-1,4
296,4.28824,0.844,-1,4
297,4.28907,0.835,-1,4
298,4.28989,0.821,-1,4
299,4.29071,0.818,-1,4
300,4.29154,0.827,-1,4
301,4.29238,0.838,-1,4
302,4.29321,0.835,-1,4
303,4.29404,0.823,-1,4
304,4.29485,0.812,-1,4
305,4.29566,0.814,-1,4
306,4.29649,0.825,-1,4
307,4.29732,0.833,-1,4
308,4.29815,0.828,-1,4
309,4.29896,0.816,-1,4
310,4.29977,0.810,-1,4
311,4.30059,0.815,-1,4
312,4.30141,0.821,-1,4
313,4.30223,0.823,-1,4
314,4.30305,0.815,-1,4
315,4.30386,0.808,-1,4
316,4.30466,0.809,-1,4
317,4.30548,0.814,-1,4
318,4.30630,0.820,-1,4
319,4.30712,0.818,-1,4
320,4.30793,0.810,-1,4
321,4.30873,0.804,-1,4
322,4.30953,0.803,-1,4
323,4.31034,0.806,-1,4
324,4.31115,0.810,-1,4
325,4.31196,0.810,-1,4
326,4.31276,0.805,-1,4
327,4.31357,0.802,-1,4
328,4.31437,0.801,-1,4
329,4.31517,0.803,-1,4
330,4.31597,0.804,-1,4
331,4.31678,0.803,-1,4
332,4.31758,0.798,-1,4
333,4.31837,0.793,-1,4
334,4.31916,0.791,-1,4
335,4.31996,0.796,-1,4
336,4.32076,0.800,-1,4
337,4.32156,0.800,-1,4
338,4.32235,0.795,-1,4
339,4.32314,0.788,-1,4
340,4.32472,0.790,-1,4
341,4.32551,0.793,-1,4
342,4.32630,0.793,-1,4
343,4.32709,0.787,-1,4
344,4.32787,0.783,-1,4
345,4.32866,0.784,-1,4
346,4.32945,0.791,-1,4
347,4.33024,0.792,-1,4
348,4.33103,0.789,-1,4
349,4.33181,0.783,-1,4
350,4.33259,0.777,-1,4
351,4.33337,0.780,-1,4
352,4.33416,0.784,-1,4
353,4.33494,0.787,-1,4
354,4.33573,0.785,-1,4
355,4.33651,0.781,-1,4
356,4.33729,0.777,-1,4
357,4.33807,0.781,-1,4
358,4.33885,0.783,-1,4
359,4.33963,0.784,-1,4
360,4.34041,0.781,-1,4
361,4.34119,0.777,-1,4
362,4.34196,0.774,-1,4
363,4.34274,0.777,-1,4
364,4.34352,0.780,-1,4
365,4.34430,0.781,-1,4
366,4.34508,0.782,-1,4
367,4.34586,0.779,-1,4
368,4.34664,0.775,-1,4
369,4.34741,0.773,-1,4
370,4.34819,0.775,-1,4
371,4.34896,0.777,-1,4
372,4.34974,0.780,-1,4
373,4.35052,0.776,-1,4
374,4.35129,0.774,-1,4
375,4.35207,0.773,-1,4
376,4.35284,0.775,-1,4
377,4.35362,0.780,-1,4
378,4.35440,0.780,-1,4
379,4.35518,0.777,-1,4
380,4.35595,0.772,-1,4
381,4.35672,0.769,-1,4
382,4.35749,0.775,-1,4
383,4.35827,0.779,-1,4
384,4.35905,0.782,-1,4
385,4.35983,0.778,-1,4
386,4.36061,0.774,-1,4
387,4.36138,0.774,-1,4
388,4.36216,0.777,-1,4
389,4.36294,0.781,-1,4
390,4.36372,0.781,-1,4
391,4.36450,0.777,-1,4
392,4.36527,0.774,-1,4
393,4.36605,0.775,-1,4
394,4.36682,0.777,-1,4
395,4.36761,0.783,-1,4
396,4.36839,0.782,-1,4
397,4.36917,0.782,-1,4
398,4.36995,0.778,-1,4
399,4.37072,0.776,-1,4
400,4.37150,0.777,-1,4
401,4.37228,0.781,-1,4
402,4.37307,0.784,-1,4
403,4.37385,0.781,-1,4
404,4.37463,0.779,-1,4
405,4.37540,0.777,-1,4
406,4.37618,0.781,-1,4
407,4.37697,0.786,-1,4
408,4.37776,0.787,-1,4
409,4.37932,0.779,-1,4
410,4.38010,0.779,-1,4
411,4.38088,0.783,-1,4
412,4.38167,0.785,-1,4
413,4.38245,0.787,-1,4
414,4.38324,0.784,-1,4
415,4.38402,0.785,-1,4
416,4.38481,0.787,-1,4
417,4.38559,0.786,-1,4
418,4.38638,0.790,-1,4
419,4.38717,0.789,-1,4
420,4.38796,0.791,-1,4
421,4.38875,0.787,-1,4
422,4.38954,0.786,-1,4
423,4.39033,0.788,-1,4
424,4.39112,0.794,-1,4
425,4.39192,0.799,-1,4
426,4.39271,0.796,-1,4
427,4.39351,0.792,-1,4
428,4.39430,0.791,-1,4
429,4.39509,0.794,-1,4
430,4.39589,0.799,-1,4
431,4.39669,0.798,-1,4
432,4.39749,0.796,-1,4
433,4.39828,0.795,-1,4
434,4.39908,0.799,-1,4
435,4.39988,0.801,-1,4
436,4.40068,0.803,-1,4
437,4.40149,0.802,-1,4
438,4.40229,0.801,-1,4
439,4.40309,0.800,-1,4
440,4.40389,0.800,-1,4
441,4.40469,0.800,-1,4
442,4.40549,0.803,-1,4
443,4.40630,0.806,-1,4
444,4.40710,0.806,-1,4
445,4.40791,0.805,-1,4
446,4.40871,0.804,-1,4
447,4.40952,0.809,-1,4
448,4.41033,0.811,-1,4
449,4.41114,0.811,-1,4
450,4.41195,0.807,-1,4
451,4.41276,0.806,-1,4
452,4.41356,0.809,-1,4
453,4.41438,0.812,-1,4
454,4.41519,0.815,-1,4
455,4.41601,0.815,-1,4
456,4.41682,0.814,-1,4
457,4.41763,0.813,-1,4
458,4.41845,0.816,-1,4
459,4.41927,0.818,-1,4
460,4.42009,0.819,-1,4
461,4.42091,0.818,-1,4
462,4.42172,0.819,-1,4
463,4.42254,0.816,-1,4
464,4.42336,0.820,-1,4
465,4.42418,0.822,-1,4
466,4.42501,0.825,-1,4
467,4.42583,0.824,-1,4
468,4.42665,0.822,-1,4
469,4.42747,0.820,-1,4
470,4.42830,0.827,-1,4
471,4.42995,0.829,-1,4
472,4.43078,0.825,-1,4
473,4.43160,0.824,-1,4
474,4.43243,0.825,-1,4
475,4.43326,0.830,-1,4
476,4.43409,0.832,-1,4
477,4.43492,0.830,-1,4
478,4.43574,0.826,-1,4
479,4.43657,0.825,-1,4
480,4.43740,0.828,-1,4
481,4.43823,0.834,-1,4
482,4.43907,0.837,-1,4
483,4.43990,0.834,-1,4
484,4.44073,0.831,-1,4
485,4.44157,0.832,-1,4
486,4.44240,0.833,-1,4
487,4.44324,0.838,-1,4
488,4.44408,0.838,-1,4
489,4.44491,0.838,-1,4
490,4.44575,0.835,-1,4
491,4.44658,0.837,-1,4
492,4.44742,0.840,-1,4
493,4.44827,0.844,-1,4
494,4.44911,0.845,-1,4
495,4.44995,0.841,-1,4
496,4.45079,0.837,-1,4
497,4.45163,0.839,-1,4
498,4.45248,0.844,-1,4
499,4.45332,0.847,-1,4
500,4.45417,0.846,-1,4
501,4.45501,0.842,-1,4
502,4.45585,0.842,-1,4
503,4.45670,0.850,-1,4
504,4.45755,0.852,-1,4
505,4.45840,0.849,-1,4
506,4.45925,0.843,-1,4
507,4.46009,0.842,-1,4
508,4.46094,0.847,-1,4
509,4.46179,0.852,-1,4
510,4.46264,0.854,-1,4
511,4.46349,0.850,-1,4
512,4.46434,0.848,-1,4
513,4.46519,0.850,-1,4
514,4.46604,0.853,-1,4
515,4.46690,0.853,-1,4
516,4.46775,0.853,-1,4
517,4.46860,0.851,-1,4
518,4.46945,0.852,-1,4
519,4.47030,0.853,-1,4
520,4.47116,0.856,-1,4
521,4.47202,0.859,-1,4
522,4.47288,0.860,-1,4
523,4.47374,0.858,-1,4
524,4.47459,0.853,-1,4
525,4.47545,0.856,-1,4
526,4.47631,0.861,-1,4
527,4.47717,0.864,-1,4
528,4.47803,0.860,-1,4
529,4.47889,0.857,-1,4
530,4.47975,0.858,-1,4
531,4.48149,0.871,-1,4
532,4.48235,0.867,-1,4
533,4.48321,0.860,-1,4
534,4.48407,0.859,-1,4
535,4.48494,0.864,-1,4
536,4.48581,0.871,-1,4
537,4.48668,0.872,-1,4
538,4.48755,0.868,-1,4
539,4.48841,0.864,-1,4
540,4.48928,0.867,-1,4
541,4.49015,0.873,-1,4
542,4.49102,0.875,-1,4
543,4.49189,0.870,-1,4
544,4.49276,0.864,-1,4
545,4.49363,0.868,-1,4
546,4.49450,0.874,-1,4
547,4.49626,0.878,-1,4
548,4.49713,0.871,-1,4
549,4.49800,0.870,-1,4
550,4.49888,0.875,-1,4
551,4.49976,0.880,-1,4
552,4.50064,0.882,-1,4
553,4.50152,0.878,-1,4
554,4.50239,0.877,-1,4
555,4.50327,0.880,-1,4
556,4.50416,0.886,-1,4
557,4.50505,0.889,-1,4
558,4.50593,0.883,-1,4
559,4.50681,0.879,-1,4
560,4.50769,0.880,-1,4
561,4.50858,0.888,-1,4
562,4.50947,0.895,-1,4
563,4.51036,0.892,-1,4
564,4.51125,0.886,-1,4
565,4.51214,0.886,-1,4
566,4.51303,0.890,-1,4
567,4.51392,0.894,-1,4
568,4.51481,0.894,-1,4
569,4.51571,0.894,-1,4
570,4.51660,0.891,-1,4
571,4.51749,0.893,-1,4
572,4.51839,0.897,-1,4
573,4.51929,0.901,-1,4
574,4.52019,0.899,-1,4
575,4.52108,0.894,-1,4
576,4.52197,0.892,-1,4
577,4.52287,0.899,-1,4
578,4.52378,0.906,-1,4
579,4.52468,0.905,-1,4
580,4.52558,0.900,-1,4
581,4.52648,0.898,-1,4
582,4.52739,0.904,-1,4
583,4.52830,0.911,-1,4
584,4.52921,0.911,-1,4
585,4.53012,0.906,-1,4
586,4.53102,0.901,-1,4
587,4.53192,0.903,-1,4
588,4.53284,0.916,-1,4
589,4.53376,0.922,-1,4
590,4.53467,0.915,-1,4
591,4.53558,0.908,-1,4
592,4.53649,0.905,-1,4
593,4.53740,0.915,-1,4
594,4.53833,0.926,-1,4
595,4.53925,0.923,-1,4
596,4.54016,0.912,-1,4
597,4.54107,0.907,-1,4
598,4.54199,0.919,-1,4
599,4.54292,0.930,-1,4
600,4.54385,0.930,-1,4
601,4.54476,0.915,-1,4
602,4.54567,0.908,-1,4
603,4.54659,0.919,-1,4
604,4.54753,0.935,-1,4
605,4.54846,0.935,-1,4
606,4.54939,0.923,-1,4
607,4.55030,0.914,-1,4
608,4.55122,0.920,-1,4
609,4.55216,0.936,-1,4
610,4.55403,0.929,-1,4
611,4.55495,0.921,-1,4
612,4.55587,0.923,-1,4
613,4.55681,0.939,-1,4
614,4.55776,0.951,-1,4
615,4.55870,0.940,-1,4
616,4.55962,0.924,-1,4
617,4.56055,0.924,-1,4
618,4.56149,0.942,-1,4
619,4.56245,0.960,-1,4
620,4.56340,0.949,-1,4
621,4.56433,0.931,-1,4
622,4.56526,0.927,-1,4
623,4.56620,0.943,-1,4
624,4.56717,0.966,-1,4
625,4.56812,0.958,-1,4
626,4.56906,0.941,-1,4
627,4.57000,0.932,-1,4
628,4.57095,0.949,-1,4
629,4.57191,0.968,-1,4
630,4.57288,0.964,-1,4
631,4.57382,0.946,-1,4
632,4.57476,0.937,-1,4
633,4.57572,0.956,-1,4
634,4.57669,0.975,-1,4
635,4.57767,0.974,-1,4
636,4.57862,0.950,-1,4
637,4.57956,0.943,-1,4
638,4.58052,0.960,-1,4
639,4.58150,0.984,-1,4
640,4.58248,0.980,-1,4
641,4.58344,0.961,-1,4
642,4.58439,0.949,-1,4
643,4.58536,0.970,-1,4
644,4.58635,0.989,-1,4
645,4.58734,0.989,-1,4
646,4.58831,0.966,-1,4
647,4.58927,0.960,-1,4
648,4.59024,0.977,-1,4
649,4.59124,1.000,-1,4
650,4.59224,0.994,-1,4
651,4.59321,0.972,-1,4
652,4.59418,0.969,-1,4
653,4.59517,0.988,-1,4
654,4.59617,1.008,-1,4
655,4.59717,1.000,-1,4
656,4.59816,0.981,-1,4
657,4.59913,0.979,-1,4
658,4.60013,0.997,-1,4
659,4.60115,1.014,-1,4
660,4.60215,1.002,-1,4
661,4.60313,0.987,-1,4
662,4.60413,0.992,-1,4
663,4.60514,1.013,-1,4
664,4.60616,1.022,-1,4
665,4.60717,1.006,-1,4
666,4.60816,0.993,-1,4
667,4.60916,1.004,-1,4
668,4.61019,1.023,-1,4
669,4.61121,1.027,-1,4
670,4.61223,1.014,-1,4
671,4.61323,1.007,-1,4
672,4.61425,1.019,-1,4
673,4.61529,1.035,-1,4
674,4.61632,1.033,-1,4
675,4.61734,1.019,-1,4
676,4.61836,1.017,-1,4
677,4.61940,1.037,-1,4
678,4.62044,1.048,-1,4
679,4.62252,1.031,-1,4
680,4.62355,1.037,-1,4
681,4.62460,1.052,-1,4
682,4.62566,1.053,-1,4
683,4.62670,1.045,-1,4
684,4.62775,1.043,-1,4
685,4.62881,1.060,-1,4
686,4.62987,1.068,-1,4
687,4.63094,1.063,-1,4
688,4.63199,1.054,-1,4
689,4.63305,1.063,-1,4
690,4.63413,1.074,-1,4
691,4.63520,1.075,-1,4
692,4.63627,1.069,-1,4
693,4.63734,1.073,-1,4
694,4.63843,1.087,-1,4
695,4.63952,1.092,-1,4
696,4.64061,1.082,-1,4
697,4.64168,1.079,-1,4
698,4.64278,1.092,-1,4
699,4.64388,1.104,-1,4
700,4.64498,1.100,-1,4
701,4.64608,1.094,-1,4
702,4.64718,1.101,-1,4
703,4.64829,1.112,-1,4
704,4.64940,1.112,-1,4
705,4.65051,1.105,-1,4
706,4.65162,1.110,-1,4
707,4.65274,1.125,-1,4
708,4.65387,1.128,-1,4
709,4.65498,1.117,-1,4
710,4.65610,1.114,-1,4
711,4.65722,1.125,-1,4
712,4.65836,1.134,-1,4
713,4.65949,1.130,-1,4
714,4.66061,1.126,-1,4
715,4.66175,1.135,-1,4
716,4.66289,1.139,-1,4
717,4.66402,1.135,-1,4
718,4.66515,1.129,-1,4
719,4.66629,1.138,-1,4
720,4.66744,1.146,-1,4
721,4.66858,1.146,-1,4
722,4.66972,1.138,-1,4
723,4.67086,1.141,-1,4
724,4.67201,1.146,-1,4
725,4.67315,1.146,-1,4
726,4.67430,1.145,-1,4
727,4.67544,1.146,-1,4
728,4.67660,1.152,-1,4
729,4.67774,1.149,-1,4
730,4.67889,1.144,-1,4
731,4.68003,1.147,-1,4
732,4.68119,1.153,-1,4
733,4.68234,1.149,-1,4
734,4.68348,1.143,-1,4
735,4.68463,1.146,-1,4
736,4.68578,1.155,-1,4
737,4.68693,1.151,-1,4
738,4.68807,1.141,-1,4
739,4.68921,1.141,-1,4
740,4.69036,1.154,-1,4
741,4.69152,1.145,-1,4
742,4.69266,1.142,-1,4
743,4.69495,1.146,-1,4
744,4.69495,1.150,-1,4
745,4.69610,1.141,-1,4
746,4.69838,1.138,-1,4
747,4.69838,1.145,-1,4
748,4.70068,1.150,-1,4
749,4.70182,1.144,-1,4
750,4.70296,1.137,-1,4
751,4.70409,1.138,-1,4
752,4.70524,1.143,-1,4
753,4.70638,1.140,-1,4
754,4.70752,1.139,-1,4
755,4.70866,1.140,-1,4
756,4.70980,1.143,-1,4
757,4.71093,1.136,-1,4
758,4.71207,1.131,-1,4
759,4.71320,1.134,-1,4
760,4.71434,1.142,-1,4
761,4.71548,1.137,-1,4
762,4.71661,1.132,-1,4
763,4.71774,1.132,-1,4
764,4.71888,1.136,-1,4
765,4.72001,1.135,-1,4
766,4.72114,1.128,-1,4
767,4.72228,1.133,-1,4
768,4.72342,1.140,-1,4
769,4.72455,1.139,-1,4
770,4.72568,1.127,-1,4
771,4.72681,1.128,-1,4
772,4.72795,1.139,-1,4
773,4.72909,1.140,-1,4
774,4.73022,1.132,-1,4
775,4.73135,1.129,-1,4
776,4.73249,1.137,-1,4
777,4.73363,1.141,-1,4
778,4.73476,1.135,-1,4
779,4.73589,1.128,-1,4
780,4.73703,1.135,-1,4
781,4.73817,1.144,-1,4
782,4.73931,1.139,-1,4
783,4.74044,1.132,-1,4
784,4.74158,1.135,-1,4
785,4.74272,1.141,-1,4
786,4.74386,1.140,-1,4
787,4.74499,1.136,-1,4
788,4.74613,1.138,-1,4
789,4.74727,1.144,-1,4
790,4.74842,1.142,-1,4
791,4.74955,1.136,-1,4
792,4.75069,1.137,-1,4
793,4.75183,1.143,-1,4
794,4.75298,1.145,-1,4
795,4.75412,1.141,-1,4
796,4.75526,1.141,-1,4
797,4.75640,1.146,-1,4
798,4.75755,1.144,-1,4
799,4.75869,1.139,-1,4
800,4.75983,1.138,-1,4
801,4.76097,1.148,-1,4
802,4.76212,1.150,-1,4
803,4.76327,1.142,-1,4
804,4.76440,1.139,-1,4
805,4.76555,1.144,-1,4
806,4.76670,1.147,-1,4
807,4.76898,1.139,-1,4
808,4.77012,1.148,-1,4
809,4.77127,1.148,-1,4
810,4.77241,1.139,-1,4
811,4.77354,1.134,-1,4
812,4.77469,1.141,-1,4
813,4.77583,1.146,-1,4
814,4.77697,1.141,-1,4
815,4.77811,1.136,-1,4
816,4.77924,1.136,-1,4
817,4.78039,1.141,-1,4
818,4.78153,1.139,-1,4
819,4.78266,1.132,-1,4
820,4.78493,1.140,-1,4
821,4.78607,1.139,-1,4
822,4.78607,1.132,-1,4
823,4.78833,1.131,-1,4
824,4.78947,1.134,-1,4
825,4.79060,1.133,-1,4
826,4.79173,1.128,-1,4
827,4.79286,1.127,-1,4
828,4.79399,1.131,-1,4
829,4.79512,1.132,-1,4
830,4.79624,1.124,-1,4
831,4.79736,1.121,-1,4
832,4.79849,1.125,-1,4
833,4.79961,1.126,-1,4
834,4.80073,1.120,-1,4
835,4.80185,1.116,-1,4
836,4.80297,1.121,-1,4
837,4.80409,1.123,-1,4
838,4.80521,1.114,-1,4
839,4.80632,1.108,-1,4
840,4.80743,1.109,-1,4
841,4.80854,1.117,-1,4
842,4.80966,1.114,-1,4
843,4.81076,1.107,-1,4
844,4.81187,1.104,-1,4
845,4.81297,1.107,-1,4
846,4.81408,1.107,-1,4
847,4.81518,1.101,-1,4
848,4.81628,1.098,-1,4
849,4.81738,1.101,-1,4
850,4.81848,1.102,-1,4
851,4.81958,1.095,-1,4
852,4.82067,1.090,-1,4
853,4.82176,1.092,-1,4
854,4.82285,1.093,-1,4
855,4.82394,1.087,-1,4
856,4.82502,1.082,-1,4
857,4.82610,1.082,-1,4
858,4.82719,1.085,-1,4
859,4.82827,1.080,-1,4
860,4.82934,1.069,-1,4
861,4.83041,1.071,-1,4
862,4.83148,1.076,-1,4
863,4.83256,1.075,-1,4
864,4.83363,1.068,-1,4
865,4.83468,1.059,-1,4
866,4.83575,1.061,-1,4
867,4.83681,1.064,-1,4
868,4.83787,1.058,-1,4
869,4.83892,1.052,-1,4
870,4.83997,1.051,-1,4
871,4.84102,1.054,-1,4
872,4.84208,1.053,-1,4
873,4.84312,1.043,-1,4
