cnt,pos,speed,Dir,Force,
1,3.11657,1.002,-1,4
2,3.11758,1.012,-1,4
3,3.11859,1.016,-1,4
4,3.11962,1.027,-1,4
5,3.12066,1.041,-1,4
6,3.12172,1.055,-1,4
7,3.12278,1.064,-1,4
8,3.12386,1.074,-1,4
9,3.12494,1.086,-1,4
10,3.12604,1.099,-1,4
11,3.12715,1.111,-1,4
12,3.12827,1.119,-1,4
13,3.12940,1.132,-1,4
14,3.13055,1.145,-1,4
15,3.13170,1.156,-1,4
16,3.13287,1.164,-1,4
17,3.13405,1.179,-1,4
18,3.13524,1.194,-1,4
19,3.13645,1.207,-1,4
20,3.13767,1.220,-1,4
21,3.13890,1.232,-1,4
22,3.14014,1.244,-1,4
23,3.14140,1.253,-1,4
24,3.14266,1.265,-1,4
25,3.14394,1.281,-1,4
26,3.14524,1.299,-1,4
27,3.14787,1.319,-1,4
28,3.14787,1.332,-1,4
29,3.15055,1.344,-1,4
30,3.15191,1.355,-1,4
31,3.15328,1.371,-1,4
32,3.15466,1.388,-1,4
33,3.15607,1.402,-1,4
34,3.15748,1.409,-1,4
35,3.15890,1.423,-1,4
36,3.16033,1.435,-1,4
37,3.16178,1.447,-1,4
38,3.16324,1.464,-1,4
39,3.16473,1.481,-1,4
40,3.16621,1.484,-1,4
41,3.16771,1.498,-1,4
42,3.16922,1.516,-1,4
43,3.17075,1.529,-1,4
44,3.17229,1.541,-1,4
45,3.17385,1.553,-1,4
46,3.17541,1.560,-1,4
47,3.17698,1.576,-1,4
48,3.17858,1.594,-1,4
49,3.18018,1.603,-1,4
50,3.18179,1.614,-1,4
51,3.18342,1.625,-1,4
52,3.18506,1.638,-1,4
53,3.18671,1.652,-1,4
54,3.18837,1.663,-1,4
55,3.19004,1.669,-1,4
56,3.19172,1.684,-1,4
57,3.19343,1.702,-1,4
58,3.19514,1.710,-1,4
59,3.19685,1.716,-1,4
60,3.19858,1.723,-1,4
61,3.20031,1.739,-1,4
62,3.20207,1.757,-1,4
63,3.20383,1.764,-1,4
64,3.20560,1.769,-1,4
65,3.20738,1.775,-1,4
66,3.20917,1.788,-1,4
67,3.21097,1.806,-1,4
68,3.21279,1.816,-1,4
69,3.21460,1.815,-1,4
70,3.21643,1.823,-1,4
71,3.21826,1.836,-1,4
72,3.22011,1.852,-1,4
73,3.22197,1.859,-1,4
74,3.22383,1.859,-1,4
75,3.22570,1.867,-1,4
76,3.22758,1.880,-1,4
77,3.22947,1.892,-1,4
78,3.23137,1.899,-1,4
79,3.23327,1.903,-1,4
80,3.23518,1.910,-1,4
81,3.23710,1.915,-1,4
82,3.23903,1.929,-1,4
83,3.24097,1.939,-1,4
84,3.24291,1.942,-1,4
85,3.24485,1.942,-1,4
86,3.24680,1.948,-1,4
87,3.24876,1.966,-1,4
88,3.25074,1.974,-1,4
89,3.25271,1.971,-1,4
90,3.25468,1.973,-1,4
91,3.25667,1.982,-1,4
92,3.25866,1.999,-1,4
93,3.26066,1.999,-1,4
94,3.26266,2.000,-1,4
95,3.26668,2.014,-1,4
96,3.26870,2.021,-1,4
97,3.27073,2.023,-1,4
98,3.27275,2.027,-1,4
99,3.27478,2.028,-1,4
100,3.27682,2.037,-1,4
101,3.27886,2.043,-1,4
102,3.28091,2.047,-1,4
103,3.28296,2.047,-1,4
104,3.28500,2.044,-1,4
105,3.28706,2.058,-1,4
106,3.28912,2.063,-1,4
107,3.29118,2.064,-1,4
108,3.29324,2.059,-1,4
109,3.29531,2.065,-1,4
110,3.29738,2.076,-1,4
111,3.29946,2.077,-1,4
112,3.30153,2.072,-1,4
113,3.30361,2.074,-1,4
114,3.30569,2.083,-1,4
115,3.30778,2.088,-1,4
116,3.30986,2.084,-1,4
117,3.31195,2.087,-1,4
118,3.31404,2.087,-1,4
119,3.31613,2.094,-1,4
120,3.31822,2.095,-1,4
121,3.32032,2.097,-1,4
122,3.32242,2.096,-1,4
123,3.32451,2.096,-1,4
124,3.32662,2.103,-1,4
125,3.32872,2.107,-1,4
126,3.33082,2.100,-1,4
127,3.33292,2.099,-1,4
128,3.33503,2.108,-1,4
129,3.33714,2.111,-1,4
130,3.33925,2.107,-1,4
131,3.34135,2.104,-1,4
132,3.34346,2.113,-1,4
133,3.34558,2.116,-1,4
134,3.34769,2.111,-1,4
135,3.34980,2.108,-1,4
136,3.35191,2.114,-1,4
137,3.35403,2.118,-1,4
138,3.35615,2.116,-1,4
139,3.35826,2.113,-1,4
140,3.36037,2.113,-1,4
141,3.36249,2.120,-1,4
142,3.36461,2.117,-1,4
143,3.36673,2.117,-1,4
144,3.36884,2.116,-1,4
145,3.37096,2.116,-1,4
146,3.37308,2.119,-1,4
147,3.37520,2.122,-1,4
148,3.37732,2.117,-1,4
149,3.37943,2.113,-1,4
150,3.38155,2.121,-1,4
151,3.38367,2.125,-1,4
152,3.38579,2.119,-1,4
153,3.38791,2.114,-1,4
154,3.39003,2.119,-1,4
155,3.39215,2.125,-1,4
156,3.39427,2.123,-1,4
157,3.39639,2.117,-1,4
158,3.39851,2.118,-1,4
159,3.40064,2.127,-1,4
160,3.40276,2.123,-1,4
161,3.40488,2.122,-1,4
162,3.40701,2.124,-1,4
163,3.41125,2.122,-1,4
164,3.41337,2.122,-1,4
165,3.41550,2.127,-1,4
166,3.41762,2.122,-1,4
167,3.41975,2.124,-1,4
168,3.42187,2.125,-1,4
169,3.42400,2.127,-1,4
170,3.42612,2.121,-1,4
171,3.42824,2.125,-1,4
172,3.43037,2.126,-1,4
173,3.43249,2.125,-1,4
174,3.43462,2.122,-1,4
175,3.43674,2.124,-1,4
176,3.43887,2.127,-1,4
177,3.44099,2.124,-1,4
178,3.44311,2.123,-1,4
179,3.44524,2.121,-1,4
180,3.44736,2.128,-1,4
181,3.44949,2.124,-1,4
182,3.45161,2.123,-1,4
183,3.45373,2.122,-1,4
184,3.45586,2.125,-1,4
185,3.45798,2.122,-1,4
186,3.46010,2.122,-1,4
187,3.46223,2.124,-1,4
188,3.46434,2.119,-1,4
189,3.46646,2.120,-1,4
190,3.46859,2.121,-1,4
191,3.47071,2.122,-1,4
192,3.47282,2.112,-1,4
193,3.47493,2.114,-1,4
194,3.47705,2.120,-1,4
195,3.47917,2.117,-1,4
196,3.48128,2.107,-1,4
197,3.48338,2.105,-1,4
198,3.48550,2.114,-1,4
199,3.48761,2.111,-1,4
200,3.48971,2.100,-1,4
201,3.49180,2.095,-1,4
202,3.49391,2.103,-1,4
203,3.49601,2.101,-1,4
204,3.49810,2.094,-1,4
205,3.50019,2.088,-1,4
206,3.50227,2.086,-1,4
207,3.50436,2.090,-1,4
208,3.50645,2.085,-1,4
209,3.50853,2.082,-1,4
210,3.51061,2.074,-1,4
211,3.51268,2.073,-1,4
212,3.51475,2.072,-1,4
213,3.51682,2.074,-1,4
214,3.51889,2.064,-1,4
215,3.52095,2.057,-1,4
216,3.52300,2.059,-1,4
217,3.52507,2.061,-1,4
218,3.52712,2.054,-1,4
219,3.52917,2.046,-1,4
220,3.53121,2.048,-1,4
221,3.53326,2.049,-1,4
222,3.53530,2.042,-1,4
223,3.53734,2.032,-1,4
224,3.54141,2.039,-1,4
225,3.54344,2.028,-1,4
226,3.54546,2.023,-1,4
227,3.54748,2.023,-1,4
228,3.54951,2.021,-1,4
229,3.55153,2.021,-1,4
230,3.55354,2.013,-1,4
231,3.55555,2.010,-1,4
232,3.55756,2.009,-1,4
233,3.55956,2.006,-1,4
234,3.56157,2.004,-1,4
235,3.56557,1.999,-1,4
236,3.56756,1.991,-1,4
237,3.56955,1.994,-1,4
238,3.57155,1.993,-1,4
239,3.57353,1.988,-1,4
240,3.57551,1.982,-1,4
241,3.57749,1.980,-1,4
242,3.57948,1.988,-1,4
243,3.58146,1.981,-1,4
244,3.58344,1.972,-1,4
245,3.58540,1.965,-1,4
246,3.58738,1.977,-1,4
247,3.58936,1.978,-1,4
248,3.59132,1.964,-1,4
249,3.59328,1.958,-1,4
250,3.59524,1.965,-1,4
251,3.59721,1.968,-1,4
252,3.59917,1.961,-1,4
253,3.60112,1.951,-1,4
254,3.60307,1.952,-1,4
255,3.60503,1.958,-1,4
256,3.60699,1.955,-1,4
257,3.60894,1.949,-1,4
258,3.61088,1.947,-1,4
259,3.61283,1.947,-1,4
260,3.61477,1.942,-1,4
261,3.61672,1.946,-1,4
262,3.61866,1.946,-1,4
263,3.62060,1.939,-1,4
264,3.62253,1.931,-1,4
265,3.62447,1.935,-1,4
266,3.62642,1.947,-1,4
267,3.62836,1.940,-1,4
268,3.63028,1.924,-1,4
269,3.63220,1.921,-1,4
270,3.63414,1.935,-1,4
271,3.63608,1.943,-1,4
272,3.63801,1.926,-1,4
273,3.63992,1.912,-1,4
274,3.64184,1.918,-1,4
275,3.64377,1.934,-1,4
276,3.64570,1.932,-1,4
277,3.64761,1.911,-1,4
278,3.64952,1.908,-1,4
279,3.65144,1.919,-1,4
280,3.65337,1.927,-1,4
281,3.65529,1.920,-1,4
282,3.65719,1.907,-1,4
283,3.65910,1.909,-1,4
284,3.66102,1.913,-1,4
285,3.66294,1.921,-1,4
286,3.66486,1.918,-1,4
287,3.66676,1.905,-1,4
288,3.66866,1.899,-1,4
289,3.67057,1.911,-1,4
290,3.67249,1.921,-1,4
291,3.67441,1.914,-1,4
292,3.67630,1.897,-1,4
293,3.67820,1.896,-1,4
294,3.68011,1.911,-1,4
295,3.68203,1.921,-1,4
296,3.68394,1.909,-1,4
297,3.68583,1.893,-1,4
298,3.68773,1.900,-1,4
299,3.68965,1.913,-1,4
300,3.69156,1.917,-1,4
301,3.69347,1.904,-1,4
302,3.69536,1.893,-1,4
303,3.69917,1.908,-1,4
304,3.70108,1.914,-1,4
305,3.70299,1.904,-1,4
306,3.70488,1.896,-1,4
307,3.70678,1.899,-1,4
308,3.70869,1.907,-1,4
309,3.71060,1.915,-1,4
310,3.71251,1.905,-1,4
311,3.71440,1.895,-1,4
312,3.71630,1.897,-1,4
313,3.71821,1.910,-1,4
314,3.72012,1.916,-1,4
315,3.72203,1.908,-1,4
316,3.72393,1.897,-1,4
317,3.72583,1.899,-1,4
318,3.72774,1.906,-1,4
319,3.72965,1.919,-1,4
320,3.73157,1.911,-1,4
321,3.73346,1.899,-1,4
322,3.73536,1.899,-1,4
323,3.73727,1.908,-1,4
324,3.73919,1.921,-1,4
325,3.74111,1.915,-1,4
326,3.74301,1.905,-1,4
327,3.74492,1.904,-1,4
328,3.74683,1.914,-1,4
329,3.74875,1.924,-1,4
330,3.75067,1.920,-1,4
331,3.75258,1.909,-1,4
332,3.75449,1.904,-1,4
333,3.75640,1.914,-1,4
334,3.75833,1.931,-1,4
335,3.76026,1.926,-1,4
336,3.76217,1.910,-1,4
337,3.76407,1.905,-1,4
338,3.76599,1.918,-1,4
339,3.76793,1.936,-1,4
340,3.76985,1.928,-1,4
341,3.77177,1.912,-1,4
342,3.77368,1.909,-1,4
343,3.77560,1.928,-1,4
344,3.77754,1.938,-1,4
345,3.77947,1.925,-1,4
346,3.78138,1.911,-1,4
347,3.78330,1.918,-1,4
348,3.78523,1.935,-1,4
349,3.78717,1.938,-1,4
350,3.78909,1.918,-1,4
351,3.79100,1.915,-1,4
352,3.79293,1.926,-1,4
353,3.79487,1.939,-1,4
354,3.79680,1.930,-1,4
355,3.79871,1.917,-1,4
356,3.80064,1.923,-1,4
357,3.80257,1.931,-1,4
358,3.80450,1.935,-1,4
359,3.80643,1.930,-1,4
360,3.80836,1.922,-1,4
361,3.81028,1.921,-1,4
362,3.81221,1.929,-1,4
363,3.81414,1.939,-1,4
364,3.81608,1.933,-1,4
365,3.81799,1.916,-1,4
366,3.81991,1.918,-1,4
367,3.82185,1.935,-1,4
368,3.82379,1.944,-1,4
369,3.82572,1.913,-1,4
370,3.82956,1.925,-1,4
371,3.83150,1.940,-1,4
372,3.83344,1.940,-1,4
373,3.83536,1.919,-1,4
374,3.83727,1.914,-1,4
375,3.83920,1.932,-1,4
376,3.84114,1.942,-1,4
377,3.84307,1.931,-1,4
378,3.84499,1.915,-1,4
379,3.84691,1.922,-1,4
380,3.84885,1.938,-1,4
381,3.85078,1.936,-1,4
382,3.85271,1.927,-1,4
383,3.85463,1.920,-1,4
384,3.85656,1.928,-1,4
385,3.85849,1.934,-1,4
386,3.86043,1.933,-1,4
387,3.86236,1.933,-1,4
388,3.86429,1.927,-1,4
389,3.86621,1.927,-1,4
390,3.86815,1.933,-1,4
391,3.87009,1.941,-1,4
392,3.87202,1.936,-1,4
393,3.87395,1.925,-1,4
394,3.87588,1.930,-1,4
395,3.87782,1.944,-1,4
396,3.87977,1.947,-1,4
397,3.88171,1.937,-1,4
398,3.88363,1.929,-1,4
399,3.88558,1.942,-1,4
400,3.88753,1.950,-1,4
401,3.88948,1.950,-1,4
402,3.89142,1.941,-1,4
403,3.89336,1.941,-1,4
404,3.89531,1.952,-1,4
405,3.89727,1.957,-1,4
406,3.89923,1.958,-1,4
407,3.90118,1.954,-1,4
408,3.90313,1.952,-1,4
409,3.90509,1.957,-1,4
410,3.90706,1.966,-1,4
411,3.90903,1.971,-1,4
412,3.91099,1.967,-1,4
413,3.91295,1.959,-1,4
414,3.91492,1.969,-1,4
415,3.91691,1.985,-1,4
416,3.91889,1.986,-1,4
417,3.92087,1.972,-1,4
418,3.92284,1.971,-1,4
419,3.92483,1.990,-1,4
420,3.92683,2.000,-1,4
421,3.92882,1.994,-1,4
422,3.93080,1.984,-1,4
423,3.93280,1.992,-1,4
424,3.93480,2.007,-1,4
425,3.93682,2.015,-1,4
426,3.93883,2.007,-1,4
427,3.94083,2.003,-1,4
428,3.94284,2.024,-1,4
429,3.94690,2.033,-1,4
430,3.94892,2.028,-1,4
431,3.95095,2.022,-1,4
432,3.95297,2.028,-1,4
433,3.95502,2.047,-1,4
434,3.95708,2.056,-1,4
435,3.95913,2.049,-1,4
436,3.96117,2.042,-1,4
437,3.96322,2.053,-1,4
438,3.96530,2.075,-1,4
439,3.96737,2.079,-1,4
440,3.96944,2.070,-1,4
441,3.97151,2.070,-1,4
442,3.97360,2.082,-1,4
443,3.97570,2.100,-1,4
444,3.97780,2.102,-1,4
445,3.97990,2.102,-1,4
446,3.98200,2.098,-1,4
447,3.98411,2.110,-1,4
448,3.98624,2.128,-1,4
449,3.98837,2.137,-1,4
450,3.99050,2.131,-1,4
451,3.99264,2.131,-1,4
452,3.99478,2.143,-1,4
453,3.99694,2.158,-1,4
454,3.99910,2.167,-1,4
455,4.00127,2.166,-1,4
456,4.00344,2.170,-1,4
457,4.00562,2.180,-1,4
458,4.00781,2.191,-1,4
459,4.01001,2.199,-1,4
460,4.01222,2.208,-1,4
461,4.01443,2.210,-1,4
462,4.01664,2.217,-1,4
463,4.01887,2.229,-1,4
464,4.02112,2.242,-1,4
465,4.02337,2.251,-1,4
466,4.02562,2.252,-1,4
467,4.02788,2.261,-1,4
468,4.03015,2.272,-1,4
469,4.03244,2.285,-1,4
470,4.03473,2.295,-1,4
471,4.03703,2.299,-1,4
472,4.03933,2.303,-1,4
473,4.04165,2.322,-1,4
474,4.04399,2.333,-1,4
475,4.04633,2.341,-1,4
476,4.04867,2.344,-1,4
477,4.05103,2.359,-1,4
478,4.05340,2.371,-1,4
479,4.05578,2.382,-1,4
480,4.05817,2.389,-1,4
481,4.06058,2.403,-1,4
482,4.06299,2.411,-1,4
483,4.06541,2.420,-1,4
484,4.06784,2.433,-1,4
485,4.07028,2.445,-1,4
486,4.07274,2.456,-1,4
487,4.07521,2.467,-1,4
488,4.07768,2.477,-1,4
489,4.08017,2.489,-1,4
490,4.08268,2.503,-1,4
491,4.08771,2.524,-1,4
492,4.09025,2.537,-1,4
493,4.09280,2.550,-1,4
494,4.09535,2.556,-1,4
495,4.09793,2.573,-1,4
496,4.10051,2.586,-1,4
497,4.10311,2.593,-1,4
498,4.10571,2.606,-1,4
499,4.10833,2.622,-1,4
500,4.11096,2.631,-1,4
501,4.11361,2.643,-1,4
502,4.11893,2.664,-1,4
503,4.12161,2.679,-1,4
504,4.12430,2.691,-1,4
505,4.12700,2.701,-1,4
506,4.12971,2.714,-1,4
507,4.13244,2.724,-1,4
508,4.13517,2.733,-1,4
509,4.13792,2.748,-1,4
510,4.14068,2.759,-1,4
511,4.14345,2.768,-1,4
512,4.14623,2.783,-1,4
513,4.14902,2.793,-1,4
514,4.15182,2.799,-1,4
515,4.15464,2.815,-1,4
516,4.15746,2.822,-1,4
517,4.16029,2.833,-1,4
518,4.16314,2.846,-1,4
519,4.16599,2.854,-1,4
520,4.16885,2.864,-1,4
521,4.17173,2.877,-1,4
522,4.17462,2.886,-1,4
523,4.17751,2.896,-1,4
524,4.18041,2.901,-1,4
525,4.18333,2.912,-1,4
526,4.18625,2.924,-1,4
527,4.18918,2.934,-1,4
528,4.19213,2.942,-1,4
529,4.19507,2.948,-1,4
530,4.19803,2.958,-1,4
531,4.20100,2.966,-1,4
532,4.20397,2.977,-1,4
533,4.20696,2.983,-1,4
534,4.20995,2.991,-1,4
535,4.21295,3.000,-1,4
536,4.21596,3.010,-1,4
537,4.21897,3.015,-1,4
538,4.22200,3.024,-1,4
539,4.22503,3.033,-1,4
540,4.22807,3.036,-1,4
541,4.23112,3.048,-1,4
542,4.23417,3.055,-1,4
543,4.23723,3.062,-1,4
544,4.24030,3.069,-1,4
545,4.24338,3.076,-1,4
546,4.24646,3.081,-1,4
547,4.24955,3.094,-1,4
548,4.25265,3.096,-1,4
549,4.25575,3.104,-1,4
550,4.25886,3.107,-1,4
551,4.26197,3.114,-1,4
552,4.26509,3.120,-1,4
553,4.26822,3.127,-1,4
554,4.27135,3.133,-1,4
555,4.27449,3.135,-1,4
556,4.27763,3.138,-1,4
557,4.28077,3.145,-1,4
558,4.28392,3.147,-1,4
559,4.28707,3.155,-1,4
560,4.29023,3.158,-1,4
561,4.29338,3.155,-1,4
562,4.29655,3.164,-1,4
563,4.30289,3.173,-1,4
564,4.30606,3.171,-1,4
565,4.30923,3.174,-1,4
566,4.31240,3.172,-1,4
567,4.31558,3.175,-1,4
568,4.31876,3.180,-1,4
569,4.32194,3.180,-1,4
570,4.32512,3.177,-1,4
571,4.32830,3.180,-1,4
572,4.33147,3.177,-1,4
573,4.33466,3.185,-1,4
574,4.33784,3.179,-1,4
575,4.34101,3.177,-1,4
576,4.34419,3.175,-1,4
577,4.34737,3.180,-1,4
578,4.35055,3.178,-1,4
579,4.35373,3.177,-1,4
580,4.35690,3.171,-1,4
581,4.36007,3.170,-1,4
582,4.36323,3.168,-1,4
583,4.36641,3.171,-1,4
584,4.36957,3.161,-1,4
585,4.37273,3.163,-1,4
586,4.37589,3.158,-1,4
587,4.37904,3.155,-1,4
588,4.38220,3.156,-1,4
589,4.38535,3.151,-1,4
590,4.38849,3.145,-1,4
591,4.39163,3.141,-1,4
592,4.39477,3.138,-1,4
593,4.39791,3.138,-1,4
594,4.40104,3.129,-1,4
595,4.40416,3.125,-1,4
596,4.40728,3.116,-1,4
597,4.41040,3.116,-1,4
598,4.41351,3.112,-1,4
599,4.41662,3.107,-1,4
600,4.41971,3.096,-1,4
601,4.42280,3.090,-1,4
602,4.42589,3.086,-1,4
603,4.42897,3.087,-1,4
604,4.43205,3.076,-1,4
605,4.43511,3.063,-1,4
606,4.43817,3.061,-1,4
607,4.44123,3.056,-1,4
608,4.44428,3.053,-1,4
609,4.44733,3.042,-1,4
610,4.45036,3.032,-1,4
611,4.45338,3.026,-1,4
612,4.45641,3.024,-1,4
613,4.45942,3.017,-1,4
614,4.46243,3.006,-1,4
615,4.46542,2.994,-1,4
616,4.46841,2.991,-1,4
617,4.47140,2.987,-1,4
618,4.47438,2.977,-1,4
619,4.47735,2.968,-1,4
620,4.48030,2.954,-1,4
621,4.48325,2.952,-1,4
622,4.48620,2.944,-1,4
623,4.48913,2.933,-1,4
624,4.49206,2.926,-1,4
625,4.49497,2.916,-1,4
626,4.49788,2.909,-1,4
627,4.50078,2.900,-1,4
628,4.50367,2.892,-1,4
629,4.50655,2.881,-1,4
630,4.50943,2.873,-1,4
631,4.51229,2.866,-1,4
632,4.51800,2.848,-1,4
633,4.52084,2.837,-1,4
634,4.52367,2.831,-1,4
635,4.52649,2.824,-1,4
636,4.52931,2.814,-1,4
637,4.53211,2.807,-1,4
638,4.53491,2.793,-1,4
639,4.53770,2.790,-1,4
640,4.54048,2.780,-1,4
641,4.54325,2.771,-1,4
642,4.54601,2.761,-1,4
643,4.54876,2.753,-1,4
644,4.55151,2.747,-1,4
645,4.55425,2.740,-1,4
646,4.55698,2.728,-1,4
647,4.55970,2.721,-1,4
648,4.56241,2.709,-1,4
649,4.56511,2.703,-1,4
650,4.56781,2.695,-1,4
651,4.57050,2.690,-1,4
652,4.57318,2.680,-1,4
653,4.57584,2.669,-1,4
654,4.57851,2.665,-1,4
655,4.58117,2.658,-1,4
656,4.58382,2.652,-1,4
657,4.58646,2.640,-1,4
658,4.58909,2.631,-1,4
659,4.59172,2.629,-1,4
660,4.59434,2.621,-1,4
661,4.59696,2.617,-1,4
662,4.59957,2.608,-1,4
663,4.60216,2.599,-1,4
664,4.60475,2.590,-1,4
665,4.60735,2.592,-1,4
666,4.60993,2.586,-1,4
667,4.61251,2.574,-1,4
668,4.61507,2.568,-1,4
669,4.61764,2.565,-1,4
670,4.62020,2.559,-1,4
671,4.62275,2.552,-1,4
672,4.62530,2.548,-1,4
673,4.62784,2.541,-1,4
674,4.63037,2.536,-1,4
675,4.63291,2.533,-1,4
676,4.63544,2.531,-1,4
677,4.63796,2.518,-1,4
678,4.64047,2.515,-1,4
679,4.64299,2.515,-1,4
680,4.64550,2.510,-1,4
681,4.64800,2.505,-1,4
682,4.65050,2.498,-1,4
683,4.65299,2.492,-1,4
684,4.65549,2.496,-1,4
685,4.65798,2.493,-1,4
686,4.66046,2.481,-1,4
687,4.66294,2.479,-1,4
688,4.66542,2.482,-1,4
689,4.66790,2.477,-1,4
690,4.67037,2.471,-1,4
691,4.67284,2.470,-1,4
692,4.67531,2.468,-1,4
693,4.67778,2.466,-1,4
694,4.68024,2.467,-1,4
695,4.68270,2.462,-1,4
696,4.68516,2.460,-1,4
697,4.69008,2.461,-1,4
698,4.69254,2.460,-1,4
699,4.69500,2.458,-1,4
700,4.69746,2.454,-1,4
701,4.69991,2.454,-1,4
702,4.70237,2.461,-1,4
703,4.70483,2.460,-1,4
704,4.70728,2.453,-1,4
705,4.70974,2.454,-1,4
706,4.71220,2.465,-1,4
707,4.71466,2.461,-1,4
708,4.71712,2.459,-1,4
709,4.71958,2.462,-1,4
710,4.72205,2.465,-1,4
711,4.72452,2.467,-1,4
712,4.72698,2.469,-1,4
713,4.72945,2.470,-1,4
714,4.73193,2.471,-1,4
715,4.73440,2.475,-1,4
716,4.73688,2.477,-1,4
717,4.73936,2.481,-1,4
718,4.74184,2.484,-1,4
719,4.74433,2.484,-1,4
720,4.74681,2.485,-1,4
721,4.74931,2.495,-1,4
722,4.75180,2.496,-1,4
723,4.75430,2.494,-1,4
724,4.75680,2.498,-1,4
725,4.75930,2.507,-1,4
726,4.76181,2.507,-1,4
727,4.76432,2.506,-1,4
728,4.76683,2.511,-1,4
729,4.76934,2.515,-1,4
730,4.77186,2.518,-1,4
731,4.77438,2.520,-1,4
732,4.77691,2.524,-1,4
733,4.77943,2.525,-1,4
734,4.78196,2.532,-1,4
735,4.78450,2.534,-1,4
736,4.78703,2.537,-1,4
737,4.78957,2.539,-1,4
738,4.79211,2.541,-1,4
739,4.79466,2.547,-1,4
740,4.79721,2.551,-1,4
741,4.79976,2.552,-1,4
742,4.80232,2.554,-1,4
743,4.80488,2.562,-1,4
744,4.80744,2.564,-1,4
745,4.81001,2.565,-1,4
746,4.81258,2.568,-1,4
747,4.81515,2.572,-1,4
748,4.81772,2.573,-1,4
749,4.82030,2.580,-1,4
750,4.82288,2.581,-1,4
751,4.82546,2.579,-1,4
752,4.82804,2.584,-1,4
753,4.83063,2.586,-1,4
754,4.83322,2.589,-1,4
755,4.83581,2.593,-1,4
756,4.83841,2.592,-1,4
757,4.84100,2.593,-1,4
758,4.84360,2.596,-1,4
759,4.84879,2.598,-1,4
760,4.85139,2.600,-1,4
761,4.85399,2.603,-1,4
762,4.85660,2.600,-1,4
763,4.85920,2.602,-1,4
764,4.86180,2.607,-1,4
765,4.86441,2.606,-1,4
766,4.86702,2.608,-1,4
767,4.86962,2.605,-1,4
768,4.87223,2.607,-1,4
769,4.87484,2.607,-1,4
770,4.88006,2.610,-1,4
771,4.88266,2.610,-1,4
772,4.88528,2.610,-1,4
773,4.88788,2.606,-1,4
774,4.89049,2.613,-1,4
775,4.89310,2.610,-1,4
776,4.89572,2.610,-1,4
777,4.89832,2.608,-1,4
778,4.90094,2.613,-1,4
779,4.90355,2.610,-1,4
780,4.90615,2.608,-1,4
781,4.90877,2.610,-1,4
782,4.91137,2.608,-1,4
783,4.91398,2.609,-1,4
784,4.91659,2.609,-1,4
785,4.91920,2.610,-1,4
786,4.92181,2.605,-1,4
787,4.92441,2.609,-1,4
788,4.92702,2.605,-1,4
789,4.92962,2.604,-1,4
790,4.93223,2.606,-1,4
791,4.93483,2.604,-1,4
792,4.93744,2.607,-1,4
793,4.94004,2.603,-1,4
794,4.94264,2.602,-1,4
795,4.94525,2.603,-1,4
796,4.94785,2.604,-1,4
797,4.95045,2.603,-1,4
798,4.95305,2.600,-1,4
799,4.95566,2.602,-1,4
800,4.95825,2.598,-1,4
801,4.96086,2.603,-1,4
802,4.96346,2.601,-1,4
803,4.96606,2.598,-1,4
804,4.96866,2.599,-1,4
805,4.97125,2.597,-1,4
806,4.97385,2.600,-1,4
807,4.97645,2.599,-1,4
808,4.97905,2.600,-1,4
809,4.98165,2.595,-1,4
810,4.98425,2.598,-1,4
811,4.98685,2.601,-1,4
812,4.98944,2.597,-1,4
813,4.99204,2.598,-1,4
814,4.99464,2.600,-1,4
815,4.99724,2.601,-1,4
816,4.99984,2.600,-1,4
817,5.00244,2.599,-1,4
818,5.00504,2.602,-1,4
819,5.00765,2.602,-1,4
820,5.01025,2.602,-1,4
821,5.01285,2.605,-1,4
822,5.01546,2.604,-1,4
823,5.01807,2.609,-1,4
824,5.02067,2.605,-1,4
825,5.02328,2.612,-1,4
826,5.02589,2.610,-1,4
827,5.02850,2.609,-1,4
828,5.03111,2.612,-1,4
829,5.03373,2.618,-1,4
830,5.03635,2.617,-1,4
831,5.03897,2.617,-1,4
832,5.04159,2.623,-1,4
833,5.04421,2.625,-1,4
834,5.04684,2.624,-1,4
835,5.04947,2.629,-1,4
836,5.05210,2.633,-1,4
837,5.05473,2.633,-1,4
838,5.05737,2.642,-1,4
839,5.06265,2.643,-1,4
840,5.06530,2.647,-1,4
841,5.06795,2.651,-1,4
842,5.07061,2.655,-1,4
843,5.07327,2.660,-1,4
844,5.07593,2.659,-1,4
845,5.07859,2.669,-1,4
846,5.08127,2.674,-1,4
847,5.08394,2.673,-1,4
848,5.08662,2.681,-1,4
849,5.08932,2.692,-1,4
850,5.09201,2.692,-1,4
851,5.09470,2.697,-1,4
852,5.09741,2.706,-1,4
853,5.10012,2.710,-1,4
854,5.10284,2.719,-1,4
855,5.10556,2.725,-1,4
856,5.10829,2.730,-1,4
857,5.11103,2.737,-1,4
858,5.11377,2.743,-1,4
859,5.11653,2.752,-1,4
860,5.11929,2.762,-1,4
861,5.12205,2.766,-1,4
862,5.12483,2.772,-1,4
863,5.12761,2.781,-1,4
864,5.13040,2.789,-1,4
865,5.13320,2.800,-1,4
866,5.13601,2.809,-1,4
867,5.13882,2.812,-1,4
868,5.14164,2.821,-1,4
869,5.14447,2.835,-1,4
870,5.14732,2.844,-1,4
871,5.15017,2.851,-1,4
872,5.15303,2.862,-1,4
873,5.15590,2.868,-1,4
