cnt,pos,speed,Dir,Force,
1,2.67712,1.001,-1,0
2,2.67812,0.997,-1,0
3,2.68011,0.992,-1,0
4,2.68111,0.992,-1,0
5,2.68210,0.990,-1,0
6,2.68309,0.998,-1,0
7,2.68410,1.005,-1,0
8,2.68511,1.007,-1,0
9,2.68611,1.009,-1,0
10,2.68712,1.004,-1,0
11,2.68812,1.000,-1,0
12,2.68912,0.998,-1,0
13,2.69011,0.996,-1,0
14,2.69112,1.004,-1,0
15,2.69213,1.011,-1,0
16,2.69314,1.014,-1,0
17,2.69416,1.014,-1,0
18,2.69516,1.009,-1,0
19,2.69617,1.003,-1,0
20,2.69717,1.002,-1,0
21,2.69817,1.002,-1,0
22,2.69918,1.005,-1,0
23,2.70019,1.016,-1,0
24,2.70121,1.018,-1,0
25,2.70222,1.014,-1,0
26,2.70324,1.012,-1,0
27,2.70424,1.006,-1,0
28,2.70524,1.002,-1,0
29,2.70625,1.007,-1,0
30,2.70726,1.009,-1,0
31,2.70828,1.016,-1,0
32,2.70930,1.019,-1,0
33,2.71031,1.013,-1,0
34,2.71132,1.008,-1,0
35,2.71232,1.006,-1,0
36,2.71332,1.001,-1,0
37,2.71433,1.006,-1,0
38,2.71534,1.012,-1,0
39,2.71636,1.015,-1,0
40,2.71737,1.015,-1,0
41,2.71838,1.011,-1,0
42,2.71939,1.005,-1,0
43,2.72039,1.003,-1,0
44,2.72139,1.001,-1,0
45,2.72239,1.002,-1,0
46,2.72340,1.007,-1,0
47,2.72441,1.010,-1,0
48,2.72542,1.010,-1,0
49,2.72643,1.008,-1,0
50,2.72743,1.003,-1,0
51,2.72843,0.998,-1,0
52,2.72943,0.998,-1,0
53,2.73043,0.997,-1,0
54,2.73143,1.003,-1,0
55,2.73243,1.005,-1,0
56,2.73344,1.004,-1,0
57,2.73444,1.002,-1,0
58,2.73544,0.997,-1,0
59,2.73643,0.993,-1,0
60,2.73742,0.993,-1,0
61,2.73841,0.992,-1,0
62,2.73941,0.998,-1,0
63,2.74041,0.998,-1,0
64,2.74140,0.995,-1,0
65,2.74240,0.995,-1,0
66,2.74339,0.990,-1,0
67,2.74438,0.990,-1,0
68,2.74536,0.986,-1,0
69,2.74635,0.986,-1,0
70,2.74734,0.987,-1,0
71,2.74833,0.988,-1,0
72,2.74931,0.989,-1,0
73,2.75030,0.984,-1,0
74,2.75128,0.984,-1,0
75,2.75226,0.982,-1,0
76,2.75422,0.979,-1,0
77,2.75520,0.978,-1,0
78,2.75618,0.979,-1,0
79,2.75716,0.977,-1,0
80,2.75813,0.978,-1,0
81,2.75911,0.973,-1,0
82,2.76008,0.973,-1,0
83,2.76105,0.968,-1,0
84,2.76202,0.970,-1,0
85,2.76299,0.968,-1,0
86,2.76396,0.971,-1,0
87,2.76493,0.967,-1,0
88,2.76589,0.968,-1,0
89,2.76686,0.963,-1,0
90,2.76782,0.963,-1,0
91,2.76878,0.958,-1,0
92,2.76974,0.959,-1,0
93,2.77069,0.956,-1,0
94,2.77165,0.960,-1,0
95,2.77261,0.960,-1,0
96,2.77357,0.958,-1,0
97,2.77452,0.956,-1,0
98,2.77548,0.953,-1,0
99,2.77643,0.950,-1,0
100,2.77737,0.948,-1,0
101,2.77832,0.947,-1,0
102,2.77927,0.945,-1,0
103,2.78022,0.950,-1,0
104,2.78117,0.949,-1,0
105,2.78211,0.947,-1,0
106,2.78306,0.941,-1,0
107,2.78400,0.941,-1,0
108,2.78494,0.937,-1,0
109,2.78681,0.939,-1,0
110,2.78681,0.937,-1,0
111,2.78869,0.938,-1,0
112,2.78962,0.936,-1,0
113,2.79056,0.934,-1,0
114,2.79149,0.933,-1,0
115,2.79242,0.932,-1,0
116,2.79335,0.927,-1,0
117,2.79428,0.930,-1,0
118,2.79521,0.928,-1,0
119,2.79614,0.928,-1,0
120,2.79706,0.926,-1,0
121,2.79799,0.926,-1,0
122,2.79891,0.923,-1,0
123,2.79983,0.924,-1,0
124,2.80076,0.922,-1,0
125,2.80168,0.920,-1,0
126,2.80260,0.921,-1,0
127,2.80352,0.919,-1,0
128,2.80443,0.916,-1,0
129,2.80535,0.915,-1,0
130,2.80626,0.914,-1,0
131,2.80717,0.912,-1,0
132,2.80809,0.913,-1,0
133,2.80900,0.913,-1,0
134,2.80991,0.913,-1,0
135,2.81083,0.914,-1,0
136,2.81174,0.910,-1,0
137,2.81264,0.904,-1,0
138,2.81355,0.903,-1,0
139,2.81445,0.900,-1,0
140,2.81535,0.902,-1,0
141,2.81625,0.906,-1,0
142,2.81715,0.906,-1,0
143,2.81806,0.907,-1,0
144,2.81896,0.903,-1,0
145,2.81986,0.897,-1,0
146,2.82076,0.895,-1,0
147,2.82165,0.889,-1,0
148,2.82253,0.885,-1,0
149,2.82342,0.889,-1,0
150,2.82432,0.896,-1,0
151,2.82522,0.899,-1,0
152,2.82611,0.897,-1,0
153,2.82700,0.890,-1,0
154,2.82789,0.886,-1,0
155,2.82877,0.883,-1,0
156,2.82965,0.878,-1,0
157,2.83052,0.876,-1,0
158,2.83140,0.878,-1,0
159,2.83229,0.884,-1,0
160,2.83317,0.887,-1,0
161,2.83406,0.884,-1,0
162,2.83494,0.879,-1,0
163,2.83581,0.873,-1,0
164,2.83668,0.868,-1,0
165,2.83754,0.865,-1,0
166,2.83841,0.869,-1,0
167,2.83928,0.871,-1,0
168,2.84016,0.874,-1,0
169,2.84103,0.872,-1,0
170,2.84190,0.869,-1,0
171,2.84276,0.865,-1,0
172,2.84362,0.860,-1,0
173,2.84448,0.858,-1,0
174,2.84534,0.855,-1,0
175,2.84620,0.860,-1,0
176,2.84706,0.864,-1,0
177,2.84793,0.865,-1,0
178,2.84879,0.861,-1,0
179,2.84964,0.856,-1,0
180,2.85049,0.850,-1,0
181,2.85134,0.846,-1,0
182,2.85219,0.845,-1,0
183,2.85303,0.846,-1,0
184,2.85388,0.850,-1,0
185,2.85473,0.854,-1,0
186,2.85559,0.853,-1,0
187,2.85644,0.851,-1,0
188,2.85728,0.844,-1,0
189,2.85812,0.841,-1,0
190,2.85896,0.835,-1,0
191,2.85979,0.834,-1,0
192,2.86063,0.833,-1,0
193,2.86146,0.836,-1,0
194,2.86230,0.840,-1,0
195,2.86315,0.843,-1,0
196,2.86398,0.838,-1,0
197,2.86482,0.836,-1,0
198,2.86565,0.828,-1,0
199,2.86730,0.825,-1,0
200,2.86813,0.825,-1,0
201,2.86895,0.825,-1,0
202,2.86978,0.828,-1,0
203,2.87061,0.830,-1,0
204,2.87144,0.830,-1,0
205,2.87226,0.825,-1,0
206,2.87308,0.820,-1,0
207,2.87390,0.816,-1,0
208,2.87471,0.814,-1,0
209,2.87553,0.814,-1,0
210,2.87634,0.814,-1,0
211,2.87716,0.816,-1,0
212,2.87798,0.818,-1,0
213,2.87879,0.817,-1,0
214,2.87961,0.814,-1,0
215,2.88042,0.811,-1,0
216,2.88123,0.808,-1,0
217,2.88203,0.805,-1,0
218,2.88283,0.804,-1,0
219,2.88364,0.803,-1,0
220,2.88444,0.805,-1,0
221,2.88525,0.806,-1,0
222,2.88605,0.805,-1,0
223,2.88686,0.805,-1,0
224,2.88766,0.799,-1,0
225,2.88846,0.799,-1,0
226,2.88926,0.798,-1,0
227,2.89085,0.795,-1,0
228,2.89085,0.793,-1,0
229,2.89244,0.794,-1,0
230,2.89323,0.792,-1,0
231,2.89323,0.794,-1,0
232,2.89403,0.794,-1,0
233,2.89482,0.794,-1,0
234,2.89562,0.795,-1,0
235,2.89641,0.792,-1,0
236,2.89720,0.789,-1,0
237,2.89798,0.787,-1,0
238,2.89877,0.787,-1,0
239,2.89956,0.786,-1,0
240,2.90034,0.785,-1,0
241,2.90113,0.784,-1,0
242,2.90191,0.784,-1,0
243,2.90269,0.783,-1,0
244,2.90348,0.785,-1,0
245,2.90426,0.783,-1,0
246,2.90504,0.783,-1,0
247,2.90582,0.779,-1,0
248,2.90660,0.778,-1,0
249,2.90738,0.777,-1,0
250,2.90815,0.777,-1,0
251,2.90893,0.777,-1,0
252,2.90971,0.775,-1,0
253,2.91048,0.776,-1,0
254,2.91126,0.774,-1,0
255,2.91280,0.774,-1,0
256,2.91357,0.771,-1,0
257,2.91435,0.771,-1,0
258,2.91511,0.769,-1,0
259,2.91588,0.770,-1,0
260,2.91665,0.769,-1,0
261,2.91742,0.768,-1,0
262,2.91819,0.768,-1,0
263,2.91896,0.768,-1,0
264,2.91972,0.766,-1,0
265,2.92049,0.764,-1,0
266,2.92125,0.762,-1,0
267,2.92201,0.761,-1,0
268,2.92277,0.764,-1,0
269,2.92354,0.763,-1,0
270,2.92430,0.761,-1,0
271,2.92506,0.760,-1,0
272,2.92582,0.760,-1,0
273,2.92658,0.762,-1,0
274,2.92734,0.759,-1,0
275,2.92810,0.759,-1,0
276,2.92886,0.760,-1,0
277,2.92962,0.758,-1,0
278,2.93037,0.756,-1,0
279,2.93189,0.757,-1,0
280,2.93340,0.755,-1,0
281,2.93415,0.753,-1,0
282,2.93491,0.756,-1,0
283,2.93566,0.753,-1,0
284,2.93641,0.754,-1,0
285,2.93717,0.754,-1,0
286,2.93792,0.753,-1,0
287,2.93867,0.752,-1,0
288,2.93942,0.751,-1,0
289,2.94018,0.752,-1,0
290,2.94093,0.753,-1,0
291,2.94168,0.751,-1,0
292,2.94243,0.752,-1,0
293,2.94318,0.753,-1,0
294,2.94393,0.751,-1,0
295,2.94469,0.751,-1,0
296,2.94544,0.751,-1,0
297,2.94619,0.751,-1,0
298,2.94694,0.751,-1,0
299,2.94769,0.750,-1,0
300,2.94844,0.751,-1,0
301,2.94919,0.749,-1,0
302,2.94994,0.748,-1,0
303,2.95069,0.750,-1,0
304,2.95144,0.751,-1,0
305,2.95219,0.750,-1,0
306,2.95293,0.748,-1,0
307,2.95369,0.750,-1,0
308,2.95443,0.748,-1,0
309,2.95518,0.749,-1,0
310,2.95668,0.749,-1,0
311,2.95743,0.747,-1,0
312,2.95743,0.747,-1,0
313,2.95817,0.749,-1,0
314,2.95892,0.749,-1,0
315,2.95967,0.749,-1,0
316,2.96042,0.748,-1,0
317,2.96117,0.748,-1,0
318,2.96191,0.747,-1,0
319,2.96266,0.746,-1,0
320,2.96340,0.746,-1,0
321,2.96415,0.748,-1,0
322,2.96490,0.747,-1,0
323,2.96565,0.746,-1,0
324,2.96640,0.750,-1,0
325,2.96714,0.749,-1,0
326,2.96789,0.749,-1,0
327,2.96864,0.750,-1,0
328,2.96939,0.749,-1,0
329,2.97089,0.749,-1,0
330,2.97089,0.752,-1,0
331,2.97239,0.751,-1,0
332,2.97314,0.750,-1,0
333,2.97390,0.751,-1,0
334,2.97465,0.753,-1,0
335,2.97540,0.752,-1,0
336,2.97615,0.752,-1,0
337,2.97691,0.753,-1,0
338,2.97766,0.753,-1,0
339,2.97841,0.753,-1,0
340,2.97916,0.753,-1,0
341,2.97992,0.755,-1,0
342,2.98067,0.755,-1,0
343,2.98143,0.755,-1,0
344,2.98218,0.755,-1,0
345,2.98294,0.757,-1,0
346,2.98370,0.757,-1,0
347,2.98446,0.758,-1,0
348,2.98521,0.759,-1,0
349,2.98597,0.759,-1,0
350,2.98673,0.759,-1,0
351,2.98749,0.759,-1,0
352,2.98825,0.759,-1,0
353,2.98901,0.761,-1,0
354,2.98977,0.759,-1,0
355,2.99053,0.759,-1,0
356,2.99129,0.761,-1,0
357,2.99205,0.764,-1,0
358,2.99282,0.767,-1,0
359,2.99359,0.770,-1,0
360,2.99436,0.769,-1,0
361,2.99513,0.769,-1,0
362,2.99667,0.769,-1,0
363,2.99744,0.773,-1,0
364,2.99822,0.778,-1,0
365,2.99900,0.786,-1,0
366,2.99979,0.788,-1,0
367,3.00058,0.790,-1,0
368,3.00137,0.789,-1,0
369,3.00216,0.789,-1,0
370,3.00295,0.789,-1,0
371,3.00374,0.790,-1,0
372,3.00454,0.796,-1,0
373,3.00533,0.797,-1,0
374,3.00614,0.804,-1,0
375,3.00695,0.810,-1,0
376,3.00776,0.813,-1,0
377,3.00858,0.815,-1,0
378,3.00939,0.813,-1,0
379,3.01020,0.813,-1,0
380,3.01102,0.814,-1,0
381,3.01183,0.816,-1,0
382,3.01265,0.821,-1,0
383,3.01348,0.827,-1,0
384,3.01431,0.831,-1,0
385,3.01515,0.836,-1,0
386,3.01598,0.838,-1,0
387,3.01682,0.838,-1,0
388,3.01766,0.836,-1,0
389,3.01933,0.838,-1,0
390,3.02017,0.842,-1,0
391,3.02102,0.846,-1,0
392,3.02187,0.853,-1,0
393,3.02273,0.854,-1,0
394,3.02358,0.856,-1,0
395,3.02444,0.853,-1,0
396,3.02529,0.852,-1,0
397,3.02614,0.856,-1,0
398,3.02700,0.858,-1,0
399,3.02786,0.860,-1,0
400,3.02872,0.862,-1,0
401,3.02959,0.865,-1,1
402,3.03046,0.867,-1,1
403,3.03132,0.869,-1,1
404,3.03219,0.870,-1,1
405,3.03306,0.870,-1,1
406,3.03393,0.867,-1,1
407,3.03480,0.867,-1,1
408,3.03567,0.868,-1,1
409,3.03654,0.872,-1,1
410,3.03741,0.875,-1,1
411,3.03829,0.876,-1,1
412,3.03917,0.875,-1,1
413,3.04092,0.874,-1,1
414,3.04179,0.871,-1,1
415,3.04266,0.871,-1,1
416,3.04353,0.870,-1,1
417,3.04440,0.872,-1,1
418,3.04527,0.872,-1,1
419,3.04615,0.874,-1,1
420,3.04702,0.872,-1,1
421,3.04789,0.869,-1,1
422,3.04875,0.865,-1,1
423,3.04962,0.864,-1,1
424,3.05048,0.862,-1,1
425,3.05134,0.863,-1,1
426,3.05220,0.862,-1,1
427,3.05306,0.859,-1,2
428,3.05392,0.856,-1,2
429,3.05477,0.856,-1,2
430,3.05563,0.855,-1,2
431,3.05648,0.853,-1,2
432,3.05733,0.847,-1,2
433,3.05817,0.843,-1,2
434,3.05901,0.842,-1,2
435,3.05985,0.841,-1,2
436,3.06069,0.839,-1,2
437,3.06153,0.839,-1,2
438,3.06237,0.836,-1,2
439,3.06320,0.831,-1,2
440,3.06403,0.827,-1,2
441,3.06486,0.824,-1,2
442,3.06650,0.818,-1,2
443,3.06731,0.814,-1,2
444,3.06812,0.811,-1,2
445,3.06893,0.808,-1,2
446,3.06974,0.806,-1,2
447,3.07054,0.805,-1,2
448,3.07134,0.801,-1,2
449,3.07214,0.794,-1,2
450,3.07293,0.790,-1,2
451,3.07371,0.785,-1,2
452,3.07449,0.783,-1,2
453,3.07527,0.779,-1,2
454,3.07605,0.775,-1,2
455,3.07682,0.770,-1,2
456,3.07758,0.763,-1,2
457,3.07834,0.760,-1,2
458,3.07910,0.758,-1,2
459,3.07985,0.755,-1,2
460,3.08060,0.748,-1,2
461,3.08134,0.741,-1,2
462,3.08208,0.737,-1,3
463,3.08281,0.733,-1,3
464,3.08354,0.731,-1,3
465,3.08427,0.731,-1,3
466,3.08500,0.725,-1,3
467,3.08572,0.712,-1,3
468,3.08643,0.704,-1,3
469,3.08784,0.704,-1,3
470,3.08853,0.698,-1,3
471,3.08923,0.697,-1,3
472,3.08992,0.688,-1,3
473,3.09060,0.684,-1,3
474,3.09128,0.676,-1,3
475,3.09195,0.674,-1,3
476,3.09262,0.671,-1,3
477,3.09329,0.669,-1,3
478,3.09395,0.662,-1,3
479,3.09461,0.653,-1,3
480,3.09526,0.648,-1,3
481,3.09590,0.642,-1,3
482,3.09654,0.638,-1,3
483,3.09717,0.638,-1,3
484,3.09781,0.634,-1,3
485,3.09844,0.628,-1,3
486,3.09906,0.623,-1,3
487,3.09968,0.617,-1,3
488,3.10029,0.612,-1,3
489,3.10089,0.607,-1,3
490,3.10150,0.604,-1,4
491,3.10210,0.602,-1,4
492,3.10270,0.598,-1,4
493,3.10329,0.592,-1,4
494,3.10388,0.586,-1,4
495,3.10446,0.580,-1,4
496,3.10503,0.576,-1,4
497,3.10560,0.572,-1,4
498,3.10617,0.567,-1,4
499,3.10730,0.560,-1,4
500,3.10785,0.557,-1,4
501,3.10841,0.553,-1,4
502,3.10895,0.547,-1,4
503,3.10949,0.542,-1,4
504,3.11003,0.537,-1,4
505,3.11056,0.534,-1,4
506,3.11110,0.532,-1,4
507,3.11163,0.529,-1,4
508,3.11215,0.527,-1,4
509,3.11268,0.523,-1,4
510,3.11319,0.519,-1,4
511,3.11371,0.515,-1,4
512,3.11422,0.512,-1,4
513,3.11473,0.509,-1,4
514,3.11524,0.508,-1,4
515,3.11575,0.508,-1,4
516,3.11625,0.506,-1,4
517,3.11676,0.504,-1,4
518,3.11726,0.500,-1,4
519,3.11775,0.495,-1,4
520,3.11874,0.492,-1,4
521,3.11923,0.490,-1,4
522,3.11972,0.489,-1,4
523,3.12021,0.491,-1,4
524,3.12070,0.491,-1,4
525,3.12119,0.488,-1,4
526,3.12168,0.486,-1,4
527,3.12216,0.486,-1,4
528,3.12265,0.486,-1,4
529,3.12313,0.485,-1,4
530,3.12362,0.486,-1,4
531,3.12410,0.485,-1,4
532,3.12459,0.486,-1,4
533,3.12508,0.487,-1,4
534,3.12557,0.487,-1,4
535,3.12605,0.486,-1,4
536,3.12654,0.487,-1,4
537,3.12702,0.486,-1,4
538,3.12751,0.487,-1,4
539,3.12800,0.488,-1,4
540,3.12849,0.489,-1,4
541,3.12898,0.490,-1,4
542,3.12947,0.490,-1,4
543,3.12996,0.494,-1,4
544,3.13046,0.496,-1,4
545,3.13095,0.496,-1,4
546,3.13145,0.496,-1,4
547,3.13195,0.497,-1,4
548,3.13294,0.500,-1,4
549,3.13345,0.503,-1,4
550,3.13395,0.506,-1,4
551,3.13446,0.508,-1,4
552,3.13497,0.510,-1,4
553,3.13548,0.512,-1,4
554,3.13600,0.514,-1,4
555,3.13652,0.520,-1,4
556,3.13704,0.521,-1,4
557,3.13756,0.524,-1,4
558,3.13809,0.524,-1,4
559,3.13861,0.528,-1,4
560,3.13915,0.534,-1,4
561,3.13969,0.538,-1,4
562,3.14023,0.541,-1,4
563,3.14077,0.543,-1,4
564,3.14132,0.546,-1,4
565,3.14187,0.550,-1,4
566,3.14242,0.553,-1,4
567,3.14298,0.557,-1,4
568,3.14354,0.561,-1,4
569,3.14410,0.566,-1,4
570,3.14468,0.572,-1,4
571,3.14525,0.576,-1,4
572,3.14583,0.580,-1,4
573,3.14641,0.582,-1,4
574,3.14700,0.585,-1,4
575,3.14759,0.588,-1,4
576,3.14818,0.595,-1,4
577,3.14939,0.607,-1,4
578,3.15000,0.613,-1,4
579,3.15062,0.615,-1,4
580,3.15124,0.619,-1,4
581,3.15186,0.621,-1,4
582,3.15248,0.628,-1,4
583,3.15312,0.633,-1,4
584,3.15376,0.643,-1,4
585,3.15441,0.650,-1,4
586,3.15506,0.653,-1,4
587,3.15572,0.657,-1,4
588,3.15638,0.660,-1,4
589,3.15704,0.663,-1,4
590,3.15771,0.670,-1,4
591,3.15839,0.675,-1,4
592,3.15907,0.685,-1,4
593,3.15976,0.688,-1,4
594,3.16046,0.694,-1,4
595,3.16115,0.695,-1,4
596,3.16185,0.703,-1,4
597,3.16256,0.707,-1,4
598,3.16328,0.715,-1,4
599,3.16400,0.721,-1,4
600,3.16472,0.724,-1,4
601,3.16545,0.728,-1,4
602,3.16618,0.729,-1,4
603,3.16691,0.734,-1,4
604,3.16766,0.744,-1,4
605,3.16840,0.749,-1,4
606,3.16991,0.757,-1,4
607,3.17067,0.759,-1,4
608,3.17143,0.762,-1,4
609,3.17220,0.768,-1,4
610,3.17298,0.775,-1,4
611,3.17375,0.778,-1,4
612,3.17454,0.780,-1,4
613,3.17531,0.778,-1,4
614,3.17609,0.781,-1,4
615,3.17688,0.788,-1,4
616,3.17768,0.796,-1,4
617,3.17848,0.803,-1,4
618,3.17928,0.803,-1,4
619,3.18008,0.801,-1,4
620,3.18088,0.800,-1,4
621,3.18169,0.803,-1,4
622,3.18250,0.810,-1,4
623,3.18331,0.817,-1,4
624,3.18413,0.817,-1,4
625,3.18494,0.815,-1,4
626,3.18576,0.814,-1,4
627,3.18658,0.819,-1,4
628,3.18740,0.830,-1,4
629,3.18906,0.827,-1,4
630,3.18988,0.822,-1,4
631,3.18988,0.822,-1,4
632,3.19153,0.827,-1,4
633,3.19237,0.833,-1,4
634,3.19320,0.836,-1,4
635,3.19404,0.833,-1,4
636,3.19486,0.828,-1,4
637,3.19569,0.830,-1,4
638,3.19653,0.834,-1,4
639,3.19736,0.838,-1,4
640,3.19820,0.837,-1,4
641,3.19903,0.831,-1,4
642,3.19986,0.825,-1,4
643,3.20069,0.828,-1,4
644,3.20152,0.832,-1,4
645,3.20235,0.835,-1,4
646,3.20319,0.833,-1,4
647,3.20401,0.827,-1,4
648,3.20484,0.823,-1,4
649,3.20566,0.826,-1,4
650,3.20649,0.829,-1,4
651,3.20732,0.828,-1,4
652,3.20814,0.821,-1,4
653,3.20895,0.814,-1,4
654,3.20977,0.815,-1,4
655,3.21059,0.818,-1,4
656,3.21141,0.821,-1,4
657,3.21223,0.821,-1,4
658,3.21385,0.806,-1,4
659,3.21465,0.804,-1,4
660,3.21465,0.808,-1,4
661,3.21627,0.811,-1,4
662,3.21708,0.809,-1,4
663,3.21788,0.800,-1,4
664,3.21868,0.795,-1,4
665,3.21868,0.795,-1,4
666,3.22027,0.797,-1,4
667,3.22107,0.797,-1,4
668,3.22186,0.791,-1,4
669,3.22264,0.782,-1,4
670,3.22342,0.779,-1,4
671,3.22420,0.779,-1,4
672,3.22498,0.783,-1,4
673,3.22576,0.782,-1,4
674,3.22654,0.778,-1,4
675,3.22731,0.767,-1,4
676,3.22807,0.761,-1,4
677,3.22883,0.761,-1,4
678,3.22959,0.761,-1,4
679,3.23035,0.763,-1,4
680,3.23111,0.755,-1,4
681,3.23186,0.748,-1,4
682,3.23260,0.744,-1,4
683,3.23335,0.745,-1,4
684,3.23409,0.746,-1,4
685,3.23484,0.744,-1,4
686,3.23557,0.738,-1,4
687,3.23702,0.723,-1,4
688,3.23775,0.723,-1,4
689,3.23847,0.722,-1,4
690,3.23919,0.725,-1,4
691,3.23991,0.719,-1,4
692,3.24063,0.713,-1,4
693,3.24134,0.709,-1,4
694,3.24204,0.705,-1,4
695,3.24275,0.708,-1,4
696,3.24345,0.704,-1,4
697,3.24415,0.701,-1,4
698,3.24485,0.695,-1,4
699,3.24554,0.690,-1,4
700,3.24622,0.687,-1,4
701,3.24691,0.687,-1,4
702,3.24760,0.685,-1,4
703,3.24828,0.686,-1,4
704,3.24896,0.679,-1,4
705,3.24964,0.677,-1,4
706,3.25031,0.670,-1,4
707,3.25098,0.670,-1,4
708,3.25164,0.666,-1,4
709,3.25231,0.664,-1,4
710,3.25297,0.663,-1,4
711,3.25363,0.654,-1,4
712,3.25428,0.653,-1,4
713,3.25493,0.651,-1,4
714,3.25558,0.649,-1,4
715,3.25623,0.647,-1,4
716,3.25687,0.640,-1,4
717,3.25815,0.640,-1,4
718,3.25879,0.636,-1,4
719,3.25942,0.630,-1,4
720,3.26004,0.627,-1,4
721,3.26067,0.624,-1,4
722,3.26129,0.621,-1,4
723,3.26191,0.620,-1,4
724,3.26253,0.620,-1,4
725,3.26315,0.616,-1,4
726,3.26376,0.613,-1,4
727,3.26437,0.610,-1,4
728,3.26498,0.609,-1,4
729,3.26559,0.608,-1,4
730,3.26619,0.604,-1,4
731,3.26679,0.602,-1,4
732,3.26739,0.599,-1,4
733,3.26799,0.595,-1,4
734,3.26858,0.595,-1,4
735,3.26917,0.591,-1,4
736,3.26976,0.587,-1,4
737,3.27035,0.588,-1,4
738,3.27093,0.587,-1,4
739,3.27152,0.585,-1,4
740,3.27210,0.583,-1,4
741,3.27268,0.579,-1,4
742,3.27326,0.579,-1,4
743,3.27384,0.577,-1,4
744,3.27441,0.573,-1,4
745,3.27498,0.570,-1,4
746,3.27612,0.568,-1,4
747,3.27669,0.567,-1,4
748,3.27725,0.565,-1,4
749,3.27781,0.562,-1,4
750,3.27837,0.561,-1,4
751,3.27893,0.558,-1,4
752,3.27949,0.557,-1,4
753,3.28004,0.555,-1,4
754,3.28060,0.556,-1,4
755,3.28115,0.553,-1,4
756,3.28170,0.551,-1,4
757,3.28225,0.548,-1,4
758,3.28280,0.547,-1,4
759,3.28334,0.546,-1,4
760,3.28389,0.545,-1,4
761,3.28443,0.542,-1,4
762,3.28497,0.541,-1,4
763,3.28551,0.542,-1,4
764,3.28605,0.541,-1,4
765,3.28659,0.537,-1,4
766,3.28713,0.536,-1,4
767,3.28766,0.535,-1,4
768,3.28820,0.534,-1,4
769,3.28873,0.532,-1,4
770,3.28926,0.531,-1,4
771,3.28979,0.531,-1,4
772,3.29032,0.531,-1,4
773,3.29085,0.529,-1,4
774,3.29138,0.527,-1,4
775,3.29190,0.527,-1,4
776,3.29296,0.524,-1,4
777,3.29348,0.525,-1,4
778,3.29401,0.526,-1,4
779,3.29453,0.525,-1,4
780,3.29506,0.525,-1,4
781,3.29558,0.525,-1,4
782,3.29611,0.525,-1,4
783,3.29663,0.524,-1,4
784,3.29715,0.524,-1,4
785,3.29768,0.523,-1,4
786,3.29820,0.521,-1,4
787,3.29872,0.522,-1,4
788,3.29924,0.522,-1,4
789,3.29976,0.521,-1,4
790,3.30028,0.521,-1,4
791,3.30080,0.522,-1,4
792,3.30133,0.521,-1,4
793,3.30185,0.523,-1,4
794,3.30237,0.522,-1,4
795,3.30289,0.520,-1,4
796,3.30341,0.520,-1,4
797,3.30393,0.520,-1,4
798,3.30445,0.520,-1,4
799,3.30497,0.521,-1,4
800,3.30549,0.520,-1,4
801,3.30601,0.519,-1,4
802,3.30653,0.520,-1,4
803,3.30705,0.518,-1,4
804,3.30809,0.520,-1,4
805,3.30861,0.521,-1,4
806,3.30913,0.521,-1,4
807,3.30965,0.524,-1,4
808,3.31018,0.524,-1,4
809,3.31070,0.525,-1,4
810,3.31123,0.527,-1,4
811,3.31175,0.526,-1,4
812,3.31228,0.527,-1,4
813,3.31281,0.528,-1,4
814,3.31334,0.530,-1,4
815,3.31387,0.530,-1,4
816,3.31440,0.529,-1,4
817,3.31493,0.528,-1,4
818,3.31546,0.532,-1,4
819,3.31599,0.532,-1,4
820,3.31652,0.532,-1,4
821,3.31706,0.533,-1,4
822,3.31759,0.534,-1,4
823,3.31813,0.536,-1,4
824,3.31867,0.539,-1,4
825,3.31920,0.538,-1,4
826,3.31974,0.539,-1,4
827,3.32028,0.540,-1,4
828,3.32082,0.541,-1,4
829,3.32137,0.543,-1,4
830,3.32191,0.542,-1,4
831,3.32245,0.544,-1,4
832,3.32300,0.545,-1,4
833,3.32355,0.547,-1,4
834,3.32409,0.548,-1,4
835,3.32519,0.549,-1,4
836,3.32574,0.551,-1,4
837,3.32629,0.551,-1,4
838,3.32685,0.554,-1,4
839,3.32740,0.555,-1,4
840,3.32796,0.556,-1,4
841,3.32851,0.557,-1,4
842,3.32907,0.557,-1,4
843,3.32963,0.559,-1,4
844,3.33019,0.559,-1,4
845,3.33075,0.560,-1,4
846,3.33131,0.561,-1,4
847,3.33188,0.564,-1,4
848,3.33244,0.566,-1,4
849,3.33301,0.567,-1,4
850,3.33358,0.567,-1,4
851,3.33414,0.568,-1,4
852,3.33471,0.569,-1,4
853,3.33528,0.571,-1,4
854,3.33586,0.571,-1,4
855,3.33643,0.571,-1,4
856,3.33700,0.573,-1,4
857,3.33758,0.576,-1,4
858,3.33815,0.575,-1,4
859,3.33873,0.576,-1,4
860,3.33988,0.578,-1,4
861,3.34046,0.580,-1,4
862,3.34104,0.580,-1,4
863,3.34162,0.581,-1,4
864,3.34220,0.583,-1,4
865,3.34279,0.585,-1,4
866,3.34337,0.584,-1,4
867,3.34396,0.584,-1,4
868,3.34454,0.583,-1,4
869,3.34513,0.585,-1,4
870,3.34571,0.586,-1,4
871,3.34630,0.588,-1,4
872,3.34689,0.587,-1,4
873,3.34747,0.588,-1,4
