cnt,pos,speed,Dir,Force,
1,2.56652,1.005,-1,0
2,2.56754,1.018,-1,0
3,2.56858,1.034,-1,0
4,2.56963,1.056,-1,0
5,2.57071,1.075,-1,0
6,2.57180,1.092,-1,0
7,2.57291,1.108,-1,0
8,2.57403,1.126,-1,0
9,2.57518,1.143,-1,0
10,2.57633,1.155,-1,0
11,2.57750,1.169,-1,0
12,2.57868,1.178,-1,0
13,2.57987,1.189,-1,0
14,2.58107,1.206,-1,0
15,2.58230,1.225,-1,0
16,2.58354,1.243,-1,0
17,2.58480,1.256,-1,0
18,2.58606,1.264,-1,0
19,2.58733,1.270,-1,0
20,2.58861,1.301,-1,0
21,2.59124,1.321,-1,0
22,2.59258,1.340,-1,0
23,2.59258,1.347,-1,0
24,2.59392,1.347,-1,0
25,2.59527,1.351,-1,0
26,2.59663,1.354,-1,0
27,2.59800,1.368,-1,0
28,2.59938,1.387,-1,0
29,2.60078,1.401,-1,0
30,2.60219,1.405,-1,0
31,2.60360,1.410,-1,0
32,2.60501,1.410,-1,0
33,2.60643,1.421,-1,0
34,2.60786,1.435,-1,0
35,2.60931,1.449,-1,0
36,2.61077,1.456,-1,0
37,2.61223,1.459,-1,0
38,2.61369,1.468,-1,0
39,2.61517,1.473,-1,0
40,2.61665,1.482,-1,0
41,2.61814,1.492,-1,0
42,2.62115,1.507,-1,0
43,2.62115,1.516,-1,0
44,2.62266,1.516,-1,0
45,2.62419,1.522,-1,0
46,2.62571,1.525,-1,0
47,2.62724,1.529,-1,0
48,2.62877,1.533,-1,0
49,2.63032,1.545,-1,0
50,2.63187,1.552,-1,0
51,2.63342,1.553,-1,0
52,2.63498,1.558,-1,0
53,2.63653,1.565,-1,0
54,2.63810,1.565,-1,0
55,2.63967,1.572,-1,0
56,2.64282,1.577,-1,0
57,2.64440,1.581,-1,0
58,2.64598,1.585,-1,0
59,2.64757,1.587,-1,0
60,2.64916,1.592,-1,0
61,2.65076,1.593,-1,0
62,2.65235,1.597,-1,0
63,2.65396,1.602,-1,0
64,2.65556,1.605,-1,0
65,2.65717,1.608,-1,0
66,2.65878,1.607,-1,0
67,2.66038,1.608,-1,0
68,2.66200,1.615,-1,0
69,2.66362,1.619,-1,0
70,2.66524,1.621,-1,0
71,2.66686,1.624,-1,0
72,2.66849,1.628,-1,0
73,2.67012,1.630,-1,0
74,2.67175,1.633,-1,0
75,2.67339,1.634,-1,0
76,2.67502,1.631,-1,0
77,2.67665,1.633,-1,0
78,2.67829,1.639,-1,0
79,2.68156,1.636,-1,0
80,2.68320,1.636,-1,0
81,2.68484,1.638,-1,0
82,2.68648,1.642,-1,0
83,2.68812,1.643,-1,0
84,2.68976,1.640,-1,0
85,2.69140,1.638,-1,0
86,2.69304,1.641,-1,0
87,2.69468,1.643,-1,0
88,2.69633,1.643,-1,0
89,2.69797,1.642,-1,0
90,2.69961,1.640,-1,0
91,2.70125,1.643,-1,0
92,2.70290,1.645,-1,0
93,2.70454,1.643,-1,0
94,2.70618,1.639,-1,0
95,2.70782,1.639,-1,0
96,2.70946,1.640,-1,0
97,2.71110,1.643,-1,0
98,2.71274,1.642,-1,0
99,2.71438,1.639,-1,0
100,2.71602,1.639,-1,0
101,2.71766,1.640,-1,0
102,2.71930,1.640,-1,0
103,2.72257,1.635,-1,0
104,2.72421,1.635,-1,0
105,2.72585,1.638,-1,0
106,2.72748,1.637,-1,0
107,2.72912,1.636,-1,0
108,2.73075,1.632,-1,0
109,2.73238,1.632,-1,0
110,2.73401,1.631,-1,0
111,2.73565,1.633,-1,0
112,2.73728,1.632,-1,0
113,2.73891,1.631,-1,0
114,2.74054,1.630,-1,0
115,2.74217,1.630,-1,0
116,2.74380,1.629,-1,0
117,2.74543,1.626,-1,0
118,2.74705,1.627,-1,0
119,2.74868,1.626,-1,0
120,2.75030,1.623,-1,0
121,2.75192,1.622,-1,0
122,2.75355,1.624,-1,0
123,2.75517,1.620,-1,0
124,2.75840,1.617,-1,0
125,2.76002,1.618,-1,0
126,2.76164,1.615,-1,0
127,2.76325,1.612,-1,0
128,2.76486,1.615,-1,0
129,2.76648,1.614,-1,0
130,2.76809,1.613,-1,0
131,2.76970,1.608,-1,0
132,2.77130,1.604,-1,0
133,2.77290,1.601,-1,0
134,2.77451,1.604,-1,0
135,2.77611,1.601,-1,0
136,2.77771,1.600,-1,0
137,2.77931,1.599,-1,0
138,2.78091,1.597,-1,0
139,2.78251,1.600,-1,0
140,2.78410,1.597,-1,0
141,2.78569,1.592,-1,0
142,2.78728,1.589,-1,0
143,2.78887,1.589,-1,0
144,2.79046,1.589,-1,0
145,2.79363,1.586,-1,0
146,2.79363,1.586,-1,0
147,2.79680,1.584,-1,0
148,2.79838,1.580,-1,0
149,2.79996,1.577,-1,0
150,2.80154,1.581,-1,0
151,2.80312,1.580,-1,0
152,2.80470,1.578,-1,0
153,2.80628,1.576,-1,0
154,2.80785,1.574,-1,0
155,2.80942,1.573,-1,0
156,2.81100,1.574,-1,0
157,2.81258,1.578,-1,0
158,2.81415,1.574,-1,0
159,2.81572,1.570,-1,0
160,2.81729,1.571,-1,0
161,2.81886,1.572,-1,0
162,2.82044,1.574,-1,0
163,2.82201,1.571,-1,0
164,2.82357,1.567,-1,0
165,2.82514,1.569,-1,0
166,2.82672,1.573,-1,0
167,2.82829,1.573,-1,0
168,2.83142,1.567,-1,0
169,2.83299,1.569,-1,0
170,2.83456,1.571,-1,0
171,2.83614,1.571,-1,0
172,2.83771,1.572,-1,0
173,2.83928,1.569,-1,0
174,2.84085,1.572,-1,0
175,2.84242,1.575,-1,0
176,2.84400,1.574,-1,0
177,2.84557,1.573,-1,0
178,2.84714,1.574,-1,0
179,2.84872,1.577,-1,0
180,2.85030,1.579,-1,0
181,2.85188,1.578,-1,0
182,2.85346,1.580,-1,0
183,2.85504,1.581,-1,0
184,2.85662,1.585,-1,0
185,2.85821,1.585,-1,0
186,2.85980,1.587,-1,0
187,2.86138,1.586,-1,0
188,2.86297,1.589,-1,0
189,2.86456,1.591,-1,0
190,2.86776,1.597,-1,0
191,2.86935,1.597,-1,0
192,2.87095,1.597,-1,0
193,2.87255,1.603,-1,0
194,2.87416,1.605,-1,0
195,2.87576,1.604,-1,0
196,2.87737,1.605,-1,0
197,2.87897,1.607,-1,0
198,2.88059,1.613,-1,0
199,2.88221,1.619,-1,0
200,2.88383,1.619,-1,0
201,2.88545,1.619,-1,0
202,2.88706,1.619,-1,0
203,2.88869,1.624,-1,0
204,2.89032,1.628,-1,0
205,2.89195,1.630,-1,0
206,2.89358,1.629,-1,0
207,2.89521,1.633,-1,0
208,2.89685,1.638,-1,0
209,2.89849,1.642,-1,0
210,2.90013,1.644,-1,0
211,2.90178,1.644,-1,0
212,2.90342,1.647,-1,0
213,2.90508,1.657,-1,0
214,2.90673,1.658,-1,0
215,2.91005,1.660,-1,0
216,2.91171,1.662,-1,0
217,2.91338,1.667,-1,0
218,2.91505,1.672,-1,0
219,2.91672,1.673,-1,0
220,2.91840,1.674,-1,0
221,2.92008,1.680,-1,0
222,2.92176,1.684,-1,0
223,2.92345,1.688,-1,0
224,2.92514,1.690,-1,0
225,2.92683,1.692,-1,0
226,2.92853,1.697,-1,0
227,2.93023,1.699,-1,0
228,2.93193,1.703,-1,0
229,2.93364,1.704,-1,0
230,2.93534,1.708,-1,0
231,2.93706,1.713,-1,0
232,2.93877,1.715,-1,0
233,2.94049,1.717,-1,0
234,2.94221,1.719,-1,0
235,2.94393,1.725,-1,0
236,2.94566,1.729,-1,0
237,2.94739,1.731,-1,0
238,2.94912,1.733,-1,0
239,2.95086,1.739,-1,0
240,2.95434,1.743,-1,0
241,2.95609,1.749,-1,0
242,2.95784,1.746,-1,0
243,2.95959,1.750,-1,0
244,2.96134,1.756,-1,0
245,2.96310,1.758,-1,0
246,2.96486,1.758,-1,0
247,2.96662,1.762,-1,0
248,2.96839,1.766,-1,0
249,2.97016,1.771,-1,0
250,2.97193,1.772,-1,0
251,2.97370,1.773,-1,0
252,2.97548,1.777,-1,0
253,2.97726,1.779,-1,0
254,2.97904,1.785,-1,0
255,2.98083,1.784,-1,0
256,2.98262,1.789,-1,0
257,2.98440,1.788,-1,0
258,2.98620,1.794,-1,0
259,2.98799,1.793,-1,0
260,2.98979,1.796,-1,0
261,2.99158,1.795,-1,0
262,2.99338,1.800,-1,0
263,2.99518,1.802,-1,0
264,2.99699,1.805,-1,0
265,2.99879,1.801,-1,0
266,3.00240,1.806,-1,0
267,3.00421,1.808,-1,0
268,3.00602,1.809,-1,0
269,3.00783,1.809,-1,0
270,3.00964,1.810,-1,0
271,3.01145,1.809,-1,0
272,3.01326,1.809,-1,0
273,3.01506,1.806,-1,0
274,3.01687,1.809,-1,0
275,3.01868,1.805,-1,0
276,3.02048,1.807,-1,0
277,3.02229,1.804,-1,0
278,3.02409,1.806,-1,0
279,3.02590,1.805,-1,0
280,3.02770,1.805,-1,0
281,3.02951,1.803,-1,0
282,3.03131,1.800,-1,0
283,3.03310,1.799,-1,0
284,3.03490,1.795,-1,0
285,3.03848,1.788,-1,1
286,3.04027,1.789,-1,1
287,3.04205,1.788,-1,1
288,3.04384,1.785,-1,1
289,3.04562,1.778,-1,1
290,3.04739,1.772,-1,1
291,3.04916,1.771,-1,1
292,3.05092,1.764,-1,1
293,3.05268,1.755,-1,1
294,3.05443,1.751,-1,2
295,3.05618,1.749,-1,2
296,3.05792,1.745,-1,2
297,3.05966,1.738,-1,2
298,3.06139,1.727,-1,2
299,3.06311,1.719,-1,2
300,3.06482,1.712,-1,2
301,3.06653,1.709,-1,2
302,3.06823,1.698,-1,2
303,3.06992,1.689,-1,2
304,3.07160,1.681,-1,2
305,3.07327,1.674,-1,2
306,3.07494,1.665,-1,2
307,3.07659,1.655,-1,2
308,3.07824,1.645,-1,2
309,3.07987,1.635,-1,2
310,3.08150,1.625,-1,2
311,3.08311,1.603,-1,2
312,3.08631,1.593,-1,3
313,3.08789,1.586,-1,3
314,3.08946,1.572,-1,3
315,3.09102,1.558,-1,3
316,3.09257,1.548,-1,3
317,3.09411,1.537,-1,3
318,3.09563,1.526,-1,3
319,3.09714,1.512,-1,3
320,3.09864,1.499,-1,3
321,3.10013,1.486,-1,3
322,3.10160,1.475,-1,3
323,3.10307,1.463,-1,3
324,3.10452,1.453,-1,3
325,3.10596,1.440,-1,3
326,3.10739,1.425,-1,3
327,3.10880,1.411,-1,3
328,3.11020,1.399,-1,3
329,3.11158,1.383,-1,3
330,3.11295,1.373,-1,3
331,3.11566,1.345,-1,4
332,3.11699,1.331,-1,4
333,3.11831,1.320,-1,4
334,3.11961,1.304,-1,4
335,3.12090,1.289,-1,4
336,3.12218,1.280,-1,4
337,3.12345,1.270,-1,4
338,3.12471,1.254,-1,4
339,3.12595,1.243,-1,4
340,3.12718,1.228,-1,4
341,3.12839,1.217,-1,4
342,3.12960,1.203,-1,4
343,3.13079,1.194,-1,4
344,3.13198,1.187,-1,4
345,3.13315,1.175,-1,4
346,3.13431,1.159,-1,4
347,3.13546,1.148,-1,4
348,3.13660,1.142,-1,4
349,3.13773,1.132,-1,4
350,3.13886,1.122,-1,4
351,3.13997,1.115,-1,4
352,3.14108,1.110,-1,4
353,3.14218,1.100,-1,4
354,3.14327,1.087,-1,4
355,3.14435,1.077,-1,4
356,3.14756,1.067,-1,4
357,3.14862,1.058,-1,4
358,3.14967,1.054,-1,4
359,3.15072,1.052,-1,4
360,3.15177,1.046,-1,4
361,3.15280,1.038,-1,4
362,3.15384,1.035,-1,4
363,3.15488,1.038,-1,4
364,3.15592,1.039,-1,4
365,3.15695,1.034,-1,4
366,3.15798,1.029,-1,4
367,3.15901,1.028,-1,4
368,3.16004,1.032,-1,4
369,3.16107,1.034,-1,4
370,3.16211,1.031,-1,4
371,3.16314,1.030,-1,4
372,3.16417,1.034,-1,4
373,3.16521,1.041,-1,4
374,3.16625,1.040,-1,4
375,3.16729,1.038,-1,4
376,3.16833,1.045,-1,4
377,3.16939,1.060,-1,4
378,3.17151,1.061,-1,4
379,3.17257,1.062,-1,4
380,3.17365,1.073,-1,4
381,3.17473,1.082,-1,4
382,3.17581,1.086,-1,4
383,3.17690,1.092,-1,4
384,3.17801,1.103,-1,4
385,3.17912,1.116,-1,4
386,3.18024,1.121,-1,4
387,3.18137,1.125,-1,4
388,3.18250,1.134,-1,4
389,3.18365,1.150,-1,4
390,3.18481,1.159,-1,4
391,3.18598,1.169,-1,4
392,3.18717,1.183,-1,4
393,3.18836,1.198,-1,4
394,3.18957,1.206,-1,4
395,3.19079,1.216,-1,4
396,3.19201,1.227,-1,4
397,3.19326,1.245,-1,4
398,3.19452,1.259,-1,4
399,3.19579,1.271,-1,4
400,3.19708,1.288,-1,4
401,3.19838,1.303,-1,4
402,3.19969,1.315,-1,4
403,3.20102,1.327,-1,4
404,3.20237,1.344,-1,4
405,3.20511,1.377,-1,4
406,3.20650,1.395,-1,4
407,3.20791,1.412,-1,4
408,3.20934,1.430,-1,4
409,3.21079,1.444,-1,4
410,3.21225,1.467,-1,4
411,3.21374,1.484,-1,4
412,3.21524,1.499,-1,4
413,3.21676,1.521,-1,4
414,3.21830,1.538,-1,4
415,3.21985,1.559,-1,4
416,3.22143,1.577,-1,4
417,3.22303,1.597,-1,4
418,3.22464,1.612,-1,4
419,3.22628,1.637,-1,4
420,3.22793,1.656,-1,4
421,3.22961,1.672,-1,4
422,3.23130,1.692,-1,4
423,3.23301,1.711,-1,4
424,3.23474,1.734,-1,4
425,3.23650,1.758,-1,4
426,3.23828,1.775,-1,4
427,3.24187,1.808,-1,4
428,3.24370,1.832,-1,4
429,3.24556,1.858,-1,4
430,3.24743,1.873,-1,4
431,3.24932,1.882,-1,4
432,3.25122,1.909,-1,4
433,3.25316,1.932,-1,4
434,3.25511,1.949,-1,4
435,3.25707,1.961,-1,4
436,3.25905,1.981,-1,4
437,3.26105,2.003,-1,4
438,3.26307,2.020,-1,4
439,3.26511,2.037,-1,4
440,3.26716,2.049,-1,4
441,3.26923,2.073,-1,4
442,3.27131,2.085,-1,4
443,3.27342,2.104,-1,4
444,3.27554,2.122,-1,4
445,3.27767,2.134,-1,4
446,3.27982,2.144,-1,4
447,3.28198,2.161,-1,4
448,3.28416,2.182,-1,4
449,3.28635,2.193,-1,4
450,3.28855,2.199,-1,4
451,3.29077,2.212,-1,4
452,3.29300,2.231,-1,4
453,3.29524,2.241,-1,4
454,3.29749,2.249,-1,4
455,3.30202,2.275,-1,4
456,3.30430,2.283,-1,4
457,3.30660,2.293,-1,4
458,3.30890,2.300,-1,4
459,3.31121,2.310,-1,4
460,3.31352,2.318,-1,4
461,3.31585,2.331,-1,4
462,3.31819,2.331,-1,4
463,3.32052,2.338,-1,4
464,3.32287,2.350,-1,4
465,3.32523,2.358,-1,4
466,3.32759,2.358,-1,4
467,3.32996,2.365,-1,4
468,3.33233,2.374,-1,4
469,3.33471,2.382,-1,4
470,3.33709,2.380,-1,4
471,3.33948,2.387,-1,4
472,3.34188,2.398,-1,4
473,3.34427,2.397,-1,4
474,3.34667,2.399,-1,4
475,3.34908,2.408,-1,4
476,3.35391,2.414,-1,4
477,3.35632,2.418,-1,4
478,3.35874,2.420,-1,4
479,3.36117,2.425,-1,4
480,3.36360,2.427,-1,4
481,3.36602,2.426,-1,4
482,3.36845,2.433,-1,4
483,3.37089,2.436,-1,4
484,3.37333,2.435,-1,4
485,3.37576,2.431,-1,4
486,3.37820,2.440,-1,4
487,3.38064,2.443,-1,4
488,3.38308,2.441,-1,4
489,3.38552,2.440,-1,4
490,3.38797,2.445,-1,4
491,3.39041,2.443,-1,4
492,3.39285,2.446,-1,4
493,3.39530,2.445,-1,4
494,3.39774,2.445,-1,4
495,3.40019,2.442,-1,4
496,3.40263,2.446,-1,4
497,3.40508,2.445,-1,4
498,3.40752,2.446,-1,4
499,3.40997,2.445,-1,4
500,3.41241,2.439,-1,4
501,3.41485,2.441,-1,4
502,3.41729,2.444,-1,4
503,3.42217,2.435,-1,4
504,3.42461,2.436,-1,4
505,3.42704,2.435,-1,4
506,3.42948,2.435,-1,4
507,3.43191,2.432,-1,4
508,3.43434,2.433,-1,4
509,3.43677,2.426,-1,4
510,3.43919,2.423,-1,4
511,3.44161,2.423,-1,4
512,3.44404,2.425,-1,4
513,3.44646,2.416,-1,4
514,3.44887,2.417,-1,4
515,3.45128,2.412,-1,4
516,3.45369,2.410,-1,4
517,3.45610,2.410,-1,4
518,3.45851,2.408,-1,4
519,3.46091,2.399,-1,4
520,3.46331,2.399,-1,4
521,3.46571,2.400,-1,4
522,3.46811,2.395,-1,4
523,3.47050,2.391,-1,4
524,3.47289,2.390,-1,4
525,3.47527,2.379,-1,4
526,3.47765,2.378,-1,4
527,3.48241,2.381,-1,4
528,3.48478,2.372,-1,4
529,3.48715,2.368,-1,4
530,3.48951,2.364,-1,4
531,3.49188,2.363,-1,4
532,3.49424,2.361,-1,4
533,3.49659,2.356,-1,4
534,3.49895,2.353,-1,4
535,3.50129,2.346,-1,4
536,3.50364,2.349,-1,4
537,3.50598,2.343,-1,4
538,3.50832,2.338,-1,4
539,3.51066,2.338,-1,4
540,3.51300,2.335,-1,4
541,3.51533,2.330,-1,4
542,3.51765,2.328,-1,4
543,3.51999,2.332,-1,4
544,3.52231,2.322,-1,4
545,3.52463,2.320,-1,4
546,3.52694,2.316,-1,4
547,3.52926,2.318,-1,4
548,3.53158,2.314,-1,4
549,3.53389,2.310,-1,4
550,3.53620,2.309,-1,4
551,3.53850,2.304,-1,4
552,3.54080,2.303,-1,4
553,3.54540,2.296,-1,4
554,3.54769,2.291,-1,4
555,3.54999,2.296,-1,4
556,3.55228,2.294,-1,4
557,3.55457,2.285,-1,4
558,3.55685,2.282,-1,4
559,3.55914,2.285,-1,4
560,3.56142,2.282,-1,4
561,3.56369,2.275,-1,4
562,3.56597,2.277,-1,4
563,3.56825,2.278,-1,4
564,3.57052,2.270,-1,4
565,3.57278,2.265,-1,4
566,3.57505,2.269,-1,4
567,3.57732,2.269,-1,4
568,3.57958,2.261,-1,4
569,3.58184,2.258,-1,4
570,3.58410,2.260,-1,4
571,3.58636,2.257,-1,4
572,3.58861,2.255,-1,4
573,3.59086,2.252,-1,4
574,3.59311,2.250,-1,4
575,3.59536,2.246,-1,4
576,3.59760,2.246,-1,4
577,3.59985,2.243,-1,4
578,3.60208,2.232,-1,4
579,3.60432,2.237,-1,4
580,3.60878,2.231,-1,4
581,3.61101,2.222,-1,4
582,3.61323,2.225,-1,4
583,3.61546,2.225,-1,4
584,3.61767,2.217,-1,4
585,3.61988,2.207,-1,4
586,3.62209,2.211,-1,4
587,3.62430,2.211,-1,4
588,3.62651,2.203,-1,4
589,3.62870,2.196,-1,4
590,3.63090,2.196,-1,4
591,3.63309,2.195,-1,4
592,3.63528,2.189,-1,4
593,3.63746,2.183,-1,4
594,3.63964,2.179,-1,4
595,3.64182,2.178,-1,4
596,3.64400,2.175,-1,4
597,3.64617,2.172,-1,4
598,3.64833,2.160,-1,4
599,3.65049,2.160,-1,4
600,3.65265,2.161,-1,4
601,3.65480,2.155,-1,4
602,3.65909,2.143,-1,4
603,3.66124,2.145,-1,4
604,3.66337,2.138,-1,4
605,3.66550,2.130,-1,4
606,3.66763,2.123,-1,4
607,3.66975,2.126,-1,4
608,3.67187,2.122,-1,4
609,3.67399,2.114,-1,4
610,3.67610,2.108,-1,4
611,3.67820,2.106,-1,4
612,3.68030,2.101,-1,4
613,3.68240,2.097,-1,4
614,3.68449,2.091,-1,4
615,3.68657,2.082,-1,4
616,3.68866,2.083,-1,4
617,3.69074,2.079,-1,4
618,3.69281,2.076,-1,4
619,3.69488,2.065,-1,4
620,3.69694,2.062,-1,4
621,3.69900,2.061,-1,4
622,3.70106,2.056,-1,4
623,3.70311,2.051,-1,4
624,3.70515,2.041,-1,4
625,3.70719,2.042,-1,4
626,3.70923,2.036,-1,4
627,3.71126,2.031,-1,4
628,3.71328,2.022,-1,4
629,3.71530,2.017,-1,4
630,3.71732,2.020,-1,4
631,3.72133,2.003,-1,4
632,3.72333,1.994,-1,4
633,3.72532,1.995,-1,4
634,3.72732,1.994,-1,4
635,3.72930,1.986,-1,4
636,3.73128,1.978,-1,4
637,3.73325,1.969,-1,4
638,3.73522,1.971,-1,4
639,3.73719,1.969,-1,4
640,3.73915,1.961,-1,4
641,3.74110,1.950,-1,4
642,3.74304,1.941,-1,4
643,3.74499,1.947,-1,4
644,3.74694,1.947,-1,4
645,3.74887,1.933,-1,4
646,3.75079,1.920,-1,4
647,3.75271,1.917,-1,4
648,3.75463,1.926,-1,4
649,3.75655,1.921,-1,4
650,3.75846,1.906,-1,4
651,3.76035,1.894,-1,4
652,3.76225,1.896,-1,4
653,3.76415,1.904,-1,4
654,3.76605,1.896,-1,4
655,3.76793,1.876,-1,4
656,3.76980,1.871,-1,4
657,3.77356,1.881,-1,4
658,3.77542,1.865,-1,4
659,3.77728,1.851,-1,4
660,3.77913,1.855,-1,4
661,3.78099,1.860,-1,4
662,3.78285,1.856,-1,4
663,3.78468,1.836,-1,4
664,3.78651,1.832,-1,4
665,3.78835,1.839,-1,4
666,3.79019,1.835,-1,4
667,3.79202,1.830,-1,4
668,3.79384,1.821,-1,4
669,3.79565,1.815,-1,4
670,3.79747,1.817,-1,4
671,3.79928,1.810,-1,4
672,3.80110,1.813,-1,4
673,3.80290,1.808,-1,4
674,3.80470,1.795,-1,4
675,3.80649,1.792,-1,4
676,3.80829,1.797,-1,4
677,3.81009,1.801,-1,4
678,3.81188,1.791,-1,4
679,3.81365,1.775,-1,4
680,3.81543,1.777,-1,4
681,3.81722,1.788,-1,4
682,3.81901,1.790,-1,4
683,3.82078,1.772,-1,4
684,3.82254,1.759,-1,4
685,3.82431,1.765,-1,4
686,3.82609,1.781,-1,4
687,3.82786,1.776,-1,4
688,3.82962,1.755,-1,4
689,3.83136,1.747,-1,4
690,3.83312,1.759,-1,4
691,3.83665,1.759,-1,4
692,3.83839,1.738,-1,4
693,3.84013,1.742,-1,4
694,3.84189,1.758,-1,4
695,3.84365,1.760,-1,4
696,3.84539,1.741,-1,4
697,3.84712,1.731,-1,4
698,3.84886,1.742,-1,4
699,3.85062,1.754,-1,4
700,3.85236,1.743,-1,4
701,3.85409,1.727,-1,4
702,3.85582,1.728,-1,4
703,3.85756,1.744,-1,4
704,3.85931,1.746,-1,4
705,3.86103,1.727,-1,4
706,3.86276,1.721,-1,4
707,3.86449,1.733,-1,4
708,3.86623,1.743,-1,4
709,3.86797,1.736,-1,4
710,3.86969,1.723,-1,4
711,3.87315,1.738,-1,4
712,3.87489,1.738,-1,4
713,3.87662,1.733,-1,4
714,3.87835,1.727,-1,4
715,3.88008,1.731,-1,4
716,3.88182,1.741,-1,4
717,3.88356,1.739,-1,4
718,3.88530,1.733,-1,4
719,3.88703,1.737,-1,4
720,3.88877,1.743,-1,4
721,3.89052,1.743,-1,4
722,3.89226,1.740,-1,4
723,3.89400,1.741,-1,4
724,3.89575,1.755,-1,4
725,3.89751,1.753,-1,4
726,3.89925,1.745,-1,4
727,3.90100,1.748,-1,4
728,3.90276,1.758,-1,4
729,3.90453,1.770,-1,4
730,3.90629,1.764,-1,4
731,3.90804,1.750,-1,4
732,3.90980,1.761,-1,4
733,3.91158,1.777,-1,4
734,3.91336,1.780,-1,4
735,3.91513,1.770,-1,4
736,3.91689,1.762,-1,4
737,3.91867,1.777,-1,4
738,3.92046,1.791,-1,4
739,3.92225,1.791,-1,4
740,3.92581,1.780,-1,4
741,3.92760,1.791,-1,4
742,3.92940,1.804,-1,4
743,3.93120,1.797,-1,4
744,3.93299,1.793,-1,4
745,3.93479,1.795,-1,4
746,3.93660,1.806,-1,4
747,3.93841,1.810,-1,4
748,3.94022,1.808,-1,4
749,3.94202,1.803,-1,4
750,3.94383,1.812,-1,4
751,3.94565,1.814,-1,4
752,3.94746,1.817,-1,4
753,3.94928,1.816,-1,4
754,3.95109,1.815,-1,4
755,3.95292,1.825,-1,4
756,3.95474,1.819,-1,4
757,3.95656,1.822,-1,4
758,3.95838,1.824,-1,4
759,3.96021,1.824,-1,4
760,3.96203,1.828,-1,4
761,3.96568,1.823,-1,4
762,3.96751,1.826,-1,4
763,3.96933,1.822,-1,4
764,3.97115,1.826,-1,4
765,3.97298,1.824,-1,4
766,3.97480,1.825,-1,4
767,3.97663,1.823,-1,4
768,3.97844,1.817,-1,4
769,3.98027,1.824,-1,4
770,3.98209,1.822,-1,4
771,3.98391,1.819,-1,4
772,3.98572,1.815,-1,4
773,3.98753,1.810,-1,4
774,3.98935,1.817,-1,4
775,3.99117,1.818,-1,4
776,3.99298,1.811,-1,4
777,3.99478,1.802,-1,4
778,3.99658,1.800,-1,4
779,3.99839,1.808,-1,4
780,4.00020,1.814,-1,4
781,4.00200,1.802,-1,4
782,4.00379,1.789,-1,4
783,4.00559,1.792,-1,4
784,4.00739,1.803,-1,4
785,4.00919,1.803,-1,4
786,4.01098,1.790,-1,4
787,4.01276,1.783,-1,4
788,4.01455,1.788,-1,4
789,4.01634,1.791,-1,4
790,4.01814,1.786,-1,4
791,4.02170,1.781,-1,4
792,4.02349,1.781,-1,4
793,4.02527,1.784,-1,4
794,4.02706,1.788,-1,4
795,4.02885,1.792,-1,4
796,4.03063,1.781,-1,4
797,4.03241,1.779,-1,4
798,4.03419,1.780,-1,4
799,4.03598,1.791,-1,4
800,4.03778,1.798,-1,4
801,4.03957,1.792,-1,4
802,4.04135,1.782,-1,4
803,4.04314,1.784,-1,4
804,4.04494,1.800,-1,4
805,4.04675,1.813,-1,4
806,4.04855,1.805,-1,4
807,4.05035,1.795,-1,4
808,4.05215,1.798,-1,4
809,4.05397,1.818,-1,4
810,4.05580,1.831,-1,4
811,4.05762,1.825,-1,4
812,4.05944,1.815,-1,4
813,4.06126,1.825,-1,4
814,4.06310,1.843,-1,4
815,4.06495,1.852,-1,4
816,4.06680,1.850,-1,4
817,4.06865,1.849,-1,4
818,4.07238,1.870,-1,4
819,4.07426,1.883,-1,4
820,4.07615,1.889,-1,4
821,4.07804,1.887,-1,4
822,4.07993,1.891,-1,4
823,4.08184,1.906,-1,4
824,4.08376,1.929,-1,4
825,4.08570,1.933,-1,4
826,4.08762,1.924,-1,4
827,4.08956,1.933,-1,4
828,4.09151,1.955,-1,4
829,4.09349,1.978,-1,4
830,4.09546,1.975,-1,4
831,4.09743,1.970,-1,4
832,4.09942,1.989,-1,4
833,4.10144,2.013,-1,4
834,4.10346,2.026,-1,4
835,4.10548,2.020,-1,4
836,4.10751,2.027,-1,4
837,4.10956,2.048,-1,4
838,4.11162,2.068,-1,4
839,4.11370,2.075,-1,4
840,4.11578,2.087,-1,4
841,4.11997,2.105,-1,4
842,4.12209,2.123,-1,4
843,4.12209,2.133,-1,4
844,4.12636,2.134,-1,4
845,4.12850,2.142,-1,4
846,4.13067,2.164,-1,4
847,4.13285,2.187,-1,4
848,4.13504,2.188,-1,4
849,4.13723,2.188,-1,4
850,4.13943,2.202,-1,4
851,4.14166,2.228,-1,4
852,4.14390,2.239,-1,4
853,4.14614,2.241,-1,4
854,4.14838,2.246,-1,4
855,4.15065,2.264,-1,4
856,4.15293,2.280,-1,4
857,4.15522,2.292,-1,4
858,4.15751,2.295,-1,4
859,4.15982,2.301,-1,4
860,4.16213,2.318,-1,4
861,4.16447,2.334,-1,4
862,4.16681,2.337,-1,4
863,4.16915,2.342,-1,4
864,4.17150,2.355,-1,4
865,4.17387,2.368,-1,4
866,4.17625,2.375,-1,4
867,4.17863,2.385,-1,4
868,4.18103,2.400,-1,4
869,4.18583,2.406,-1,4
870,4.18826,2.425,-1,4
871,4.19069,2.431,-1,4
872,4.19312,2.435,-1,4
873,4.19556,2.440,-1,4
