cnt,pos,speed,Dir,Force,
1,3.20750,1.070,-1,5
2,3.20860,1.104,-1,5
3,3.20969,1.104,-1,5
4,3.21080,1.104,-1,5
5,3.21188,1.087,-1,5
6,3.21299,1.104,-1,5
7,3.21407,1.087,-1,5
8,3.21518,1.104,-1,5
9,3.21625,1.074,-1,5
10,3.21736,1.104,-1,5
11,3.21845,1.092,-1,5
12,3.21955,1.100,-1,5
13,3.22063,1.079,-1,5
14,3.22173,1.104,-1,5
15,3.22282,1.083,-1,5
16,3.22390,1.087,-1,5
17,3.22499,1.092,-1,5
18,3.22608,1.087,-1,5
19,3.22719,1.104,-1,5
20,3.22826,1.074,-1,5
21,3.22934,1.079,-1,5
22,3.23042,1.079,-1,5
23,3.23148,1.066,-1,5
24,3.23257,1.092,-1,5
25,3.23362,1.048,-1,5
26,3.23470,1.074,-1,5
27,3.23576,1.066,-1,5
28,3.23681,1.053,-1,5
29,3.23788,1.066,-1,5
30,3.23893,1.053,-1,5
31,3.24000,1.066,-1,5
32,3.24105,1.048,-1,5
33,3.24209,1.044,-1,5
34,3.24314,1.044,-1,5
35,3.24419,1.053,-1,5
36,3.24523,1.040,-1,5
37,3.24628,1.048,-1,5
38,3.24730,1.027,-1,5
39,3.24836,1.057,-1,5
40,3.24938,1.022,-1,5
41,3.25042,1.040,-1,5
42,3.25144,1.014,-1,5
43,3.25347,1.010,-1,5
44,3.25449,1.022,-1,5
45,3.25552,1.027,-1,5
46,3.25653,1.014,-1,5
47,3.25756,1.027,-1,5
48,3.25855,0.997,-1,5
49,3.25958,1.022,-1,5
50,3.26057,0.988,-1,5
51,3.26158,1.014,-1,5
52,3.26257,0.988,-1,5
53,3.26358,1.014,-1,5
54,3.26456,0.984,-1,5
55,3.26556,0.997,-1,5
56,3.26654,0.975,-1,5
57,3.26753,0.997,-1,5
58,3.26851,0.979,-1,5
59,3.26951,0.997,-1,5
60,3.27048,0.975,-1,5
61,3.27148,0.997,-1,5
62,3.27245,0.966,-1,5
63,3.27344,0.997,-1,5
64,3.27441,0.971,-1,5
65,3.27637,0.971,-1,5
66,3.27736,0.988,-1,5
67,3.27833,0.975,-1,5
68,3.28026,0.958,-1,5
69,3.28124,0.979,-1,5
70,3.28218,0.936,-1,5
71,3.28316,0.979,-1,5
72,3.28411,0.958,-1,5
73,3.28507,0.962,-1,5
74,3.28602,0.949,-1,5
75,3.28699,0.962,-1,5
76,3.28794,0.958,-1,5
77,3.28889,0.945,-1,5
78,3.28984,0.949,-1,5
79,3.29080,0.958,-1,5
80,3.29176,0.962,-1,5
81,3.29269,0.932,-1,5
82,3.29365,0.958,-1,5
83,3.29457,0.928,-1,5
84,3.29553,0.953,-1,5
85,3.29647,0.941,-1,5
86,3.29741,0.941,-1,5
87,3.29835,0.936,-1,5
88,3.29930,0.958,-1,5
89,3.30024,0.936,-1,5
90,3.30116,0.923,-1,5
91,3.30211,0.945,-1,5
92,3.30304,0.928,-1,5
93,3.30396,0.923,-1,5
94,3.30490,0.941,-1,5
95,3.30581,0.915,-1,5
96,3.30675,0.941,-1,5
97,3.30858,0.906,-1,5
98,3.30952,0.941,-1,5
99,3.31043,0.915,-1,5
100,3.31135,0.923,-1,5
101,3.31226,0.906,-1,5
102,3.31318,0.923,-1,5
103,3.31409,0.910,-1,5
104,3.31499,0.902,-1,5
105,3.31591,0.919,-1,5
106,3.31682,0.902,-1,5
107,3.31774,0.928,-1,5
108,3.31864,0.893,-1,5
109,3.31956,0.919,-1,5
110,3.32044,0.889,-1,5
111,3.32135,0.910,-1,5
112,3.32226,0.906,-1,5
113,3.32316,0.897,-1,5
114,3.32406,0.906,-1,5
115,3.32496,0.893,-1,5
116,3.32587,0.910,-1,5
117,3.32676,0.906,-1,5
118,3.32855,0.884,-1,5
119,3.32945,0.906,-1,5
120,3.33033,0.876,-1,5
121,3.33209,0.867,-1,5
122,3.33296,0.871,-1,5
123,3.33386,0.893,-1,5
124,3.33473,0.871,-1,5
125,3.33562,0.889,-1,5
126,3.33649,0.871,-1,5
127,3.33739,0.897,-1,5
128,3.33825,0.867,-1,5
129,3.33915,0.893,-1,5
130,3.34001,0.867,-1,5
131,3.34089,0.880,-1,5
132,3.34178,0.884,-1,5
133,3.34264,0.863,-1,5
134,3.34352,0.880,-1,5
135,3.34439,0.867,-1,5
136,3.34526,0.871,-1,5
137,3.34612,0.863,-1,5
138,3.34699,0.871,-1,5
139,3.34786,0.867,-1,5
140,3.34873,0.871,-1,5
141,3.34961,0.876,-1,5
142,3.35047,0.859,-1,5
143,3.35135,0.880,-1,5
144,3.35221,0.859,-1,5
145,3.35308,0.876,-1,5
146,3.35396,0.876,-1,5
147,3.35482,0.859,-1,5
148,3.35569,0.871,-1,5
149,3.35655,0.867,-1,5
150,3.35742,0.863,-1,5
151,3.35829,0.871,-1,5
152,3.35914,0.854,-1,5
153,3.36001,0.867,-1,5
154,3.36086,0.854,-1,5
155,3.36173,0.863,-1,5
156,3.36259,0.863,-1,5
157,3.36345,0.859,-1,5
158,3.36433,0.880,-1,5
159,3.36519,0.863,-1,5
160,3.36604,0.850,-1,5
161,3.36692,0.876,-1,5
162,3.36778,0.867,-1,5
163,3.36864,0.854,-1,5
164,3.36951,0.867,-1,5
165,3.37039,0.880,-1,5
166,3.37124,0.854,-1,5
167,3.37211,0.867,-1,5
168,3.37298,0.876,-1,5
169,3.37384,0.859,-1,5
170,3.37472,0.880,-1,5
171,3.37558,0.859,-1,5
172,3.37647,0.889,-1,5
173,3.37733,0.863,-1,5
174,3.37820,0.863,-1,5
175,3.37906,0.867,-1,5
176,3.37994,0.880,-1,5
177,3.38081,0.863,-1,5
178,3.38170,0.893,-1,5
179,3.38257,0.867,-1,5
180,3.38344,0.876,-1,5
181,3.38433,0.884,-1,5
182,3.38519,0.867,-1,5
183,3.38608,0.889,-1,5
184,3.38695,0.871,-1,5
185,3.38785,0.897,-1,5
186,3.38873,0.880,-1,5
187,3.38962,0.884,-1,5
188,3.39051,0.884,-1,5
189,3.39229,0.897,-1,5
190,3.39317,0.880,-1,5
191,3.39407,0.897,-1,5
192,3.39496,0.893,-1,5
193,3.39587,0.910,-1,5
194,3.39676,0.884,-1,5
195,3.39766,0.906,-1,5
196,3.39856,0.902,-1,5
197,3.39946,0.897,-1,5
198,3.40036,0.897,-1,5
199,3.40125,0.893,-1,5
200,3.40216,0.906,-1,5
201,3.40304,0.884,-1,5
202,3.40396,0.919,-1,5
203,3.40486,0.902,-1,5
204,3.40579,0.923,-1,5
205,3.40669,0.902,-1,5
206,3.40761,0.923,-1,5
207,3.40852,0.906,-1,5
208,3.40944,0.928,-1,5
209,3.41035,0.902,-1,5
210,3.41127,0.923,-1,5
211,3.41218,0.915,-1,5
212,3.41311,0.923,-1,5
213,3.41401,0.902,-1,5
214,3.41491,0.906,-1,5
215,3.41584,0.928,-1,5
216,3.41769,0.932,-1,5
217,3.41860,0.910,-1,5
218,3.41954,0.936,-1,5
219,3.42045,0.915,-1,5
220,3.42139,0.936,-1,5
221,3.42230,0.910,-1,5
222,3.42322,0.928,-1,5
223,3.42506,0.919,-1,5
224,3.42599,0.936,-1,5
225,3.42690,0.910,-1,5
226,3.42784,0.932,-1,5
227,3.42875,0.915,-1,5
228,3.42966,0.910,-1,5
229,3.43059,0.932,-1,5
230,3.43151,0.915,-1,5
231,3.43244,0.936,-1,5
232,3.43336,0.919,-1,5
233,3.43427,0.910,-1,5
234,3.43521,0.941,-1,5
235,3.43612,0.906,-1,5
236,3.43704,0.923,-1,5
237,3.43797,0.932,-1,5
238,3.43890,0.923,-1,5
239,3.43983,0.928,-1,5
240,3.44075,0.923,-1,5
241,3.44168,0.932,-1,5
242,3.44261,0.932,-1,5
243,3.44354,0.923,-1,5
244,3.44445,0.915,-1,5
245,3.44536,0.910,-1,5
246,3.44629,0.932,-1,5
247,3.44722,0.923,-1,5
248,3.44812,0.902,-1,5
249,3.44906,0.941,-1,5
250,3.44998,0.919,-1,5
251,3.45090,0.923,-1,5
252,3.45182,0.919,-1,5
253,3.45274,0.919,-1,5
254,3.45366,0.919,-1,5
255,3.45456,0.906,-1,5
256,3.45549,0.928,-1,5
257,3.45640,0.910,-1,5
258,3.45733,0.932,-1,5
259,3.45825,0.919,-1,5
260,3.45917,0.915,-1,5
261,3.46009,0.923,-1,5
262,3.46099,0.902,-1,5
263,3.46192,0.928,-1,5
264,3.46283,0.906,-1,5
265,3.46374,0.919,-1,5
266,3.46466,0.919,-1,5
267,3.46558,0.919,-1,5
268,3.46649,0.910,-1,5
269,3.46741,0.919,-1,5
270,3.46832,0.910,-1,5
271,3.46924,0.915,-1,5
272,3.47015,0.910,-1,5
273,3.47105,0.902,-1,5
274,3.47198,0.928,-1,5
275,3.47287,0.893,-1,5
276,3.47379,0.923,-1,5
277,3.47469,0.897,-1,5
278,3.47651,0.902,-1,5
279,3.47742,0.915,-1,5
280,3.47832,0.897,-1,5
281,3.47925,0.928,-1,5
282,3.48015,0.897,-1,5
283,3.48107,0.919,-1,5
284,3.48197,0.906,-1,5
285,3.48289,0.915,-1,5
286,3.48380,0.910,-1,5
287,3.48470,0.902,-1,5
288,3.48562,0.923,-1,5
289,3.48653,0.910,-1,5
290,3.48746,0.923,-1,5
291,3.48837,0.915,-1,5
292,3.48928,0.906,-1,5
293,3.49018,0.902,-1,5
294,3.49109,0.915,-1,5
295,3.49200,0.910,-1,5
296,3.49290,0.902,-1,5
297,3.49383,0.928,-1,5
298,3.49472,0.893,-1,5
299,3.49565,0.923,-1,5
300,3.49656,0.915,-1,5
301,3.49840,0.902,-1,5
302,3.49931,0.906,-1,5
303,3.50023,0.919,-1,5
304,3.50115,0.928,-1,5
305,3.50208,0.928,-1,5
306,3.50299,0.906,-1,5
307,3.50483,0.941,-1,5
308,3.50574,0.910,-1,5
309,3.50667,0.923,-1,5
310,3.50762,0.949,-1,5
311,3.50854,0.928,-1,5
312,3.50948,0.936,-1,5
313,3.51042,0.945,-1,5
314,3.51134,0.919,-1,5
315,3.51228,0.936,-1,5
316,3.51322,0.936,-1,5
317,3.51415,0.936,-1,5
318,3.51510,0.949,-1,5
319,3.51603,0.932,-1,5
320,3.51696,0.923,-1,5
321,3.51791,0.953,-1,5
322,3.51887,0.958,-1,5
323,3.51982,0.949,-1,5
324,3.52075,0.932,-1,5
325,3.52170,0.953,-1,5
326,3.52266,0.953,-1,5
327,3.52361,0.953,-1,5
328,3.52455,0.945,-1,5
329,3.52550,0.949,-1,5
330,3.52648,0.975,-1,5
331,3.52742,0.945,-1,5
332,3.52839,0.966,-1,5
333,3.52934,0.953,-1,5
334,3.53031,0.962,-1,5
335,3.53129,0.984,-1,5
336,3.53224,0.953,-1,5
337,3.53320,0.962,-1,5
338,3.53416,0.958,-1,5
339,3.53514,0.975,-1,5
340,3.53609,0.949,-1,5
341,3.53707,0.984,-1,5
342,3.53804,0.966,-1,5
343,3.53902,0.988,-1,5
344,3.53999,0.966,-1,5
345,3.54194,0.962,-1,5
346,3.54292,0.984,-1,5
347,3.54390,0.975,-1,5
348,3.54489,0.988,-1,5
349,3.54587,0.984,-1,5
350,3.54685,0.979,-1,5
351,3.54783,0.975,-1,5
352,3.54880,0.971,-1,5
353,3.54978,0.979,-1,5
354,3.55076,0.984,-1,5
355,3.55174,0.979,-1,5
356,3.55273,0.988,-1,5
357,3.55373,1.001,-1,5
358,3.55471,0.984,-1,5
359,3.55570,0.988,-1,5
360,3.55669,0.992,-1,5
361,3.55768,0.988,-1,5
362,3.55867,0.992,-1,5
363,3.55966,0.992,-1,5
364,3.56066,0.997,-1,5
365,3.56165,0.992,-1,5
366,3.56265,1.001,-1,5
367,3.56364,0.984,-1,5
368,3.56563,1.005,-1,5
369,3.56663,0.997,-1,5
370,3.56762,0.988,-1,5
371,3.56861,0.997,-1,5
372,3.56961,0.997,-1,5
373,3.57160,0.988,-1,5
374,3.57260,1.001,-1,5
375,3.57361,1.010,-1,5
376,3.57461,1.005,-1,5
377,3.57561,0.997,-1,5
378,3.57663,1.018,-1,5
379,3.57764,1.010,-1,5
380,3.57863,0.992,-1,5
381,3.57965,1.022,-1,5
382,3.58066,1.005,-1,5
383,3.58168,1.018,-1,5
384,3.58269,1.014,-1,5
385,3.58370,1.014,-1,5
386,3.58472,1.018,-1,5
387,3.58574,1.018,-1,5
388,3.58676,1.018,-1,5
389,3.58777,1.014,-1,5
390,3.58879,1.014,-1,5
391,3.58982,1.031,-1,5
392,3.59082,1.001,-1,5
393,3.59185,1.035,-1,5
394,3.59287,1.018,-1,5
395,3.59391,1.035,-1,5
396,3.59493,1.018,-1,5
397,3.59597,1.044,-1,5
398,3.59700,1.027,-1,5
399,3.59804,1.048,-1,5
400,3.59906,1.018,-1,5
401,3.60012,1.057,-1,5
402,3.60114,1.022,-1,5
403,3.60219,1.048,-1,5
404,3.60322,1.027,-1,5
405,3.60429,1.070,-1,5
406,3.60532,1.035,-1,5
407,3.60639,1.066,-1,5
408,3.60743,1.040,-1,5
409,3.60850,1.070,-1,5
410,3.60955,1.048,-1,5
411,3.61061,1.066,-1,5
412,3.61167,1.061,-1,5
413,3.61275,1.079,-1,5
414,3.61381,1.061,-1,5
415,3.61487,1.057,-1,5
416,3.61595,1.083,-1,5
417,3.61701,1.057,-1,5
418,3.61809,1.083,-1,5
419,3.61917,1.074,-1,5
420,3.62026,1.092,-1,5
421,3.62134,1.079,-1,5
422,3.62244,1.100,-1,5
423,3.62353,1.096,-1,5
424,3.62463,1.100,-1,5
425,3.62574,1.109,-1,5
426,3.62684,1.096,-1,5
427,3.62794,1.104,-1,5
428,3.62904,1.096,-1,5
429,3.63016,1.122,-1,5
430,3.63126,1.104,-1,5
431,3.63239,1.126,-1,5
432,3.63352,1.126,-1,5
433,3.63464,1.122,-1,5
434,3.63577,1.130,-1,5
435,3.63689,1.126,-1,5
436,3.63803,1.135,-1,5
437,3.63916,1.135,-1,5
438,3.64031,1.148,-1,5
439,3.64143,1.122,-1,5
440,3.64258,1.143,-1,5
441,3.64373,1.152,-1,5
442,3.64487,1.143,-1,5
443,3.64603,1.156,-1,5
444,3.64718,1.156,-1,5
445,3.64951,1.169,-1,5
446,3.65068,1.173,-1,5
447,3.65184,1.165,-1,5
448,3.65302,1.178,-1,5
449,3.65418,1.161,-1,5
450,3.65536,1.173,-1,5
451,3.65653,1.178,-1,5
452,3.65772,1.182,-1,5
453,3.65890,1.186,-1,5
454,3.66010,1.195,-1,5
455,3.66128,1.178,-1,5
456,3.66247,1.191,-1,5
457,3.66366,1.191,-1,5
458,3.66485,1.195,-1,5
459,3.66606,1.208,-1,5
460,3.66725,1.195,-1,5
461,3.66846,1.208,-1,5
462,3.66966,1.195,-1,5
463,3.67089,1.217,-1,5
464,3.67332,1.217,-1,5
465,3.67455,1.234,-1,5
466,3.67578,1.221,-1,5
467,3.67701,1.234,-1,5
468,3.67825,1.238,-1,5
469,3.68073,1.247,-1,5
470,3.68197,1.243,-1,5
471,3.68321,1.238,-1,5
472,3.68446,1.255,-1,5
473,3.68569,1.225,-1,5
474,3.68697,1.273,-1,5
475,3.68824,1.251,-1,5
476,3.68949,1.251,-1,5
477,3.69075,1.264,-1,5
478,3.69330,1.268,-1,5
479,3.69460,1.299,-1,5
480,3.69460,1.294,-1,5
481,3.69589,1.294,-1,5
482,3.69715,1.255,-1,5
483,3.69846,1.307,-1,5
484,3.69978,1.320,-1,5
485,3.70106,1.281,-1,5
486,3.70238,1.320,-1,5
487,3.70368,1.303,-1,5
488,3.70500,1.316,-1,5
489,3.70633,1.333,-1,5
490,3.70765,1.320,-1,5
491,3.70898,1.333,-1,5
492,3.71032,1.342,-1,5
493,3.71165,1.324,-1,5
494,3.71300,1.346,-1,5
495,3.71434,1.342,-1,5
496,3.71571,1.376,-1,5
497,3.71705,1.333,-1,5
498,3.71842,1.372,-1,5
499,3.71979,1.376,-1,5
500,3.72115,1.359,-1,5
501,3.72395,1.398,-1,5
502,3.72534,1.389,-1,5
503,3.72674,1.402,-1,5
504,3.72812,1.376,-1,5
505,3.72954,1.415,-1,5
506,3.73093,1.398,-1,5
507,3.73236,1.424,-1,5
508,3.73378,1.419,-1,5
509,3.73518,1.406,-1,5
510,3.73661,1.428,-1,5
511,3.73805,1.441,-1,5
512,3.73946,1.406,-1,5
513,3.74091,1.450,-1,5
514,3.74235,1.445,-1,5
515,3.74378,1.428,-1,5
516,3.74522,1.437,-1,5
517,3.74668,1.463,-1,5
518,3.74814,1.454,-1,5
519,3.74958,1.445,-1,5
520,3.75105,1.467,-1,5
521,3.75251,1.463,-1,5
522,3.75542,1.450,-1,5
523,3.75689,1.467,-1,5
524,3.75836,1.471,-1,5
525,3.75982,1.458,-1,5
526,3.76127,1.480,-1,5
527,3.76423,1.480,-1,5
528,3.76569,1.467,-1,5
529,3.76714,1.450,-1,5
530,3.76862,1.480,-1,5
531,3.77010,1.480,-1,5
532,3.77156,1.458,-1,5
533,3.77302,1.463,-1,5
534,3.77448,1.463,-1,5
535,3.77595,1.471,-1,5
536,3.77739,1.441,-1,5
537,3.77885,1.463,-1,5
538,3.78031,1.458,-1,5
539,3.78175,1.441,-1,5
540,3.78320,1.450,-1,5
541,3.78466,1.454,-1,5
542,3.78608,1.424,-1,5
543,3.78754,1.458,-1,5
544,3.78895,1.415,-1,5
545,3.79041,1.454,-1,5
546,3.79182,1.411,-1,5
547,3.79328,1.458,-1,5
548,3.79467,1.394,-1,5
549,3.79609,1.424,-1,5
550,3.79748,1.385,-1,5
551,3.79889,1.411,-1,5
552,3.80029,1.402,-1,5
553,3.80168,1.389,-1,5
554,3.80305,1.372,-1,5
555,3.80442,1.368,-1,5
556,3.80580,1.381,-1,5
557,3.80716,1.359,-1,5
558,3.80851,1.346,-1,5
559,3.80986,1.355,-1,5
560,3.81121,1.346,-1,5
561,3.81253,1.320,-1,5
562,3.81386,1.337,-1,5
563,3.81519,1.324,-1,5
564,3.81649,1.299,-1,5
565,3.81779,1.299,-1,5
566,3.81907,1.281,-1,5
567,3.82034,1.273,-1,5
568,3.82163,1.294,-1,5
569,3.82291,1.273,-1,5
570,3.82417,1.260,-1,5
571,3.82543,1.260,-1,5
572,3.82667,1.243,-1,5
573,3.82791,1.238,-1,5
574,3.82915,1.238,-1,5
575,3.83035,1.208,-1,5
576,3.83156,1.208,-1,5
577,3.83277,1.204,-1,5
578,3.83395,1.186,-1,5
579,3.83515,1.199,-1,5
580,3.83635,1.199,-1,5
581,3.83752,1.169,-1,5
582,3.83870,1.178,-1,5
583,3.83985,1.156,-1,5
584,3.84101,1.156,-1,5
585,3.84215,1.143,-1,5
586,3.84331,1.156,-1,5
587,3.84444,1.130,-1,5
588,3.84557,1.130,-1,5
589,3.84668,1.113,-1,5
590,3.84778,1.100,-1,5
591,3.84890,1.122,-1,5
592,3.85000,1.096,-1,5
593,3.85111,1.109,-1,5
594,3.85220,1.087,-1,5
595,3.85328,1.083,-1,5
596,3.85435,1.074,-1,5
597,3.85543,1.079,-1,5
598,3.85756,1.057,-1,5
599,3.85863,1.061,-1,5
600,3.85970,1.079,-1,5
601,3.86076,1.053,-1,5
602,3.86180,1.040,-1,5
603,3.86285,1.053,-1,5
604,3.86388,1.031,-1,5
605,3.86495,1.074,-1,5
606,3.86598,1.027,-1,5
607,3.86702,1.035,-1,5
608,3.86805,1.035,-1,5
609,3.86909,1.040,-1,5
610,3.87011,1.022,-1,5
611,3.87113,1.018,-1,5
612,3.87216,1.031,-1,5
613,3.87316,1.001,-1,5
614,3.87418,1.014,-1,5
615,3.87519,1.014,-1,5
616,3.87620,1.005,-1,5
617,3.87722,1.018,-1,5
618,3.87821,0.992,-1,5
619,3.87922,1.014,-1,5
620,3.88023,1.005,-1,5
621,3.88124,1.010,-1,5
622,3.88222,0.984,-1,5
623,3.88323,1.014,-1,5
624,3.88422,0.984,-1,5
625,3.88522,1.001,-1,5
626,3.88621,0.992,-1,5
627,3.88722,1.010,-1,5
628,3.88820,0.984,-1,5
629,3.88921,1.005,-1,5
630,3.89020,0.988,-1,5
631,3.89121,1.010,-1,5
632,3.89219,0.984,-1,5
633,3.89319,0.997,-1,5
634,3.89418,0.992,-1,5
635,3.89518,1.001,-1,5
636,3.89616,0.975,-1,5
637,3.89715,0.997,-1,5
638,3.89812,0.971,-1,5
639,3.89912,0.997,-1,5
640,3.90010,0.979,-1,5
641,3.90110,1.001,-1,5
642,3.90308,1.005,-1,5
643,3.90407,0.984,-1,5
644,3.90507,1.001,-1,5
645,3.90605,0.984,-1,5
646,3.90707,1.014,-1,5
647,3.90806,0.997,-1,5
648,3.90906,0.997,-1,5
649,3.91005,1.001,-1,5
650,3.91105,0.979,-1,5
651,3.91303,1.005,-1,5
652,3.91403,0.992,-1,5
653,3.91504,1.018,-1,5
654,3.91603,0.984,-1,5
655,3.91704,1.014,-1,5
656,3.91803,0.992,-1,5
657,3.91904,1.010,-1,5
658,3.92005,1.005,-1,5
659,3.92107,1.018,-1,5
660,3.92206,0.997,-1,5
661,3.92307,1.010,-1,5
662,3.92407,1.001,-1,5
663,3.92508,1.005,-1,5
664,3.92608,1.005,-1,5
665,3.92709,1.005,-1,5
666,3.92810,1.010,-1,5
667,3.92911,1.010,-1,5
668,3.93012,1.014,-1,5
669,3.93113,1.005,-1,5
670,3.93214,1.010,-1,5
671,3.93316,1.022,-1,5
672,3.93417,1.010,-1,5
673,3.93519,1.022,-1,5
674,3.93621,1.014,-1,5
675,3.93722,1.014,-1,5
676,3.93824,1.018,-1,5
677,3.93925,1.010,-1,5
678,3.94027,1.022,-1,5
679,3.94128,1.014,-1,5
680,3.94231,1.022,-1,5
681,3.94333,1.027,-1,5
682,3.94433,1.001,-1,5
683,3.94535,1.018,-1,5
684,3.94637,1.014,-1,5
685,3.94739,1.027,-1,5
686,3.94841,1.018,-1,5
687,3.94945,1.035,-1,5
688,3.95045,1.005,-1,5
689,3.95148,1.027,-1,5
690,3.95249,1.014,-1,5
691,3.95353,1.040,-1,5
692,3.95455,1.018,-1,5
693,3.95559,1.035,-1,5
694,3.95660,1.014,-1,5
695,3.95764,1.040,-1,5
696,3.95866,1.018,-1,5
697,3.95970,1.044,-1,5
698,3.96071,1.014,-1,5
699,3.96176,1.048,-1,5
700,3.96278,1.018,-1,5
701,3.96383,1.044,-1,5
702,3.96486,1.035,-1,5
703,3.96588,1.022,-1,5
704,3.96691,1.027,-1,5
705,3.96793,1.022,-1,5
706,3.96898,1.048,-1,5
707,3.97000,1.022,-1,5
708,3.97106,1.053,-1,5
709,3.97207,1.057,-1,5
710,3.97415,1.018,-1,5
711,3.97520,1.048,-1,5
712,3.97623,1.035,-1,5
713,3.97728,1.044,-1,5
714,3.97831,1.035,-1,5
715,3.97935,1.040,-1,5
716,3.98037,1.018,-1,5
717,3.98143,1.057,-1,5
718,3.98247,1.040,-1,5
719,3.98351,1.040,-1,5
720,3.98455,1.044,-1,5
721,3.98559,1.040,-1,5
722,3.98664,1.053,-1,5
723,3.98767,1.031,-1,5
724,3.98872,1.044,-1,5
725,3.98975,1.027,-1,5
726,3.99079,1.040,-1,5
727,3.99183,1.044,-1,5
728,3.99285,1.022,-1,5
729,3.99390,1.044,-1,5
730,3.99493,1.031,-1,5
731,3.99597,1.040,-1,5
732,3.99805,1.053,-1,5
733,3.99907,1.027,-1,5
734,4.00010,1.031,-1,5
735,4.00114,1.031,-1,5
736,4.00215,1.018,-1,5
737,4.00320,1.044,-1,5
738,4.00424,1.040,-1,5
739,4.00527,1.040,-1,5
740,4.00734,1.031,-1,5
741,4.00838,1.035,-1,5
742,4.00941,1.031,-1,5
743,4.01042,1.005,-1,5
744,4.01146,1.040,-1,5
745,4.01247,1.018,-1,5
746,4.01348,1.010,-1,5
747,4.01451,1.031,-1,5
748,4.01554,1.027,-1,5
749,4.01658,1.035,-1,5
750,4.01757,0.997,-1,5
751,4.01860,1.022,-1,5
752,4.01961,1.018,-1,5
753,4.02063,1.014,-1,5
754,4.02162,0.997,-1,5
755,4.02265,1.027,-1,5
756,4.02367,1.018,-1,5
757,4.02468,1.010,-1,5
758,4.02569,1.010,-1,5
759,4.02669,1.005,-1,5
760,4.02769,0.992,-1,5
761,4.02869,1.005,-1,5
762,4.02971,1.014,-1,5
763,4.03071,1.001,-1,5
764,4.03171,1.005,-1,5
765,4.03272,1.005,-1,5
766,4.03372,1.001,-1,5
767,4.03471,0.997,-1,5
768,4.03571,0.997,-1,5
769,4.03671,1.001,-1,5
770,4.03770,0.988,-1,5
771,4.03870,0.997,-1,5
772,4.03967,0.997,-1,5
773,4.04165,0.984,-1,5
774,4.04264,0.988,-1,5
775,4.04362,0.979,-1,5
776,4.04461,0.992,-1,5
777,4.04559,0.984,-1,5
778,4.04659,0.992,-1,5
779,4.04756,0.975,-1,5
780,4.04855,0.988,-1,5
781,4.04952,0.966,-1,5
782,4.05050,0.984,-1,5
783,4.05148,0.979,-1,5
784,4.05246,0.984,-1,5
785,4.05344,0.979,-1,5
786,4.05441,0.966,-1,5
787,4.05538,0.966,-1,5
788,4.05632,0.949,-1,5
789,4.05730,0.979,-1,5
790,4.05827,0.966,-1,5
791,4.05925,0.975,-1,5
792,4.06020,0.958,-1,5
793,4.06118,0.979,-1,5
794,4.06214,0.958,-1,5
795,4.06312,0.984,-1,5
796,4.06407,0.945,-1,5
797,4.06503,0.962,-1,5
798,4.06598,0.953,-1,5
799,4.06695,0.962,-1,5
800,4.06791,0.966,-1,5
801,4.06983,0.975,-1,5
802,4.07077,0.941,-1,5
803,4.07171,0.941,-1,5
804,4.07269,0.949,-1,5
805,4.07459,0.949,-1,5
806,4.07557,0.984,-1,5
807,4.07652,0.945,-1,5
808,4.07746,0.941,-1,5
809,4.07843,0.966,-1,5
810,4.07936,0.936,-1,5
811,4.08030,0.932,-1,5
812,4.08127,0.971,-1,5
813,4.08220,0.932,-1,5
814,4.08316,0.958,-1,5
815,4.08410,0.941,-1,5
816,4.08504,0.945,-1,5
817,4.08599,0.949,-1,5
818,4.08692,0.928,-1,5
819,4.08788,0.962,-1,5
820,4.08882,0.936,-1,5
821,4.08977,0.949,-1,5
822,4.09069,0.923,-1,5
823,4.09164,0.949,-1,5
824,4.09258,0.941,-1,5
825,4.09351,0.928,-1,5
826,4.09445,0.949,-1,5
827,4.09539,0.932,-1,5
828,4.09634,0.949,-1,5
829,4.09726,0.928,-1,5
830,4.09820,0.941,-1,5
831,4.09913,0.928,-1,5
832,4.10007,0.941,-1,5
833,4.10100,0.923,-1,5
834,4.10193,0.936,-1,5
835,4.10284,0.910,-1,5
836,4.10379,0.945,-1,5
837,4.10472,0.932,-1,5
838,4.10564,0.923,-1,5
839,4.10658,0.936,-1,5
840,4.10750,0.919,-1,5
841,4.10842,0.928,-1,5
842,4.11028,0.936,-1,5
843,4.11120,0.919,-1,5
844,4.11214,0.941,-1,5
845,4.11305,0.910,-1,5
846,4.11397,0.923,-1,5
847,4.11487,0.902,-1,5
848,4.11581,0.936,-1,5
849,4.11672,0.906,-1,5
850,4.11765,0.936,-1,5
851,4.11856,0.910,-1,5
852,4.11949,0.932,-1,5
853,4.12041,0.915,-1,5
854,4.12135,0.936,-1,5
855,4.12225,0.906,-1,5
856,4.12318,0.928,-1,5
857,4.12411,0.928,-1,5
858,4.12502,0.910,-1,5
859,4.12594,0.923,-1,5
860,4.12687,0.932,-1,5
861,4.12778,0.910,-1,5
862,4.12869,0.928,-1,5
863,4.13052,0.902,-1,5
864,4.13145,0.932,-1,5
865,4.13237,0.915,-1,5
866,4.13420,0.910,-1,5
867,4.13511,0.915,-1,5
868,4.13604,0.923,-1,5
869,4.13694,0.906,-1,5
870,4.13786,0.915,-1,5
871,4.13879,0.932,-1,5
872,4.13970,0.910,-1,5
873,4.14063,0.932,-1,5
