cnt,pos,speed,Dir,Force,
1,3.98970,1.002,-1,3
2,3.99070,1.002,-1,3
3,3.99169,0.989,-1,3
4,3.99268,0.993,-1,3
5,3.99369,1.010,-1,3
6,3.99472,1.026,-1,3
7,3.99574,1.026,-1,3
8,3.99676,1.016,-1,3
9,3.99777,1.015,-1,3
10,3.99881,1.033,-1,3
11,3.99986,1.049,-1,3
12,4.00091,1.050,-1,3
13,4.00195,1.042,-1,3
14,4.00299,1.041,-1,3
15,4.00405,1.059,-1,3
16,4.00512,1.071,-1,3
17,4.00619,1.074,-1,3
18,4.00726,1.068,-1,3
19,4.00833,1.072,-1,3
20,4.00942,1.084,-1,3
21,4.01051,1.094,-1,3
22,4.01161,1.094,-1,3
23,4.01270,1.096,-1,3
24,4.01381,1.103,-1,3
25,4.01492,1.111,-1,3
26,4.01603,1.115,-1,3
27,4.01715,1.126,-1,3
28,4.01941,1.131,-1,3
29,4.02055,1.135,-1,3
30,4.02169,1.141,-1,3
31,4.02284,1.150,-1,3
32,4.02399,1.153,-1,3
33,4.02515,1.155,-1,3
34,4.02630,1.159,-1,3
35,4.02748,1.171,-1,3
36,4.02865,1.179,-1,3
37,4.02983,1.181,-1,3
38,4.03101,1.178,-1,3
39,4.03220,1.187,-1,3
40,4.03340,1.197,-1,3
41,4.03460,1.203,-1,3
42,4.03580,1.205,-1,3
43,4.03701,1.211,-1,3
44,4.03823,1.218,-1,3
45,4.03945,1.220,-1,3
46,4.04068,1.224,-1,3
47,4.04191,1.231,-1,3
48,4.04315,1.241,-1,3
49,4.04439,1.242,-1,3
50,4.04564,1.251,-1,3
51,4.04690,1.254,-1,3
52,4.04816,1.260,-1,3
53,4.04942,1.261,-1,3
54,4.05069,1.269,-1,3
55,4.05196,1.278,-1,3
56,4.05453,1.287,-1,3
57,4.05582,1.291,-1,3
58,4.05712,1.297,-1,3
59,4.05842,1.302,-1,3
60,4.05973,1.307,-1,3
61,4.06105,1.316,-1,3
62,4.06237,1.322,-1,3
63,4.06369,1.324,-1,3
64,4.06502,1.330,-1,3
65,4.06636,1.336,-1,3
66,4.06770,1.339,-1,3
67,4.06904,1.346,-1,3
68,4.07040,1.356,-1,3
69,4.07176,1.360,-1,3
70,4.07312,1.361,-1,3
71,4.07448,1.365,-1,3
72,4.07586,1.375,-1,3
73,4.07724,1.383,-1,3
74,4.07863,1.389,-1,3
75,4.08002,1.393,-1,3
76,4.08142,1.392,-1,3
77,4.08281,1.397,-1,3
78,4.08422,1.412,-1,3
79,4.08565,1.424,-1,3
80,4.08707,1.419,-1,3
81,4.08848,1.417,-1,3
82,4.08991,1.425,-1,3
83,4.09134,1.435,-1,3
84,4.09279,1.450,-1,3
85,4.09569,1.445,-1,3
86,4.09714,1.446,-1,3
87,4.09860,1.465,-1,3
88,4.10008,1.479,-1,3
89,4.10156,1.478,-1,3
90,4.10304,1.477,-1,3
91,4.10451,1.476,-1,3
92,4.10600,1.488,-1,3
93,4.10751,1.505,-1,3
94,4.10901,1.509,-1,3
95,4.11052,1.504,-1,3
96,4.11202,1.502,-1,3
97,4.11354,1.517,-1,3
98,4.11507,1.529,-1,3
99,4.11660,1.532,-1,3
100,4.11813,1.528,-1,3
101,4.11966,1.532,-1,3
102,4.12120,1.541,-1,3
103,4.12275,1.554,-1,3
104,4.12431,1.555,-1,3
105,4.12586,1.552,-1,3
106,4.12742,1.559,-1,3
107,4.12898,1.564,-1,3
108,4.13055,1.571,-1,3
109,4.13213,1.579,-1,3
110,4.13529,1.581,-1,3
111,4.13688,1.586,-1,3
112,4.13847,1.591,-1,3
113,4.14006,1.595,-1,3
114,4.14167,1.603,-1,3
115,4.14327,1.602,-1,3
116,4.14487,1.602,-1,3
117,4.14647,1.606,-1,3
118,4.14809,1.615,-1,3
119,4.14971,1.624,-1,3
120,4.15134,1.622,-1,3
121,4.15295,1.612,-1,3
122,4.15456,1.617,-1,3
123,4.15620,1.636,-1,3
124,4.15784,1.641,-1,3
125,4.15948,1.634,-1,3
126,4.16110,1.627,-1,3
127,4.16273,1.631,-1,3
128,4.16438,1.649,-1,3
129,4.16604,1.656,-1,3
130,4.16768,1.643,-1,3
131,4.16932,1.636,-1,3
132,4.17096,1.645,-1,3
133,4.17262,1.660,-1,3
134,4.17429,1.664,-1,3
135,4.17594,1.651,-1,3
136,4.17758,1.644,-1,3
137,4.17924,1.658,-1,3
138,4.18091,1.672,-1,3
139,4.18258,1.654,-1,3
140,4.18588,1.650,-1,3
141,4.18755,1.667,-1,3
142,4.18923,1.681,-1,3
143,4.19090,1.671,-1,3
144,4.19256,1.654,-1,3
145,4.19421,1.656,-1,3
146,4.19589,1.674,-1,3
147,4.19757,1.684,-1,3
148,4.19924,1.674,-1,3
149,4.20090,1.656,-1,3
150,4.20256,1.659,-1,3
151,4.20423,1.676,-1,3
152,4.20592,1.682,-1,3
153,4.20759,1.674,-1,3
154,4.20925,1.660,-1,3
155,4.21091,1.659,-1,3
156,4.21258,1.675,-1,3
157,4.21427,1.682,-1,3
158,4.21594,1.677,-1,3
159,4.21761,1.664,-1,3
160,4.21927,1.660,-1,3
161,4.22094,1.671,-1,3
162,4.22262,1.680,-1,3
163,4.22429,1.673,-1,3
164,4.22596,1.665,-1,3
165,4.22762,1.664,-1,3
166,4.23096,1.675,-1,3
167,4.23263,1.670,-1,3
168,4.23430,1.667,-1,3
169,4.23597,1.670,-1,3
170,4.23764,1.670,-1,3
171,4.23931,1.667,-1,3
172,4.24097,1.668,-1,3
173,4.24264,1.669,-1,3
174,4.24431,1.670,-1,3
175,4.24599,1.672,-1,3
176,4.24765,1.667,-1,3
177,4.24932,1.668,-1,3
178,4.25099,1.673,-1,3
179,4.25267,1.676,-1,3
180,4.25434,1.672,-1,3
181,4.25601,1.668,-1,3
182,4.25768,1.668,-1,3
183,4.25935,1.675,-1,3
184,4.26103,1.676,-1,3
185,4.26270,1.672,-1,3
186,4.26437,1.671,-1,3
187,4.26604,1.672,-1,3
188,4.26772,1.679,-1,3
189,4.27108,1.673,-1,3
190,4.27275,1.673,-1,3
191,4.27443,1.681,-1,3
192,4.27612,1.686,-1,3
193,4.27780,1.685,-1,3
194,4.27948,1.677,-1,3
195,4.28116,1.680,-1,3
196,4.28285,1.691,-1,3
197,4.28454,1.694,-1,3
198,4.28623,1.689,-1,3
199,4.28791,1.683,-1,3
200,4.28960,1.687,-1,3
201,4.29130,1.702,-1,3
202,4.29301,1.708,-1,3
203,4.29471,1.697,-1,3
204,4.29640,1.691,-1,3
205,4.29810,1.700,-1,3
206,4.29981,1.712,-1,3
207,4.30153,1.718,-1,3
208,4.30324,1.711,-1,3
209,4.30494,1.704,-1,3
210,4.30666,1.713,-1,3
211,4.30838,1.725,-1,3
212,4.31011,1.732,-1,3
213,4.31184,1.727,-1,3
214,4.31356,1.722,-1,3
215,4.31529,1.727,-1,3
216,4.31703,1.740,-1,3
217,4.32052,1.744,-1,3
218,4.32226,1.746,-1,3
219,4.32401,1.746,-1,3
220,4.32576,1.750,-1,3
221,4.32752,1.757,-1,3
222,4.32928,1.765,-1,3
223,4.33105,1.771,-1,3
224,4.33282,1.768,-1,3
225,4.33458,1.764,-1,3
226,4.33636,1.774,-1,3
227,4.33814,1.785,-1,3
228,4.33994,1.795,-1,3
229,4.34172,1.789,-1,3
230,4.34351,1.784,-1,3
231,4.34530,1.792,-1,3
232,4.34711,1.809,-1,3
233,4.34893,1.818,-1,3
234,4.35074,1.812,-1,3
235,4.35255,1.806,-1,3
236,4.35437,1.821,-1,3
237,4.35620,1.832,-1,3
238,4.35804,1.838,-1,3
239,4.35987,1.838,-1,3
240,4.36171,1.836,-1,3
241,4.36356,1.846,-1,3
242,4.36541,1.856,-1,3
243,4.36914,1.867,-1,3
244,4.37101,1.867,-1,3
245,4.37288,1.870,-1,3
246,4.37476,1.879,-1,3
247,4.37665,1.894,-1,3
248,4.37855,1.900,-1,3
249,4.38044,1.891,-1,3
250,4.38234,1.893,-1,3
251,4.38424,1.909,-1,3
252,4.38617,1.926,-1,3
253,4.38810,1.926,-1,3
254,4.39001,1.918,-1,3
255,4.39194,1.924,-1,3
256,4.39388,1.941,-1,3
257,4.39583,1.954,-1,3
258,4.39778,1.949,-1,3
259,4.39973,1.946,-1,3
260,4.40168,1.956,-1,3
261,4.40366,1.971,-1,3
262,4.40563,1.978,-1,3
263,4.40761,1.979,-1,3
264,4.40959,1.980,-1,3
265,4.41158,1.984,-1,3
266,4.41357,1.993,-1,3
267,4.41558,2.010,-1,3
268,4.41759,2.007,-1,3
269,4.41960,2.008,-1,3
270,4.42161,2.026,-1,3
271,4.42567,2.042,-1,3
272,4.42771,2.039,-1,3
273,4.42975,2.033,-1,3
274,4.43178,2.037,-1,3
275,4.43384,2.060,-1,3
276,4.43591,2.068,-1,3
277,4.43798,2.067,-1,3
278,4.44004,2.065,-1,3
279,4.44212,2.074,-1,3
280,4.44420,2.085,-1,3
281,4.44630,2.098,-1,3
282,4.44840,2.101,-1,3
283,4.45050,2.101,-1,3
284,4.45261,2.105,-1,3
285,4.45472,2.117,-1,3
286,4.45685,2.132,-1,3
287,4.45899,2.133,-1,3
288,4.46112,2.131,-1,3
289,4.46326,2.141,-1,3
290,4.46541,2.154,-1,3
291,4.46758,2.161,-1,3
292,4.46974,2.166,-1,3
293,4.47191,2.174,-1,3
294,4.47410,2.181,-1,3
295,4.47628,2.186,-1,3
296,4.48069,2.208,-1,3
297,4.48290,2.215,-1,3
298,4.48512,2.217,-1,3
299,4.48734,2.226,-1,3
300,4.48958,2.238,-1,3
301,4.49183,2.248,-1,3
302,4.49409,2.255,-1,3
303,4.49635,2.263,-1,3
304,4.49862,2.267,-1,3
305,4.50090,2.283,-1,3
306,4.50319,2.296,-1,3
307,4.50550,2.301,-1,3
308,4.50780,2.308,-1,3
309,4.51012,2.319,-1,3
310,4.51246,2.333,-1,3
311,4.51480,2.344,-1,3
312,4.51715,2.350,-1,3
313,4.51952,2.365,-1,3
314,4.52189,2.374,-1,3
315,4.52427,2.384,-1,3
316,4.52667,2.399,-1,3
317,4.52908,2.413,-1,3
318,4.53151,2.422,-1,3
319,4.53394,2.434,-1,3
320,4.53639,2.447,-1,3
321,4.53885,2.460,-1,3
322,4.54132,2.470,-1,3
323,4.54380,2.485,-1,3
324,4.54881,2.512,-1,3
325,4.55133,2.525,-1,3
326,4.55387,2.537,-1,3
327,4.55642,2.548,-1,3
328,4.55898,2.564,-1,3
329,4.56156,2.577,-1,3
330,4.56415,2.591,-1,3
331,4.56676,2.605,-1,3
332,4.56937,2.619,-1,3
333,4.57201,2.632,-1,3
334,4.57465,2.648,-1,3
335,4.57732,2.663,-1,3
336,4.57999,2.678,-1,3
337,4.58269,2.694,-1,3
338,4.58539,2.705,-1,3
339,4.58812,2.722,-1,3
340,4.59085,2.738,-1,3
341,4.59361,2.753,-1,3
342,4.59638,2.769,-1,3
343,4.59916,2.786,-1,3
344,4.60196,2.796,-1,3
345,4.60477,2.816,-1,3
346,4.60761,2.832,-1,3
347,4.61045,2.844,-1,3
348,4.61331,2.863,-1,3
349,4.61619,2.876,-1,3
350,4.61908,2.890,-1,3
351,4.62199,2.907,-1,3
352,4.62491,2.935,-1,3
353,4.63080,2.953,-1,3
354,4.63376,2.966,-1,3
355,4.63675,2.982,-1,3
356,4.63974,2.995,-1,3
357,4.64275,3.011,-1,3
358,4.64578,3.024,-1,3
359,4.64881,3.036,-1,3
360,4.65186,3.052,-1,3
361,4.65493,3.069,-1,3
362,4.65801,3.080,-1,3
363,4.66111,3.095,-1,3
364,4.66422,3.108,-1,3
365,4.66734,3.119,-1,3
366,4.67047,3.134,-1,3
367,4.67361,3.143,-1,3
368,4.67677,3.157,-1,3
369,4.67994,3.167,-1,3
370,4.68312,3.179,-1,3
371,4.68630,3.189,-1,3
372,4.68951,3.201,-1,3
373,4.69271,3.210,-1,3
374,4.69594,3.223,-1,3
375,4.69917,3.230,-1,3
376,4.70240,3.248,-1,3
377,4.70565,3.261,-1,3
378,4.70891,3.266,-1,3
379,4.71545,3.270,-1,3
380,4.71873,3.282,-1,3
381,4.72202,3.290,-1,3
382,4.72532,3.298,-1,3
383,4.72862,3.303,-1,3
384,4.73193,3.309,-1,3
385,4.73525,3.316,-1,3
386,4.73857,3.326,-1,3
387,4.74191,3.332,-1,3
388,4.74524,3.335,-1,3
389,4.74858,3.340,-1,3
390,4.75192,3.345,-1,3
391,4.75527,3.350,-1,3
392,4.75863,3.356,-1,3
393,4.76199,3.357,-1,3
394,4.76535,3.360,-1,3
395,4.76871,3.363,-1,3
396,4.77208,3.367,-1,3
397,4.77545,3.372,-1,3
398,4.77882,3.374,-1,3
399,4.78219,3.370,-1,3
400,4.78557,3.374,-1,3
401,4.78895,3.379,-1,3
402,4.79233,3.379,-1,3
403,4.79571,3.379,-1,3
404,4.79908,3.379,-1,3
405,4.80247,3.384,-1,3
406,4.80585,3.381,-1,3
407,4.80923,3.383,-1,3
408,4.81261,3.382,-1,3
409,4.81938,3.380,-1,3
410,4.82275,3.380,-1,3
411,4.82614,3.380,-1,3
412,4.82951,3.378,-1,3
413,4.83289,3.373,-1,3
414,4.83626,3.373,-1,3
415,4.83963,3.372,-1,3
416,4.84300,3.370,-1,3
417,4.84637,3.365,-1,3
418,4.84973,3.361,-1,3
419,4.85309,3.362,-1,3
420,4.85645,3.356,-1,3
421,4.85980,3.355,-1,3
422,4.86315,3.352,-1,3
423,4.86650,3.347,-1,3
424,4.86985,3.344,-1,3
425,4.87319,3.342,-1,3
426,4.87652,3.337,-1,3
427,4.87986,3.334,-1,3
428,4.88319,3.329,-1,3
429,4.88651,3.325,-1,3
430,4.88983,3.321,-1,3
431,4.89315,3.315,-1,3
432,4.89646,3.314,-1,3
433,4.90307,3.302,-1,3
434,4.90637,3.297,-1,3
435,4.90966,3.292,-1,3
436,4.91295,3.288,-1,3
437,4.91623,3.285,-1,3
438,4.91951,3.278,-1,3
439,4.92279,3.274,-1,3
440,4.92605,3.265,-1,3
441,4.92932,3.265,-1,3
442,4.93257,3.258,-1,3
443,4.93583,3.255,-1,3
444,4.93908,3.249,-1,3
445,4.94232,3.240,-1,3
446,4.94556,3.243,-1,3
447,4.94880,3.236,-1,3
448,4.95203,3.230,-1,3
449,4.95525,3.225,-1,3
450,4.95847,3.221,-1,3
451,4.96169,3.216,-1,3
452,4.96490,3.213,-1,3
453,4.96811,3.206,-1,3
454,4.97131,3.200,-1,3
455,4.97451,3.199,-1,3
456,4.97770,3.194,-1,3
457,4.98089,3.189,-1,3
458,4.98407,3.183,-1,3
459,4.98725,3.178,-1,3
460,4.99042,3.175,-1,3
461,4.99677,3.166,-1,3
462,4.99993,3.161,-1,3
463,5.00308,3.153,-1,3
464,5.00624,3.157,-1,3
465,5.00939,3.152,-1,3
466,5.01253,3.144,-1,3
467,5.01567,3.138,-1,3
468,5.01880,3.133,-1,3
469,5.02194,3.134,-1,3
470,5.02507,3.128,-1,3
471,5.02819,3.119,-1,3
472,5.03130,3.116,-1,3
473,5.03441,3.109,-1,3
474,5.03752,3.106,-1,3
475,5.04062,3.101,-1,3
476,5.04371,3.095,-1,3
477,5.04680,3.087,-1,3
478,5.04988,3.079,-1,3
479,5.05296,3.077,-1,3
480,5.05603,3.069,-1,3
481,5.05909,3.062,-1,3
482,5.06214,3.052,-1,3
483,5.06518,3.046,-1,3
484,5.06822,3.039,-1,3
485,5.07126,3.035,-1,3
486,5.07428,3.024,-1,3
487,5.07730,3.019,-1,3
488,5.08031,3.007,-1,3
489,5.08630,2.994,-1,3
490,5.08929,2.985,-1,3
491,5.09227,2.976,-1,3
492,5.09523,2.970,-1,3
493,5.09820,2.960,-1,3
494,5.10115,2.954,-1,3
495,5.10409,2.946,-1,3
496,5.10703,2.935,-1,3
497,5.10995,2.925,-1,3
498,5.11287,2.917,-1,3
499,5.11578,2.909,-1,3
500,5.11868,2.903,-1,3
501,5.12158,2.893,-1,3
502,5.12446,2.882,-1,3
503,5.12733,2.870,-1,3
504,5.13019,2.865,-1,3
505,5.13305,2.858,-1,3
506,5.13590,2.849,-1,3
507,5.13874,2.839,-1,3
508,5.14157,2.830,-1,3
509,5.14439,2.820,-1,3
510,5.14720,2.814,-1,3
511,5.15001,2.810,-1,3
512,5.15281,2.798,-1,3
513,5.15560,2.788,-1,3
514,5.15838,2.781,-1,3
515,5.16115,2.776,-1,3
516,5.16392,2.770,-1,3
517,5.16943,2.750,-1,3
518,5.17218,2.743,-1,3
519,5.17491,2.738,-1,3
520,5.17764,2.730,-1,3
521,5.18037,2.725,-1,3
522,5.18309,2.717,-1,3
523,5.18579,2.709,-1,3
524,5.18850,2.705,-1,3
525,5.19119,2.695,-1,3
526,5.19388,2.690,-1,3
527,5.19657,2.687,-1,3
528,5.19925,2.681,-1,3
529,5.20192,2.671,-1,3
530,5.20459,2.668,-1,3
531,5.20726,2.664,-1,3
532,5.20991,2.659,-1,3
533,5.21257,2.654,-1,3
534,5.21522,2.648,-1,3
535,5.21786,2.647,-1,3
536,5.22051,2.645,-1,3
537,5.22315,2.637,-1,3
538,5.22579,2.639,-1,3
539,5.22842,2.637,-1,3
540,5.23106,2.632,-1,3
541,5.23632,2.634,-1,3
542,5.23896,2.633,-1,3
543,5.24159,2.634,-1,3
544,5.24423,2.637,-1,3
545,5.24686,2.634,-1,3
546,5.24950,2.639,-1,3
547,5.25214,2.639,-1,3
548,5.25479,2.646,-1,3
549,5.25743,2.648,-1,3
550,5.26009,2.654,-1,3
551,5.26274,2.655,-1,3
552,5.26541,2.662,-1,3
553,5.26808,2.673,-1,3
554,5.27076,2.679,-1,3
555,5.27344,2.686,-1,3
556,5.27614,2.695,-1,3
557,5.27884,2.705,-1,3
558,5.28156,2.716,-1,3
559,5.28429,2.729,-1,3
560,5.28703,2.740,-1,3
561,5.28978,2.754,-1,3
562,5.29255,2.769,-1,3
563,5.29534,2.783,-1,3
564,5.29814,2.801,-1,3
565,5.30095,2.816,-1,3
566,5.30379,2.834,-1,3
567,5.30664,2.855,-1,3
568,5.30951,2.868,-1,3
569,5.31240,2.891,-1,3
570,5.31825,2.936,-1,3
571,5.32121,2.962,-1,3
572,5.32419,2.980,-1,3
573,5.32720,3.007,-1,3
574,5.33024,3.034,-1,3
575,5.33329,3.058,-1,3
576,5.33638,3.088,-1,3
577,5.33950,3.117,-1,3
578,5.34264,3.142,-1,3
579,5.34581,3.173,-1,3
580,5.34902,3.204,-1,3
581,5.35225,3.237,-1,3
582,5.35552,3.266,-1,3
583,5.35882,3.301,-1,3
584,5.36215,3.333,-1,3
585,5.36552,3.364,-1,3
586,5.36892,3.402,-1,3
587,5.37236,3.438,-1,3
588,5.37583,3.469,-1,3
589,5.37933,3.505,-1,3
590,5.38287,3.542,-1,3
591,5.38645,3.576,-1,3
592,5.39006,3.612,-1,3
593,5.39371,3.645,-1,3
594,5.39739,3.683,-1,3
595,5.40111,3.723,-1,3
596,5.40487,3.755,-1,3
597,5.40866,3.791,-1,3
598,5.41248,3.860,-1,3
599,5.42024,3.896,-1,3
600,5.42417,3.929,-1,3
601,5.42813,3.962,-1,3
602,5.43213,3.996,-1,3
603,5.43615,4.028,-1,3
604,5.44022,4.061,-1,3
605,5.44431,4.090,-1,3
606,5.44843,4.125,-1,3
607,5.45258,4.153,-1,3
608,5.45677,4.186,-1,3
609,5.46098,4.213,-1,3
610,5.46523,4.243,-1,3
611,5.46949,4.267,-1,3
612,5.47379,4.296,-1,3
613,5.47811,4.319,-1,3
614,5.48245,4.345,-1,3
615,5.48682,4.366,-1,3
616,5.49121,4.389,-1,3
617,5.49562,4.410,-1,3
618,5.50005,4.430,-1,3
619,5.50450,4.446,-1,3
620,5.50896,4.466,-1,3
621,5.51345,4.488,-1,3
622,5.51795,4.501,-1,3
623,5.52246,4.513,-1,3
624,5.52699,4.527,-1,3
625,5.53153,4.541,-1,3
626,5.53608,4.553,-1,3
627,5.54065,4.563,-1,3
628,5.54522,4.569,-1,3
629,5.54979,4.577,-1,3
630,5.55438,4.592,-1,3
631,5.56357,4.599,-1,3
632,5.56818,4.605,-1,3
633,5.57278,4.605,-1,3
634,5.57739,4.609,-1,3
635,5.58201,4.617,-1,3
636,5.58662,4.614,-1,3
637,5.59124,4.616,-1,3
638,5.59586,4.617,-1,3
639,5.60047,4.618,-1,3
640,5.60509,4.614,-1,3
641,5.60970,4.611,-1,3
642,5.61431,4.610,-1,3
643,5.61891,4.603,-1,3
644,5.62351,4.597,-1,3
645,5.62811,4.597,-1,3
646,5.63269,4.587,-1,3
647,5.63728,4.583,-1,3
648,5.64185,4.574,-1,3
649,5.64641,4.564,-1,3
650,5.65098,4.564,-1,3
651,5.65553,4.555,-1,3
652,5.66008,4.548,-1,3
653,5.66462,4.535,-1,3
654,5.66914,4.528,-1,3
655,5.67366,4.517,-1,3
656,5.67816,4.505,-1,3
657,5.68266,4.497,-1,3
658,5.68715,4.487,-1,3
659,5.69609,4.464,-1,3
660,5.70054,4.450,-1,3
661,5.70498,4.440,-1,3
662,5.70940,4.428,-1,3
663,5.71382,4.415,-1,3
664,5.71823,4.406,-1,3
665,5.72262,4.395,-1,3
666,5.72700,4.382,-1,3
667,5.73137,4.368,-1,3
668,5.73573,4.355,-1,3
669,5.74007,4.341,-1,3
670,5.74440,4.330,-1,3
671,5.74871,4.317,-1,3
672,5.75302,4.303,-1,3
673,5.75731,4.290,-1,3
674,5.76158,4.274,-1,3
675,5.76585,4.266,-1,3
676,5.77010,4.253,-1,3
677,5.77434,4.240,-1,3
678,5.77857,4.226,-1,3
679,5.78277,4.209,-1,3
680,5.78697,4.199,-1,3
681,5.79116,4.190,-1,3
682,5.79534,4.178,-1,3
683,5.79950,4.161,-1,3
684,5.80365,4.147,-1,3
685,5.80779,4.138,-1,3
686,5.81191,4.125,-1,3
687,5.81603,4.114,-1,3
688,5.82421,4.087,-1,3
689,5.82829,4.076,-1,3
690,5.83235,4.062,-1,3
691,5.83639,4.046,-1,3
692,5.84043,4.038,-1,3
693,5.84446,4.022,-1,3
694,5.84847,4.010,-1,3
695,5.85246,3.999,-1,3
696,5.85645,3.987,-1,3
697,5.86042,3.971,-1,3
698,5.86438,3.962,-1,3
699,5.86834,3.952,-1,3
700,5.87227,3.937,-1,3
701,5.87620,3.927,-1,3
702,5.88011,3.914,-1,3
703,5.88402,3.903,-1,3
704,5.88791,3.892,-1,3
705,5.89179,3.879,-1,3
706,5.89565,3.865,-1,3
707,5.89951,3.853,-1,3
708,5.90335,3.840,-1,3
709,5.90718,3.830,-1,3
710,5.91099,3.818,-1,3
711,5.91480,3.806,-1,3
712,5.91859,3.794,-1,3
713,5.92237,3.780,-1,3
714,5.92614,3.770,-1,3
715,5.92990,3.761,-1,3
716,5.93365,3.746,-1,3
717,5.93739,3.735,-1,3
718,5.94483,3.714,-1,3
719,5.94853,3.703,-1,3
720,5.95222,3.694,-1,3
721,5.95591,3.682,-1,3
722,5.95957,3.668,-1,3
723,5.96323,3.660,-1,3
724,5.96688,3.650,-1,3
725,5.97052,3.637,-1,3
726,5.97415,3.627,-1,3
727,5.97776,3.611,-1,3
728,5.98136,3.605,-1,3
729,5.98496,3.595,-1,3
730,5.98854,3.582,-1,3
731,5.99211,3.570,-1,3
732,5.99567,3.562,-1,3
733,5.99922,3.549,-1,3
734,6.00276,3.540,-1,3
735,6.00629,3.527,-1,3
736,6.00981,3.518,-1,3
737,6.01332,3.509,-1,3
738,6.01681,3.498,-1,3
739,6.02030,3.486,-1,3
740,6.02378,3.478,-1,3
741,6.02724,3.465,-1,3
742,6.03070,3.456,-1,3
743,6.03415,3.446,-1,3
744,6.03758,3.438,-1,3
745,6.04100,3.421,-1,3
746,6.04442,3.414,-1,3
747,6.05122,3.394,-1,3
748,6.05460,3.386,-1,3
749,6.05797,3.372,-1,3
750,6.06134,3.364,-1,3
751,6.06469,3.354,-1,3
752,6.06804,3.347,-1,3
753,6.07137,3.336,-1,3
754,6.07470,3.329,-1,3
755,6.07802,3.320,-1,3
756,6.08134,3.312,-1,3
757,6.08464,3.305,-1,3
758,6.08794,3.296,-1,3
759,6.09123,3.290,-1,3
760,6.09451,3.279,-1,3
761,6.09778,3.275,-1,3
762,6.10105,3.267,-1,3
763,6.10431,3.258,-1,3
764,6.10756,3.251,-1,3
765,6.11081,3.248,-1,3
766,6.11405,3.241,-1,3
767,6.11728,3.234,-1,3
768,6.12051,3.227,-1,3
769,6.12373,3.227,-1,3
770,6.12695,3.219,-1,3
771,6.13017,3.216,-1,3
772,6.13338,3.213,-1,3
773,6.13659,3.209,-1,3
774,6.13980,3.209,-1,3
775,6.14301,3.207,-1,3
776,6.14621,3.207,-1,3
777,6.14943,3.211,-1,3
778,6.15584,3.207,-1,3
779,6.15905,3.212,-1,3
780,6.16227,3.215,-1,3
781,6.16549,3.221,-1,3
782,6.16872,3.226,-1,3
783,6.17195,3.233,-1,3
784,6.17518,3.234,-1,3
785,6.17843,3.248,-1,3
786,6.18168,3.254,-1,3
787,6.18495,3.265,-1,3
788,6.18822,3.274,-1,3
789,6.19151,3.285,-1,3
790,6.19481,3.296,-1,3
791,6.19811,3.310,-1,3
792,6.20144,3.327,-1,3
793,6.20478,3.342,-1,3
794,6.20814,3.359,-1,3
795,6.21152,3.374,-1,3
796,6.21491,3.393,-1,3
797,6.21832,3.412,-1,3
798,6.22176,3.434,-1,3
799,6.22521,3.455,-1,3
800,6.22869,3.477,-1,3
801,6.23219,3.500,-1,3
802,6.23571,3.523,-1,3
803,6.23926,3.548,-1,3
804,6.24283,3.573,-1,3
805,6.24643,3.601,-1,3
806,6.25006,3.657,-1,3
807,6.25740,3.685,-1,3
808,6.26111,3.709,-1,3
809,6.26485,3.741,-1,3
810,6.26862,3.773,-1,3
811,6.27243,3.802,-1,3
812,6.27626,3.835,-1,3
813,6.28013,3.866,-1,3
814,6.28403,3.900,-1,3
815,6.28796,3.931,-1,3
816,6.29192,3.964,-1,3
817,6.29592,4.000,-1,3
818,6.29995,4.032,-1,3
819,6.30402,4.067,-1,3
820,6.30812,4.099,-1,3
821,6.31225,4.134,-1,3
822,6.31642,4.164,-1,3
823,6.32062,4.199,-1,3
824,6.32485,4.231,-1,3
825,6.32911,4.265,-1,3
826,6.33341,4.295,-1,3
827,6.33774,4.331,-1,3
828,6.34210,4.360,-1,3
829,6.34649,4.391,-1,3
830,6.35091,4.421,-1,3
831,6.35537,4.456,-1,3
832,6.35985,4.487,-1,3
833,6.36437,4.518,-1,3
834,6.36892,4.573,-1,3
835,6.37809,4.604,-1,3
836,6.38273,4.636,-1,3
837,6.38739,4.657,-1,3
838,6.39207,4.681,-1,3
839,6.39678,4.710,-1,3
840,6.40151,4.737,-1,3
841,6.40627,4.760,-1,3
842,6.41106,4.781,-1,3
843,6.41586,4.805,-1,3
844,6.42068,4.824,-1,3
845,6.42553,4.851,-1,3
846,6.43040,4.867,-1,3
847,6.43529,4.885,-1,3
848,6.44019,4.903,-1,3
849,6.44511,4.922,-1,3
850,6.45005,4.935,-1,3
851,6.45500,4.952,-1,3
852,6.45996,4.961,-1,3
853,6.46493,4.972,-1,3
854,6.46992,4.987,-1,3
855,6.47492,5.000,-1,3
856,6.47992,5.007,-1,3
857,6.48494,5.013,-1,3
858,6.48996,5.021,-1,3
859,6.49499,5.031,-1,3
860,6.50003,5.041,-1,3
861,6.50508,5.045,-1,3
862,6.51013,5.052,-1,3
863,6.51518,5.055,-1,3
864,6.52024,5.058,-1,3
865,6.53037,5.066,-1,3
866,6.53543,5.064,-1,3
867,6.54049,5.063,-1,3
868,6.54556,5.061,-1,3
869,6.55061,5.058,-1,3
870,6.55567,5.058,-1,3
871,6.56073,5.061,-1,3
872,6.56579,5.054,-1,3
873,6.57083,5.047,-1,3
