cnt,pos,speed,Dir,Force,
1,4.13426,1.024,-1,3
2,4.13531,1.055,-1,3
3,4.13639,1.080,-1,3
4,4.13750,1.103,-1,3
5,4.13863,1.132,-1,3
6,4.13980,1.169,-1,3
7,4.14100,1.202,-1,3
8,4.14222,1.221,-1,3
9,4.14346,1.243,-1,3
10,4.14474,1.275,-1,3
11,4.14605,1.314,-1,3
12,4.14739,1.342,-1,3
13,4.14876,1.364,-1,3
14,4.15015,1.392,-1,3
15,4.15158,1.426,-1,3
16,4.15303,1.454,-1,3
17,4.15451,1.483,-1,3
18,4.15603,1.514,-1,3
19,4.15757,1.543,-1,3
20,4.15914,1.570,-1,3
21,4.16074,1.599,-1,3
22,4.16237,1.629,-1,3
23,4.16403,1.660,-1,3
24,4.16572,1.691,-1,3
25,4.16743,1.713,-1,3
26,4.16917,1.737,-1,3
27,4.17094,1.773,-1,3
28,4.17275,1.807,-1,3
29,4.17458,1.847,-1,3
30,4.17830,1.877,-1,3
31,4.18022,1.918,-1,3
32,4.18216,1.942,-1,3
33,4.18412,1.956,-1,3
34,4.18610,1.979,-1,3
35,4.18812,2.018,-1,3
36,4.19017,2.051,-1,3
37,4.19223,2.062,-1,3
38,4.19430,2.075,-1,3
39,4.19641,2.108,-1,3
40,4.19856,2.145,-1,3
41,4.20072,2.161,-1,3
42,4.20289,2.170,-1,3
43,4.20508,2.190,-1,3
44,4.20730,2.222,-1,3
45,4.20955,2.251,-1,3
46,4.21181,2.261,-1,3
47,4.21408,2.269,-1,3
48,4.21637,2.291,-1,3
49,4.21869,2.320,-1,3
50,4.22103,2.340,-1,3
51,4.22338,2.345,-1,3
52,4.22573,2.355,-1,3
53,4.22811,2.377,-1,3
54,4.23051,2.398,-1,3
55,4.23292,2.413,-1,3
56,4.23534,2.419,-1,3
57,4.23777,2.430,-1,3
58,4.24021,2.445,-1,3
59,4.24268,2.462,-1,3
60,4.24515,2.473,-1,3
61,4.24763,2.479,-1,3
62,4.25012,2.487,-1,3
63,4.25513,2.512,-1,3
64,4.25765,2.519,-1,3
65,4.26017,2.523,-1,3
66,4.26270,2.528,-1,3
67,4.26523,2.533,-1,3
68,4.26777,2.544,-1,3
69,4.27033,2.551,-1,3
70,4.27288,2.551,-1,3
71,4.27543,2.553,-1,3
72,4.27799,2.558,-1,3
73,4.28055,2.562,-1,3
74,4.28312,2.568,-1,3
75,4.28569,2.569,-1,3
76,4.28825,2.565,-1,3
77,4.29081,2.565,-1,3
78,4.29338,2.569,-1,3
79,4.29596,2.573,-1,3
80,4.29853,2.572,-1,3
81,4.30110,2.570,-1,3
82,4.30366,2.564,-1,3
83,4.30623,2.564,-1,3
84,4.30879,2.565,-1,3
85,4.31135,2.563,-1,3
86,4.31392,2.561,-1,3
87,4.31647,2.557,-1,3
88,4.31902,2.549,-1,3
89,4.32157,2.545,-1,3
90,4.32411,2.546,-1,3
91,4.32665,2.540,-1,3
92,4.32919,2.533,-1,3
93,4.33423,2.519,-1,3
94,4.33674,2.512,-1,3
95,4.33925,2.508,-1,3
96,4.34175,2.501,-1,3
97,4.34424,2.491,-1,3
98,4.34672,2.481,-1,3
99,4.34920,2.477,-1,3
100,4.35167,2.467,-1,3
101,4.35413,2.458,-1,3
102,4.35658,2.449,-1,3
103,4.35901,2.435,-1,3
104,4.36144,2.428,-1,3
105,4.36386,2.420,-1,3
106,4.36627,2.409,-1,3
107,4.36867,2.399,-1,3
108,4.37106,2.389,-1,3
109,4.37343,2.378,-1,3
110,4.37580,2.364,-1,3
111,4.37815,2.358,-1,3
112,4.38050,2.348,-1,3
113,4.38283,2.333,-1,3
114,4.38516,2.320,-1,3
115,4.38747,2.312,-1,3
116,4.38977,2.298,-1,3
117,4.39205,2.287,-1,3
118,4.39433,2.277,-1,3
119,4.39659,2.264,-1,3
120,4.39884,2.239,-1,3
121,4.40331,2.229,-1,3
122,4.40552,2.214,-1,3
123,4.40772,2.201,-1,3
124,4.40991,2.191,-1,3
125,4.41209,2.176,-1,3
126,4.41425,2.161,-1,3
127,4.41640,2.153,-1,3
128,4.41855,2.143,-1,3
129,4.42067,2.125,-1,3
130,4.42278,2.110,-1,3
131,4.42488,2.101,-1,3
132,4.42698,2.093,-1,3
133,4.42905,2.076,-1,3
134,4.43111,2.061,-1,3
135,4.43316,2.050,-1,3
136,4.43520,2.042,-1,3
137,4.43723,2.026,-1,3
138,4.43924,2.013,-1,3
139,4.44125,2.004,-1,3
140,4.44324,1.991,-1,3
141,4.44522,1.979,-1,3
142,4.44718,1.967,-1,3
143,4.44914,1.959,-1,3
144,4.45302,1.934,-1,3
145,4.45495,1.924,-1,3
146,4.45686,1.915,-1,3
147,4.45876,1.902,-1,3
148,4.46065,1.888,-1,3
149,4.46253,1.884,-1,3
150,4.46441,1.875,-1,3
151,4.46627,1.863,-1,3
152,4.46812,1.850,-1,3
153,4.46996,1.839,-1,3
154,4.47180,1.840,-1,3
155,4.47364,1.834,-1,3
156,4.47545,1.814,-1,3
157,4.47726,1.804,-1,3
158,4.47905,1.799,-1,3
159,4.48086,1.803,-1,3
160,4.48265,1.792,-1,3
161,4.48443,1.777,-1,3
162,4.48619,1.766,-1,3
163,4.48796,1.765,-1,3
164,4.48972,1.765,-1,3
165,4.49148,1.758,-1,3
166,4.49323,1.748,-1,3
167,4.49497,1.739,-1,3
168,4.49670,1.734,-1,3
169,4.49844,1.734,-1,3
170,4.50017,1.733,-1,3
171,4.50189,1.726,-1,3
172,4.50533,1.713,-1,3
173,4.50703,1.708,-1,3
174,4.50874,1.711,-1,3
175,4.51046,1.717,-1,3
176,4.51217,1.706,-1,3
177,4.51386,1.696,-1,3
178,4.51555,1.690,-1,3
179,4.51725,1.697,-1,3
180,4.51896,1.706,-1,3
181,4.52066,1.702,-1,3
182,4.52235,1.687,-1,3
183,4.52403,1.682,-1,3
184,4.52572,1.691,-1,3
185,4.52742,1.706,-1,3
186,4.52913,1.703,-1,3
187,4.53082,1.689,-1,3
188,4.53250,1.684,-1,3
189,4.53419,1.695,-1,3
190,4.53590,1.704,-1,3
191,4.53761,1.709,-1,3
192,4.53931,1.699,-1,3
193,4.54100,1.693,-1,3
194,4.54270,1.703,-1,3
195,4.54441,1.713,-1,3
196,4.54613,1.718,-1,3
197,4.54785,1.718,-1,3
198,4.54957,1.714,-1,3
199,4.55128,1.718,-1,3
200,4.55475,1.737,-1,3
201,4.55649,1.746,-1,3
202,4.55824,1.745,-1,3
203,4.55998,1.746,-1,3
204,4.56173,1.752,-1,3
205,4.56349,1.759,-1,3
206,4.56527,1.779,-1,3
207,4.56706,1.784,-1,3
208,4.56884,1.782,-1,3
209,4.57062,1.784,-1,3
210,4.57242,1.799,-1,3
211,4.57424,1.818,-1,3
212,4.57607,1.830,-1,3
213,4.57790,1.827,-1,3
214,4.57973,1.833,-1,3
215,4.58158,1.849,-1,3
216,4.58345,1.869,-1,3
217,4.58533,1.880,-1,3
218,4.58721,1.885,-1,3
219,4.58911,1.897,-1,3
220,4.59102,1.910,-1,3
221,4.59294,1.925,-1,3
222,4.59489,1.942,-1,3
223,4.59684,1.957,-1,3
224,4.59881,1.975,-1,3
225,4.60079,1.975,-1,3
226,4.60278,1.995,-1,3
227,4.60888,2.046,-1,3
228,4.61094,2.056,-1,3
229,4.61302,2.082,-1,3
230,4.61512,2.103,-1,3
231,4.61724,2.121,-1,3
232,4.61937,2.132,-1,3
233,4.62153,2.152,-1,3
234,4.62370,2.175,-1,3
235,4.62590,2.193,-1,3
236,4.62811,2.216,-1,3
237,4.63035,2.234,-1,3
238,4.63260,2.253,-1,3
239,4.63487,2.275,-1,3
240,4.63717,2.298,-1,3
241,4.63949,2.319,-1,3
242,4.64183,2.340,-1,3
243,4.64419,2.361,-1,3
244,4.64657,2.383,-1,3
245,4.64898,2.406,-1,3
246,4.65141,2.430,-1,3
247,4.65386,2.453,-1,3
248,4.65634,2.472,-1,3
249,4.65883,2.497,-1,3
250,4.66136,2.525,-1,3
251,4.66647,2.566,-1,3
252,4.66906,2.593,-1,3
253,4.67168,2.615,-1,3
254,4.67432,2.641,-1,3
255,4.67698,2.663,-1,3
256,4.67967,2.688,-1,3
257,4.68238,2.709,-1,3
258,4.68512,2.735,-1,3
259,4.68787,2.757,-1,3
260,4.69066,2.783,-1,3
261,4.69346,2.807,-1,3
262,4.69629,2.824,-1,3
263,4.69914,2.854,-1,3
264,4.70202,2.879,-1,3
265,4.70492,2.898,-1,3
266,4.70784,2.925,-1,3
267,4.71079,2.948,-1,3
268,4.71376,2.968,-1,3
269,4.71675,2.994,-1,3
270,4.71977,3.019,-1,3
271,4.72282,3.044,-1,3
272,4.72588,3.067,-1,3
273,4.72897,3.090,-1,3
274,4.73209,3.114,-1,3
275,4.73523,3.139,-1,3
276,4.73839,3.166,-1,3
277,4.74158,3.187,-1,3
278,4.74479,3.211,-1,3
279,4.74803,3.262,-1,3
280,4.75458,3.287,-1,3
281,4.75789,3.312,-1,3
282,4.76122,3.335,-1,3
283,4.76459,3.364,-1,3
284,4.76797,3.386,-1,3
285,4.77138,3.411,-1,3
286,4.77482,3.437,-1,3
287,4.77828,3.463,-1,3
288,4.78177,3.487,-1,3
289,4.78528,3.511,-1,3
290,4.78882,3.536,-1,3
291,4.79238,3.563,-1,3
292,4.79597,3.588,-1,3
293,4.79958,3.609,-1,3
294,4.80322,3.639,-1,3
295,4.80688,3.665,-1,3
296,4.81057,3.686,-1,3
297,4.81428,3.709,-1,3
298,4.81801,3.736,-1,3
299,4.82177,3.760,-1,3
300,4.82555,3.783,-1,3
301,4.82936,3.805,-1,3
302,4.83319,3.828,-1,3
303,4.83704,3.851,-1,3
304,4.84091,3.873,-1,3
305,4.84480,3.891,-1,3
306,4.84871,3.910,-1,3
307,4.85264,3.931,-1,3
308,4.86056,3.970,-1,3
309,4.86455,3.987,-1,3
310,4.86856,4.006,-1,3
311,4.87258,4.023,-1,3
312,4.87662,4.037,-1,3
313,4.88067,4.056,-1,3
314,4.88474,4.070,-1,3
315,4.88883,4.083,-1,3
316,4.89292,4.095,-1,3
317,4.89703,4.109,-1,3
318,4.90115,4.125,-1,3
319,4.90529,4.133,-1,3
320,4.90943,4.144,-1,3
321,4.91359,4.153,-1,3
322,4.91775,4.167,-1,3
323,4.92193,4.175,-1,3
324,4.92611,4.182,-1,3
325,4.93030,4.190,-1,3
326,4.93450,4.201,-1,3
327,4.93871,4.207,-1,3
328,4.94292,4.213,-1,3
329,4.94714,4.223,-1,3
330,4.95137,4.226,-1,3
331,4.95560,4.233,-1,3
332,4.95984,4.239,-1,3
333,4.96409,4.246,-1,3
334,4.96833,4.245,-1,3
335,4.97258,4.251,-1,3
336,4.97684,4.259,-1,3
337,4.98535,4.257,-1,3
338,4.98961,4.258,-1,3
339,4.99387,4.261,-1,3
340,4.99813,4.261,-1,3
341,5.00239,4.262,-1,3
342,5.00665,4.256,-1,3
343,5.01091,4.261,-1,3
344,5.01517,4.261,-1,3
345,5.01943,4.257,-1,3
346,5.02368,4.255,-1,3
347,5.02793,4.249,-1,3
348,5.03218,4.247,-1,3
349,5.03642,4.243,-1,3
350,5.04066,4.238,-1,3
351,5.04490,4.236,-1,3
352,5.04912,4.229,-1,3
353,5.05334,4.220,-1,3
354,5.05756,4.214,-1,3
355,5.06177,4.209,-1,3
356,5.06597,4.198,-1,3
357,5.07016,4.191,-1,3
358,5.07434,4.171,-1,3
359,5.08267,4.161,-1,3
360,5.08682,4.153,-1,3
361,5.09096,4.141,-1,3
362,5.09509,4.131,-1,3
363,5.09921,4.119,-1,3
364,5.10332,4.105,-1,3
365,5.10741,4.093,-1,3
366,5.11149,4.080,-1,3
367,5.11556,4.067,-1,3
368,5.11961,4.054,-1,3
369,5.12365,4.044,-1,3
370,5.12768,4.024,-1,3
371,5.13169,4.009,-1,3
372,5.13568,3.995,-1,3
373,5.13966,3.980,-1,3
374,5.14363,3.967,-1,3
375,5.14758,3.956,-1,3
376,5.15152,3.939,-1,3
377,5.15544,3.919,-1,3
378,5.15935,3.907,-1,3
379,5.16324,3.894,-1,3
380,5.16713,3.882,-1,3
381,5.17099,3.867,-1,3
382,5.17484,3.852,-1,3
383,5.17868,3.835,-1,3
384,5.18250,3.824,-1,3
385,5.18631,3.809,-1,3
386,5.19011,3.777,-1,3
387,5.19765,3.765,-1,3
388,5.20140,3.747,-1,3
389,5.20140,3.734,-1,3
390,5.20885,3.721,-1,3
391,5.21256,3.708,-1,3
392,5.21625,3.688,-1,3
393,5.21992,3.675,-1,3
394,5.22358,3.663,-1,3
395,5.22723,3.648,-1,3
396,5.23087,3.637,-1,3
397,5.23449,3.620,-1,3
398,5.23810,3.606,-1,3
399,5.24169,3.591,-1,3
400,5.24527,3.579,-1,3
401,5.24883,3.565,-1,3
402,5.25238,3.552,-1,3
403,5.25592,3.533,-1,3
404,5.25944,3.521,-1,3
405,5.26294,3.506,-1,3
406,5.26644,3.497,-1,3
407,5.26992,3.478,-1,3
408,5.27338,3.462,-1,3
409,5.27683,3.451,-1,3
410,5.28026,3.434,-1,3
411,5.28369,3.423,-1,3
412,5.28709,3.407,-1,3
413,5.29049,3.392,-1,3
414,5.29723,3.367,-1,3
415,5.30058,3.352,-1,3
416,5.30392,3.340,-1,3
417,5.30724,3.323,-1,3
418,5.31055,3.306,-1,3
419,5.31384,3.293,-1,3
420,5.31713,3.281,-1,3
421,5.32039,3.268,-1,3
422,5.32365,3.251,-1,3
423,5.32688,3.239,-1,3
424,5.33011,3.224,-1,3
425,5.33331,3.206,-1,3
426,5.33651,3.198,-1,3
427,5.33969,3.182,-1,3
428,5.34286,3.169,-1,3
429,5.34601,3.150,-1,3
430,5.34915,3.140,-1,3
431,5.35228,3.128,-1,3
432,5.35539,3.111,-1,3
433,5.35850,3.103,-1,3
434,5.36158,3.087,-1,3
435,5.36465,3.071,-1,3
436,5.36771,3.061,-1,3
437,5.37076,3.049,-1,3
438,5.37380,3.034,-1,3
439,5.37682,3.021,-1,3
440,5.37982,3.006,-1,3
441,5.38282,2.995,-1,3
442,5.38580,2.981,-1,3
443,5.38877,2.969,-1,3
444,5.39467,2.940,-1,3
445,5.39760,2.930,-1,3
446,5.40051,2.918,-1,3
447,5.40342,2.904,-1,3
448,5.40631,2.892,-1,3
449,5.40919,2.878,-1,3
450,5.41205,2.863,-1,3
451,5.41491,2.854,-1,3
452,5.41775,2.840,-1,3
453,5.42057,2.826,-1,3
454,5.42339,2.817,-1,3
455,5.42619,2.803,-1,3
456,5.42898,2.790,-1,3
457,5.43176,2.778,-1,3
458,5.43453,2.767,-1,3
459,5.43728,2.753,-1,3
460,5.44002,2.741,-1,3
461,5.44275,2.727,-1,3
462,5.44547,2.718,-1,3
463,5.44817,2.705,-1,3
464,5.45086,2.693,-1,3
465,5.45355,2.683,-1,3
466,5.45622,2.671,-1,3
467,5.45888,2.659,-1,3
468,5.46153,2.651,-1,3
469,5.46417,2.639,-1,3
470,5.46679,2.627,-1,3
471,5.46941,2.618,-1,3
472,5.47202,2.614,-1,3
473,5.47722,2.596,-1,3
474,5.47982,2.591,-1,3
475,5.48240,2.581,-1,3
476,5.48498,2.580,-1,3
477,5.48755,2.576,-1,3
478,5.49012,2.571,-1,3
479,5.49269,2.570,-1,3
480,5.49526,2.569,-1,3
481,5.49782,2.562,-1,3
482,5.50039,2.567,-1,3
483,5.50296,2.567,-1,3
484,5.50552,2.567,-1,3
485,5.50809,2.570,-1,3
486,5.51067,2.574,-1,3
487,5.51324,2.572,-1,3
488,5.51581,2.572,-1,3
489,5.51840,2.583,-1,3
490,5.52098,2.585,-1,3
491,5.52357,2.589,-1,3
492,5.52617,2.595,-1,3
493,5.52877,2.601,-1,3
494,5.53138,2.610,-1,3
495,5.53400,2.620,-1,3
496,5.53662,2.642,-1,3
497,5.53927,2.657,-1,3
498,5.54192,2.666,-1,3
499,5.54727,2.683,-1,3
500,5.54997,2.702,-1,3
501,5.55269,2.717,-1,3
502,5.55543,2.736,-1,3
503,5.55819,2.761,-1,3
504,5.56097,2.783,-1,3
505,5.56377,2.804,-1,3
506,5.56660,2.830,-1,3
507,5.56946,2.859,-1,3
508,5.57235,2.884,-1,3
509,5.57526,2.913,-1,3
510,5.57820,2.939,-1,3
511,5.58117,2.973,-1,3
512,5.58418,3.003,-1,3
513,5.58721,3.038,-1,3
514,5.59028,3.071,-1,3
515,5.59339,3.105,-1,3
516,5.59653,3.146,-1,3
517,5.59972,3.182,-1,3
518,5.60294,3.219,-1,3
519,5.60620,3.260,-1,3
520,5.60950,3.301,-1,3
521,5.61284,3.345,-1,3
522,5.61623,3.386,-1,3
523,5.61966,3.428,-1,3
524,5.62666,3.524,-1,3
525,5.63023,3.572,-1,3
526,5.63385,3.622,-1,3
527,5.63753,3.672,-1,3
528,5.64125,3.724,-1,3
529,5.64503,3.776,-1,3
530,5.64885,3.826,-1,3
531,5.65273,3.881,-1,3
532,5.65667,3.932,-1,3
533,5.66066,3.990,-1,3
534,5.66470,4.040,-1,3
535,5.66879,4.096,-1,3
536,5.67295,4.154,-1,3
537,5.67716,4.210,-1,3
538,5.68142,4.260,-1,3
539,5.68573,4.315,-1,3
540,5.69010,4.371,-1,3
541,5.69453,4.423,-1,3
542,5.69900,4.478,-1,3
543,5.70353,4.529,-1,3
544,5.70812,4.583,-1,3
545,5.71275,4.635,-1,3
546,5.71744,4.689,-1,3
547,5.72218,4.738,-1,3
548,5.72697,4.791,-1,3
549,5.73181,4.839,-1,3
550,5.73669,4.886,-1,3
551,5.74163,4.934,-1,3
552,5.74661,4.980,-1,3
553,5.75670,5.066,-1,3
554,5.76180,5.107,-1,3
555,5.76695,5.146,-1,3
556,5.77213,5.186,-1,3
557,5.77736,5.221,-1,3
558,5.78261,5.258,-1,3
559,5.78791,5.292,-1,3
560,5.79323,5.325,-1,3
561,5.79859,5.357,-1,3
562,5.80398,5.389,-1,3
563,5.80939,5.411,-1,3
564,5.81483,5.441,-1,3
565,5.82029,5.465,-1,3
566,5.82579,5.493,-1,3
567,5.83130,5.511,-1,3
568,5.83683,5.528,-1,3
569,5.84238,5.552,-1,3
570,5.84795,5.573,-1,3
571,5.85354,5.589,-1,3
572,5.85914,5.604,-1,3
573,5.86476,5.619,-1,3
574,5.87039,5.631,-1,3
575,5.87604,5.649,-1,3
576,5.88170,5.658,-1,3
577,5.88737,5.672,-1,3
578,5.89305,5.676,-1,3
579,5.89873,5.687,-1,3
580,5.90443,5.694,-1,3
581,5.91583,5.704,-1,3
582,5.92154,5.706,-1,3
583,5.92725,5.711,-1,3
584,5.93297,5.714,-1,3
585,5.93868,5.713,-1,3
586,5.94439,5.710,-1,3
587,5.95010,5.712,-1,3
588,5.95581,5.708,-1,3
589,5.96151,5.701,-1,3
590,5.96721,5.695,-1,3
591,5.97290,5.693,-1,3
592,5.97858,5.682,-1,3
593,5.98426,5.677,-1,3
594,5.98991,5.658,-1,3
595,5.99557,5.652,-1,3
596,6.00120,5.638,-1,3
597,6.00683,5.628,-1,3
598,6.01244,5.614,-1,3
599,6.01804,5.594,-1,3
600,6.02362,5.583,-1,3
601,6.02919,5.570,-1,3
602,6.03475,5.554,-1,3
603,6.04028,5.537,-1,3
604,6.04581,5.523,-1,3
605,6.05131,5.504,-1,3
606,6.05680,5.489,-1,3
607,6.06227,5.473,-1,3
608,6.06773,5.460,-1,3
609,6.07860,5.428,-1,3
610,6.08402,5.415,-1,3
611,6.08942,5.403,-1,3
612,6.09480,5.382,-1,3
613,6.10016,5.363,-1,3
614,6.10552,5.350,-1,3
615,6.11085,5.336,-1,3
616,6.11617,5.321,-1,3
617,6.12147,5.302,-1,3
618,6.12676,5.286,-1,3
619,6.13203,5.266,-1,3
620,6.13728,5.252,-1,3
621,6.14252,5.239,-1,3
622,6.14774,5.225,-1,3
623,6.15295,5.207,-1,3
624,6.15814,5.190,-1,3
625,6.16331,5.171,-1,3
626,6.16847,5.157,-1,3
627,6.17361,5.141,-1,3
628,6.17874,5.128,-1,3
629,6.18385,5.111,-1,3
630,6.18894,5.090,-1,3
631,6.19401,5.076,-1,3
632,6.19908,5.065,-1,3
633,6.20412,5.046,-1,3
634,6.20915,5.030,-1,3
635,6.21417,5.016,-1,3
636,6.21917,4.999,-1,3
637,6.22416,4.986,-1,3
638,6.23409,4.961,-1,3
639,6.23903,4.942,-1,3
640,6.24395,4.924,-1,3
641,6.24887,4.911,-1,3
642,6.25377,4.900,-1,3
643,6.25865,4.884,-1,3
644,6.26352,4.869,-1,3
645,6.26837,4.849,-1,3
646,6.27320,4.830,-1,3
647,6.27802,4.820,-1,3
648,6.28283,4.809,-1,3
649,6.28762,4.793,-1,3
650,6.29240,4.776,-1,3
651,6.29716,4.762,-1,3
652,6.30190,4.745,-1,3
653,6.30664,4.734,-1,3
654,6.31136,4.725,-1,3
655,6.31607,4.709,-1,3
656,6.32076,4.689,-1,3
657,6.32543,4.673,-1,3
658,6.33009,4.658,-1,3
659,6.33474,4.651,-1,3
660,6.33937,4.634,-1,3
661,6.34399,4.614,-1,3
662,6.34859,4.598,-1,3
663,6.35775,4.573,-1,3
664,6.36231,4.564,-1,3
665,6.36686,4.551,-1,3
666,6.37140,4.532,-1,3
667,6.37591,4.514,-1,3
668,6.38041,4.505,-1,3
669,6.38491,4.494,-1,3
670,6.38939,4.478,-1,3
671,6.39385,4.462,-1,3
672,6.39829,4.444,-1,3
673,6.40273,4.433,-1,3
674,6.40715,4.421,-1,3
675,6.41155,4.406,-1,3
676,6.41594,4.391,-1,3
677,6.42032,4.377,-1,3
678,6.42468,4.362,-1,3
679,6.42903,4.348,-1,3
680,6.43337,4.336,-1,3
681,6.43769,4.325,-1,3
682,6.44200,4.305,-1,3
683,6.44629,4.292,-1,3
684,6.45057,4.279,-1,3
685,6.45483,4.264,-1,3
686,6.45908,4.249,-1,3
687,6.46332,4.235,-1,3
688,6.46754,4.219,-1,3
689,6.47174,4.203,-1,3
690,6.47593,4.191,-1,3
691,6.48011,4.176,-1,3
692,6.48427,4.161,-1,3
693,6.48841,4.132,-1,3
694,6.49254,4.117,-1,3
695,6.50076,4.101,-1,3
696,6.50485,4.089,-1,3
697,6.50893,4.077,-1,3
698,6.51298,4.057,-1,3
699,6.51703,4.042,-1,3
700,6.52106,4.033,-1,3
701,6.52507,4.013,-1,3
702,6.52908,4.003,-1,3
703,6.53306,3.985,-1,3
704,6.53704,3.975,-1,3
705,6.54099,3.955,-1,3
706,6.54493,3.940,-1,3
707,6.54886,3.926,-1,3
708,6.55277,3.910,-1,3
709,6.55666,3.895,-1,3
710,6.56054,3.881,-1,3
711,6.56441,3.868,-1,3
712,6.56826,3.852,-1,3
713,6.57210,3.835,-1,3
714,6.57592,3.822,-1,3
715,6.57973,3.810,-1,3
716,6.58353,3.795,-1,3
717,6.58731,3.781,-1,3
718,6.59107,3.761,-1,3
719,6.59482,3.752,-1,3
720,6.59856,3.735,-1,3
721,6.60228,3.703,-1,3
722,6.60967,3.691,-1,3
723,6.61335,3.676,-1,3
724,6.61701,3.663,-1,3
725,6.62066,3.648,-1,3
726,6.62429,3.629,-1,3
727,6.62790,3.617,-1,3
728,6.63151,3.605,-1,3
729,6.63510,3.591,-1,3
730,6.63867,3.572,-1,3
731,6.64223,3.561,-1,3
732,6.64578,3.545,-1,3
733,6.64931,3.533,-1,3
734,6.65283,3.521,-1,3
735,6.65634,3.505,-1,3
736,6.65983,3.490,-1,3
737,6.66331,3.478,-1,3
738,6.66677,3.463,-1,3
739,6.67022,3.450,-1,3
740,6.67365,3.436,-1,3
741,6.67707,3.419,-1,3
742,6.68048,3.406,-1,3
743,6.68388,3.396,-1,3
744,6.68726,3.382,-1,3
745,6.69063,3.368,-1,3
746,6.69398,3.353,-1,3
747,6.69732,3.338,-1,3
748,6.70064,3.327,-1,3
749,6.70396,3.316,-1,3
750,6.70727,3.292,-1,3
751,6.71383,3.276,-1,3
752,6.71710,3.265,-1,3
753,6.72035,3.255,-1,3
754,6.72360,3.241,-1,3
755,6.72683,3.234,-1,3
756,6.73005,3.218,-1,3
757,6.73325,3.206,-1,3
758,6.73645,3.201,-1,3
759,6.73964,3.189,-1,3
760,6.74282,3.183,-1,3
761,6.74600,3.175,-1,3
762,6.74917,3.166,-1,3
763,6.75233,3.162,-1,3
764,6.75549,3.161,-1,3
765,6.75864,3.155,-1,3
766,6.76180,3.158,-1,3
767,6.76496,3.158,-1,3
768,6.76813,3.167,-1,3
769,6.77130,3.173,-1,3
770,6.77448,3.186,-1,3
771,6.77768,3.194,-1,3
772,6.78089,3.216,-1,3
773,6.78413,3.236,-1,3
774,6.78739,3.262,-1,3
775,6.79068,3.292,-1,3
776,6.79401,3.322,-1,3
777,6.79737,3.360,-1,3
778,6.80077,3.399,-1,3
779,6.80420,3.432,-1,3
780,6.80767,3.473,-1,3
781,6.81118,3.550,-1,3
782,6.81473,3.592,-1,3
783,6.82196,3.636,-1,3
784,6.82564,3.682,-1,3
785,6.82937,3.732,-1,3
786,6.83316,3.787,-1,3
787,6.83700,3.842,-1,3
788,6.84090,3.899,-1,3
789,6.84486,3.962,-1,3
790,6.84888,4.024,-1,3
791,6.85297,4.087,-1,3
792,6.85712,4.145,-1,3
793,6.86132,4.200,-1,3
794,6.86558,4.260,-1,3
795,6.86990,4.325,-1,3
796,6.87430,4.393,-1,3
797,6.87876,4.464,-1,3
798,6.88329,4.533,-1,3
799,6.88790,4.606,-1,3
800,6.89258,4.676,-1,3
801,6.89733,4.751,-1,3
802,6.90215,4.822,-1,3
803,6.90704,4.894,-1,3
804,6.91200,4.959,-1,3
805,6.91703,5.030,-1,3
806,6.92213,5.099,-1,3
807,6.92730,5.174,-1,3
808,6.93787,5.320,-1,3
809,6.94326,5.389,-1,3
810,6.94873,5.464,-1,3
811,6.95427,5.542,-1,3
812,6.95988,5.611,-1,3
813,6.96555,5.676,-1,3
814,6.97129,5.734,-1,3
815,6.97709,5.801,-1,3
816,6.98296,5.869,-1,3
817,6.98889,5.936,-1,3
818,6.99489,5.998,-1,3
819,7.00095,6.059,-1,3
820,7.00707,6.115,-1,3
821,7.01324,6.174,-1,3
822,7.01947,6.230,-1,3
823,7.02575,6.278,-1,3
824,7.03207,6.317,-1,3
825,7.03842,6.356,-1,3
826,7.04482,6.398,-1,3
827,7.05125,6.432,-1,3
828,7.05772,6.468,-1,3
829,7.06421,6.495,-1,3
830,7.07074,6.525,-1,3
831,7.07729,6.552,-1,3
832,7.08387,6.580,-1,3
833,7.09047,6.601,-1,3
834,7.09709,6.619,-1,3
835,7.10373,6.635,-1,3
836,7.11038,6.655,-1,3
837,7.11705,6.670,-1,3
838,7.12373,6.689,-1,3
839,7.13712,6.695,-1,3
840,7.14382,6.705,-1,3
841,7.15053,6.712,-1,3
842,7.15724,6.710,-1,3
843,7.16395,6.708,-1,3
844,7.17067,6.716,-1,3
845,7.17738,6.712,-1,3
846,7.18409,6.708,-1,3
847,7.19079,6.705,-1,3
848,7.19750,6.703,-1,3
849,7.20419,6.696,-1,3
850,7.21089,6.693,-1,3
851,7.21758,6.692,-1,3
852,7.22426,6.686,-1,3
853,7.23094,6.674,-1,3
854,7.23760,6.665,-1,3
855,7.24426,6.653,-1,3
856,7.25090,6.643,-1,3
857,7.25753,6.635,-1,3
858,7.26416,6.622,-1,3
859,7.27076,6.606,-1,3
860,7.27736,6.594,-1,3
861,7.28394,6.584,-1,3
862,7.29051,6.570,-1,3
863,7.29707,6.558,-1,3
864,7.30361,6.542,-1,3
865,7.31014,6.529,-1,3
866,7.31665,6.511,-1,3
867,7.32315,6.500,-1,3
868,7.32963,6.481,-1,3
869,7.33610,6.471,-1,3
870,7.34256,6.454,-1,3
871,7.35542,6.428,-1,3
872,7.36184,6.417,-1,3
873,7.36824,6.397,-1,3
