cnt,pos,speed,Dir,Force,
1,3.94069,1.020,-1,3
2,3.94174,1.049,-1,3
3,3.94281,1.070,-1,3
4,3.94390,1.088,-1,3
5,3.94500,1.107,-1,3
6,3.94614,1.133,-1,3
7,3.94730,1.164,-1,3
8,3.94849,1.187,-1,3
9,3.94969,1.201,-1,3
10,3.95092,1.226,-1,3
11,3.95217,1.254,-1,3
12,3.95346,1.286,-1,3
13,3.95475,1.298,-1,3
14,3.95607,1.318,-1,3
15,3.95742,1.349,-1,3
16,3.95880,1.379,-1,3
17,3.96020,1.403,-1,3
18,3.96162,1.421,-1,3
19,3.96307,1.442,-1,3
20,3.96453,1.467,-1,3
21,3.96603,1.501,-1,3
22,3.96756,1.528,-1,3
23,3.96911,1.544,-1,3
24,3.97067,1.561,-1,3
25,3.97226,1.592,-1,3
26,3.97388,1.620,-1,3
27,3.97553,1.647,-1,3
28,3.97887,1.680,-1,3
29,3.98058,1.709,-1,3
30,3.98232,1.740,-1,3
31,3.98409,1.766,-1,3
32,3.98586,1.779,-1,3
33,3.98766,1.799,-1,3
34,3.98949,1.822,-1,3
35,3.99134,1.857,-1,3
36,3.99322,1.878,-1,3
37,3.99511,1.890,-1,3
38,3.99702,1.907,-1,3
39,3.99895,1.933,-1,3
40,4.00092,1.965,-1,3
41,4.00290,1.983,-1,3
42,4.00489,1.994,-1,3
43,4.00690,2.009,-1,3
44,4.00894,2.037,-1,3
45,4.01100,2.062,-1,3
46,4.01308,2.080,-1,3
47,4.01517,2.088,-1,3
48,4.01727,2.104,-1,3
49,4.01940,2.128,-1,3
50,4.02155,2.150,-1,3
51,4.02372,2.165,-1,3
52,4.02589,2.172,-1,3
53,4.02807,2.187,-1,3
54,4.03028,2.208,-1,3
55,4.03251,2.224,-1,3
56,4.03474,2.235,-1,3
57,4.03698,2.242,-1,3
58,4.03924,2.259,-1,3
59,4.04152,2.285,-1,3
60,4.04380,2.294,-1,3
61,4.04610,2.306,-1,3
62,4.05072,2.315,-1,3
63,4.05304,2.321,-1,3
64,4.05537,2.334,-1,3
65,4.05772,2.347,-1,3
66,4.06007,2.350,-1,3
67,4.06242,2.354,-1,3
68,4.06479,2.367,-1,3
69,4.06717,2.377,-1,3
70,4.06954,2.376,-1,3
71,4.07192,2.383,-1,3
72,4.07431,2.389,-1,3
73,4.07671,2.393,-1,3
74,4.07910,2.398,-1,3
75,4.08151,2.401,-1,3
76,4.08391,2.400,-1,3
77,4.08631,2.407,-1,3
78,4.08873,2.413,-1,3
79,4.09114,2.411,-1,3
80,4.09354,2.407,-1,3
81,4.09596,2.419,-1,3
82,4.09838,2.418,-1,3
83,4.10079,2.414,-1,3
84,4.10321,2.413,-1,3
85,4.10563,2.418,-1,3
86,4.11046,2.415,-1,3
87,4.11287,2.412,-1,3
88,4.11528,2.411,-1,3
89,4.11769,2.407,-1,3
90,4.12009,2.408,-1,3
91,4.12250,2.407,-1,3
92,4.12490,2.401,-1,3
93,4.12730,2.398,-1,3
94,4.12969,2.394,-1,3
95,4.13208,2.390,-1,3
96,4.13447,2.387,-1,3
97,4.13686,2.386,-1,3
98,4.13923,2.375,-1,3
99,4.14160,2.370,-1,3
100,4.14398,2.374,-1,3
101,4.14634,2.365,-1,3
102,4.14869,2.354,-1,3
103,4.15105,2.352,-1,3
104,4.15339,2.347,-1,3
105,4.15573,2.339,-1,3
106,4.15807,2.334,-1,3
107,4.16040,2.330,-1,3
108,4.16272,2.322,-1,3
109,4.16503,2.313,-1,3
110,4.16734,2.306,-1,3
111,4.16964,2.300,-1,3
112,4.17193,2.294,-1,3
113,4.17422,2.287,-1,3
114,4.17649,2.277,-1,3
115,4.17876,2.267,-1,3
116,4.18328,2.255,-1,3
117,4.18553,2.246,-1,3
118,4.18776,2.234,-1,3
119,4.18999,2.231,-1,3
120,4.19221,2.220,-1,3
121,4.19442,2.208,-1,3
122,4.19662,2.199,-1,3
123,4.19881,2.196,-1,3
124,4.20099,2.182,-1,3
125,4.20316,2.169,-1,3
126,4.20533,2.163,-1,3
127,4.20748,2.154,-1,3
128,4.20962,2.143,-1,3
129,4.21175,2.130,-1,3
130,4.21388,2.122,-1,3
131,4.21599,2.111,-1,3
132,4.21809,2.102,-1,3
133,4.22018,2.093,-1,3
134,4.22226,2.079,-1,3
135,4.22433,2.068,-1,3
136,4.22639,2.058,-1,3
137,4.22844,2.051,-1,3
138,4.23047,2.037,-1,3
139,4.23250,2.025,-1,3
140,4.23451,2.015,-1,3
141,4.23652,1.994,-1,3
142,4.24050,1.984,-1,3
143,4.24247,1.970,-1,3
144,4.24443,1.961,-1,3
145,4.24638,1.951,-1,3
146,4.24832,1.940,-1,3
147,4.25025,1.927,-1,3
148,4.25216,1.916,-1,3
149,4.25407,1.904,-1,3
150,4.25596,1.893,-1,3
151,4.25784,1.880,-1,3
152,4.25971,1.873,-1,3
153,4.26158,1.861,-1,3
154,4.26342,1.846,-1,3
155,4.26526,1.838,-1,3
156,4.26709,1.830,-1,3
157,4.26891,1.817,-1,3
158,4.27071,1.806,-1,3
159,4.27251,1.793,-1,3
160,4.27429,1.788,-1,3
161,4.27607,1.776,-1,3
162,4.27784,1.767,-1,3
163,4.27959,1.752,-1,3
164,4.28133,1.743,-1,3
165,4.28307,1.741,-1,3
166,4.28652,1.718,-1,3
167,4.28822,1.703,-1,3
168,4.28992,1.697,-1,3
169,4.29161,1.695,-1,3
170,4.29330,1.688,-1,3
171,4.29498,1.674,-1,3
172,4.29664,1.663,-1,3
173,4.29829,1.656,-1,3
174,4.29995,1.653,-1,3
175,4.30160,1.649,-1,3
176,4.30323,1.638,-1,3
177,4.30486,1.625,-1,3
178,4.30648,1.620,-1,3
179,4.30810,1.617,-1,3
180,4.30971,1.614,-1,3
181,4.31132,1.607,-1,3
182,4.31291,1.596,-1,3
183,4.31450,1.591,-1,3
184,4.31609,1.585,-1,3
185,4.31767,1.582,-1,3
186,4.31925,1.576,-1,3
187,4.32082,1.575,-1,3
188,4.32239,1.570,-1,3
189,4.32395,1.562,-1,3
190,4.32551,1.555,-1,3
191,4.32706,1.552,-1,3
192,4.32861,1.551,-1,3
193,4.33016,1.552,-1,3
194,4.33325,1.536,-1,3
195,4.33478,1.533,-1,3
196,4.33631,1.531,-1,3
197,4.33785,1.537,-1,3
198,4.33939,1.539,-1,3
199,4.34092,1.531,-1,3
200,4.34244,1.520,-1,3
201,4.34396,1.520,-1,3
202,4.34549,1.529,-1,3
203,4.34702,1.532,-1,3
204,4.34856,1.536,-1,3
205,4.35008,1.523,-1,3
206,4.35160,1.520,-1,3
207,4.35313,1.528,-1,3
208,4.35467,1.544,-1,3
209,4.35621,1.543,-1,3
210,4.35775,1.538,-1,3
211,4.35929,1.537,-1,3
212,4.36083,1.545,-1,3
213,4.36240,1.563,-1,3
214,4.36396,1.566,-1,3
215,4.36553,1.562,-1,3
216,4.36710,1.570,-1,3
217,4.36868,1.583,-1,3
218,4.37028,1.598,-1,3
219,4.37188,1.601,-1,3
220,4.37348,1.605,-1,3
221,4.37510,1.616,-1,3
222,4.37674,1.653,-1,3
223,4.38005,1.654,-1,3
224,4.38171,1.661,-1,3
225,4.38339,1.682,-1,3
226,4.38510,1.711,-1,3
227,4.38683,1.724,-1,3
228,4.38855,1.728,-1,3
229,4.39029,1.737,-1,3
230,4.39206,1.769,-1,3
231,4.39386,1.798,-1,3
232,4.39567,1.809,-1,3
233,4.39748,1.815,-1,3
234,4.39932,1.835,-1,3
235,4.40119,1.874,-1,3
236,4.40309,1.898,-1,3
237,4.40499,1.907,-1,3
238,4.40692,1.924,-1,3
239,4.40887,1.956,-1,3
240,4.41086,1.990,-1,3
241,4.41287,2.008,-1,3
242,4.41490,2.025,-1,3
243,4.41695,2.054,-1,3
244,4.41903,2.084,-1,3
245,4.42114,2.110,-1,3
246,4.42328,2.136,-1,3
247,4.42545,2.167,-1,3
248,4.42764,2.192,-1,3
249,4.42986,2.222,-1,3
250,4.43440,2.289,-1,3
251,4.43672,2.316,-1,3
252,4.43907,2.345,-1,3
253,4.44144,2.377,-1,3
254,4.44386,2.416,-1,3
255,4.44631,2.448,-1,3
256,4.44879,2.480,-1,3
257,4.45130,2.512,-1,3
258,4.45384,2.547,-1,3
259,4.45643,2.585,-1,3
260,4.45905,2.618,-1,3
261,4.46170,2.652,-1,3
262,4.46439,2.689,-1,3
263,4.46711,2.727,-1,3
264,4.46988,2.760,-1,3
265,4.47268,2.800,-1,3
266,4.47551,2.837,-1,3
267,4.47838,2.870,-1,3
268,4.48129,2.910,-1,3
269,4.48424,2.948,-1,3
270,4.48723,2.986,-1,3
271,4.49025,3.021,-1,3
272,4.49331,3.095,-1,3
273,4.49640,3.137,-1,3
274,4.50271,3.172,-1,3
275,4.50592,3.209,-1,3
276,4.50917,3.244,-1,3
277,4.51245,3.282,-1,3
278,4.51577,3.319,-1,3
279,4.51912,3.357,-1,3
280,4.52252,3.391,-1,3
281,4.52594,3.422,-1,3
282,4.52940,3.463,-1,3
283,4.53290,3.494,-1,3
284,4.53642,3.528,-1,3
285,4.53998,3.560,-1,3
286,4.54357,3.590,-1,3
287,4.54719,3.618,-1,3
288,4.55084,3.651,-1,3
289,4.55453,3.682,-1,3
290,4.55823,3.708,-1,3
291,4.56197,3.734,-1,3
292,4.56572,3.755,-1,3
293,4.56951,3.784,-1,3
294,4.57332,3.810,-1,3
295,4.57715,3.832,-1,3
296,4.58100,3.855,-1,3
297,4.58488,3.875,-1,3
298,4.58878,3.898,-1,3
299,4.59269,3.917,-1,3
300,4.59663,3.961,-1,3
301,4.60457,3.978,-1,3
302,4.60857,3.996,-1,3
303,4.61258,4.012,-1,3
304,4.61662,4.035,-1,3
305,4.62066,4.046,-1,3
306,4.62472,4.064,-1,3
307,4.62880,4.077,-1,3
308,4.63290,4.093,-1,3
309,4.63700,4.108,-1,3
310,4.64112,4.120,-1,3
311,4.64525,4.131,-1,3
312,4.64940,4.142,-1,3
313,4.65355,4.154,-1,3
314,4.65772,4.169,-1,3
315,4.66190,4.180,-1,3
316,4.66609,4.191,-1,3
317,4.67029,4.202,-1,3
318,4.67450,4.209,-1,3
319,4.67872,4.221,-1,3
320,4.68295,4.231,-1,3
321,4.68719,4.239,-1,3
322,4.69144,4.248,-1,3
323,4.69570,4.256,-1,3
324,4.69996,4.263,-1,3
325,4.70423,4.273,-1,3
326,4.70851,4.278,-1,3
327,4.71280,4.291,-1,3
328,4.72139,4.299,-1,3
329,4.72569,4.305,-1,3
330,4.73000,4.308,-1,3
331,4.73432,4.318,-1,3
332,4.73864,4.319,-1,3
333,4.74296,4.322,-1,3
334,4.74729,4.329,-1,3
335,4.75162,4.330,-1,3
336,4.75595,4.329,-1,3
337,4.76028,4.335,-1,3
338,4.76462,4.334,-1,3
339,4.76895,4.336,-1,3
340,4.77328,4.334,-1,3
341,4.77762,4.334,-1,3
342,4.78195,4.333,-1,3
343,4.78629,4.335,-1,3
344,4.79062,4.330,-1,3
345,4.79494,4.328,-1,3
346,4.79927,4.323,-1,3
347,4.80359,4.323,-1,3
348,4.80791,4.321,-1,3
349,4.81223,4.320,-1,3
350,4.81654,4.311,-1,3
351,4.82515,4.304,-1,3
352,4.82945,4.293,-1,3
353,4.83374,4.291,-1,3
354,4.83802,4.282,-1,3
355,4.84230,4.277,-1,3
356,4.84656,4.265,-1,3
357,4.85082,4.259,-1,3
358,4.85507,4.247,-1,3
359,4.85931,4.242,-1,3
360,4.86354,4.231,-1,3
361,4.86776,4.217,-1,3
362,4.87197,4.213,-1,3
363,4.87617,4.202,-1,3
364,4.88037,4.193,-1,3
365,4.88454,4.178,-1,3
366,4.88871,4.170,-1,3
367,4.89287,4.155,-1,3
368,4.89701,4.145,-1,3
369,4.90115,4.133,-1,3
370,4.90527,4.121,-1,3
371,4.90937,4.106,-1,3
372,4.91347,4.091,-1,3
373,4.91754,4.079,-1,3
374,4.92161,4.067,-1,3
375,4.92566,4.054,-1,3
376,4.92970,4.037,-1,3
377,4.93372,4.019,-1,3
378,4.93773,3.995,-1,3
379,4.94571,3.982,-1,3
380,4.94968,3.969,-1,3
381,4.95363,3.952,-1,3
382,4.95757,3.938,-1,3
383,4.96149,3.923,-1,3
384,4.96540,3.913,-1,3
385,4.96930,3.896,-1,3
386,4.97318,3.880,-1,3
387,4.97705,3.868,-1,3
388,4.98090,3.841,-1,3
389,4.98474,3.841,-1,3
390,4.98857,3.824,-1,3
391,4.99238,3.811,-1,3
392,4.99618,3.799,-1,3
393,4.99996,3.784,-1,3
394,5.00373,3.770,-1,3
395,5.00748,3.753,-1,3
396,5.01123,3.743,-1,3
397,5.01495,3.727,-1,3
398,5.01867,3.716,-1,3
399,5.02237,3.699,-1,3
400,5.02605,3.684,-1,3
401,5.02973,3.673,-1,3
402,5.03338,3.657,-1,3
403,5.03703,3.644,-1,3
404,5.04066,3.630,-1,3
405,5.04427,3.616,-1,3
406,5.04787,3.602,-1,3
407,5.05503,3.572,-1,3
408,5.05859,3.559,-1,3
409,5.06214,3.545,-1,3
410,5.06567,3.530,-1,3
411,5.06918,3.515,-1,3
412,5.07268,3.499,-1,3
413,5.07617,3.489,-1,3
414,5.07965,3.476,-1,3
415,5.08310,3.457,-1,3
416,5.08655,3.445,-1,3
417,5.08998,3.431,-1,3
418,5.09340,3.417,-1,3
419,5.09680,3.405,-1,3
420,5.10019,3.388,-1,3
421,5.10357,3.376,-1,3
422,5.10693,3.360,-1,3
423,5.11027,3.348,-1,3
424,5.11361,3.331,-1,3
425,5.11693,3.320,-1,3
426,5.12023,3.305,-1,3
427,5.12352,3.290,-1,3
428,5.12680,3.275,-1,3
429,5.13006,3.262,-1,3
430,5.13331,3.247,-1,3
431,5.13654,3.233,-1,3
432,5.13976,3.217,-1,3
433,5.14296,3.207,-1,3
434,5.14615,3.190,-1,3
435,5.14933,3.177,-1,3
436,5.15564,3.150,-1,3
437,5.15878,3.135,-1,3
438,5.16190,3.121,-1,3
439,5.16501,3.109,-1,3
440,5.16810,3.093,-1,3
441,5.17118,3.082,-1,3
442,5.17425,3.065,-1,3
443,5.17730,3.050,-1,3
444,5.18034,3.040,-1,3
445,5.18337,3.027,-1,3
446,5.18638,3.010,-1,3
447,5.18937,2.995,-1,3
448,5.19235,2.980,-1,3
449,5.19532,2.966,-1,3
450,5.19827,2.955,-1,3
451,5.20121,2.940,-1,3
452,5.20414,2.926,-1,3
453,5.20705,2.910,-1,3
454,5.20994,2.896,-1,3
455,5.21283,2.883,-1,3
456,5.21569,2.866,-1,3
457,5.21855,2.843,-1,3
458,5.22422,2.824,-1,3
459,5.22703,2.815,-1,3
460,5.22983,2.801,-1,3
461,5.23262,2.785,-1,3
462,5.23539,2.774,-1,3
463,5.23815,2.759,-1,3
464,5.24090,2.745,-1,3
465,5.24363,2.731,-1,3
466,5.24635,2.718,-1,3
467,5.24905,2.705,-1,3
468,5.25174,2.691,-1,3
469,5.25442,2.674,-1,3
470,5.25708,2.664,-1,3
471,5.25973,2.652,-1,3
472,5.26236,2.632,-1,3
473,5.26499,2.624,-1,3
474,5.26760,2.609,-1,3
475,5.27019,2.595,-1,3
476,5.27277,2.582,-1,3
477,5.27535,2.572,-1,3
478,5.27790,2.557,-1,3
479,5.28044,2.541,-1,3
480,5.28297,2.528,-1,3
481,5.28549,2.517,-1,3
482,5.28799,2.502,-1,3
483,5.29048,2.491,-1,3
484,5.29296,2.477,-1,3
485,5.29542,2.465,-1,3
486,5.30032,2.442,-1,3
487,5.30032,2.428,-1,3
488,5.30275,2.417,-1,3
489,5.30757,2.401,-1,3
490,5.30996,2.390,-1,3
491,5.31234,2.379,-1,3
492,5.31471,2.371,-1,3
493,5.31706,2.356,-1,3
494,5.31941,2.348,-1,3
495,5.32175,2.337,-1,3
496,5.32407,2.326,-1,3
497,5.32639,2.314,-1,3
498,5.32870,2.309,-1,3
499,5.33100,2.301,-1,3
500,5.33329,2.290,-1,3
501,5.33557,2.283,-1,3
502,5.33784,2.273,-1,3
503,5.34011,2.267,-1,3
504,5.34237,2.262,-1,3
505,5.34463,2.256,-1,3
506,5.34688,2.255,-1,3
507,5.34914,2.255,-1,3
508,5.35140,2.258,-1,3
509,5.35366,2.261,-1,3
510,5.35593,2.267,-1,3
511,5.35821,2.279,-1,3
512,5.36049,2.287,-1,3
513,5.36278,2.290,-1,3
514,5.36740,2.319,-1,3
515,5.36973,2.331,-1,3
516,5.37207,2.341,-1,3
517,5.37442,2.355,-1,3
518,5.37680,2.374,-1,3
519,5.37919,2.390,-1,3
520,5.38160,2.412,-1,3
521,5.38404,2.435,-1,3
522,5.38649,2.458,-1,3
523,5.38898,2.481,-1,3
524,5.39149,2.513,-1,3
525,5.39403,2.546,-1,3
526,5.39662,2.584,-1,3
527,5.39924,2.624,-1,3
528,5.40191,2.666,-1,3
529,5.40461,2.708,-1,3
530,5.40737,2.758,-1,3
531,5.41018,2.806,-1,3
532,5.41304,2.857,-1,3
533,5.41594,2.909,-1,3
534,5.41890,2.958,-1,3
535,5.42192,3.016,-1,3
536,5.42499,3.075,-1,3
537,5.42813,3.138,-1,3
538,5.43133,3.199,-1,3
539,5.43459,3.263,-1,3
540,5.43792,3.328,-1,3
541,5.44131,3.391,-1,3
542,5.44478,3.463,-1,3
543,5.44831,3.535,-1,3
544,5.45192,3.605,-1,3
545,5.45934,3.750,-1,3
546,5.46317,3.831,-1,3
547,5.46708,3.906,-1,3
548,5.47106,3.980,-1,3
549,5.47512,4.056,-1,3
550,5.47925,4.131,-1,3
551,5.48345,4.207,-1,3
552,5.48774,4.285,-1,3
553,5.49210,4.360,-1,3
554,5.49654,4.439,-1,3
555,5.50105,4.513,-1,3
556,5.50564,4.586,-1,3
557,5.51029,4.656,-1,3
558,5.51502,4.724,-1,3
559,5.51981,4.795,-1,3
560,5.52467,4.858,-1,3
561,5.52959,4.923,-1,3
562,5.53458,4.984,-1,3
563,5.53963,5.049,-1,3
564,5.54473,5.106,-1,3
565,5.54990,5.165,-1,3
566,5.55511,5.216,-1,3
567,5.56038,5.271,-1,3
568,5.56570,5.319,-1,3
569,5.57107,5.367,-1,3
570,5.57648,5.412,-1,3
571,5.58194,5.458,-1,3
572,5.58744,5.496,-1,3
573,5.59297,5.534,-1,3
574,5.60415,5.603,-1,3
575,5.60977,5.628,-1,3
576,5.61543,5.654,-1,3
577,5.62111,5.681,-1,3
578,5.62681,5.699,-1,3
579,5.63253,5.721,-1,3
580,5.63827,5.737,-1,3
581,5.64402,5.756,-1,3
582,5.64979,5.769,-1,3
583,5.65557,5.784,-1,3
584,5.66137,5.796,-1,3
585,5.66718,5.810,-1,3
586,5.67300,5.816,-1,3
587,5.67882,5.823,-1,3
588,5.68464,5.826,-1,3
589,5.69048,5.832,-1,3
590,5.69631,5.836,-1,3
591,5.70215,5.838,-1,3
592,5.70798,5.834,-1,3
593,5.71382,5.833,-1,3
594,5.71966,5.839,-1,3
595,5.72549,5.836,-1,3
596,5.73133,5.835,-1,3
597,5.73715,5.827,-1,3
598,5.74297,5.821,-1,3
599,5.74879,5.814,-1,3
600,5.75460,5.809,-1,3
601,5.76040,5.798,-1,3
602,5.76618,5.788,-1,3
603,5.77773,5.766,-1,3
604,5.78348,5.750,-1,3
605,5.78921,5.737,-1,3
606,5.79494,5.727,-1,3
607,5.80066,5.717,-1,3
608,5.80636,5.698,-1,3
609,5.81204,5.681,-1,3
610,5.81770,5.668,-1,3
611,5.82336,5.652,-1,3
612,5.82900,5.639,-1,3
613,5.83462,5.622,-1,3
614,5.84022,5.604,-1,3
615,5.84581,5.587,-1,3
616,5.85138,5.573,-1,3
617,5.85694,5.558,-1,3
618,5.86248,5.545,-1,3
619,5.86801,5.528,-1,3
620,5.87352,5.511,-1,3
621,5.87902,5.497,-1,3
622,5.88450,5.481,-1,3
623,5.88996,5.464,-1,3
624,5.89541,5.448,-1,3
625,5.90085,5.436,-1,3
626,5.90626,5.415,-1,3
627,5.91167,5.403,-1,3
628,5.91705,5.383,-1,3
629,5.92242,5.371,-1,3
630,5.92777,5.353,-1,3
631,5.93311,5.338,-1,3
632,5.93843,5.308,-1,3
633,5.94903,5.292,-1,3
634,5.95431,5.279,-1,3
635,5.95957,5.261,-1,3
636,5.96482,5.245,-1,3
637,5.97005,5.229,-1,3
638,5.97526,5.214,-1,3
639,5.98046,5.200,-1,3
640,5.98565,5.187,-1,3
641,5.99082,5.167,-1,3
642,5.99597,5.150,-1,3
643,6.00111,5.141,-1,3
644,6.00623,5.123,-1,3
645,6.01134,5.112,-1,3
646,6.01643,5.092,-1,3
647,6.02152,5.083,-1,3
648,6.02658,5.066,-1,3
649,6.03164,5.054,-1,3
650,6.03668,5.039,-1,3
651,6.04170,5.024,-1,3
652,6.04671,5.005,-1,3
653,6.05170,4.993,-1,3
654,6.05668,4.979,-1,3
655,6.06164,4.963,-1,3
656,6.06659,4.950,-1,3
657,6.07153,4.935,-1,3
658,6.07644,4.918,-1,3
659,6.08135,4.906,-1,3
660,6.08625,4.898,-1,3
661,6.09113,4.880,-1,3
662,6.09599,4.864,-1,3
663,6.10084,4.840,-1,3
664,6.11051,4.824,-1,3
665,6.11532,4.812,-1,3
666,6.12011,4.793,-1,3
667,6.12489,4.780,-1,3
668,6.12966,4.766,-1,3
669,6.13441,4.754,-1,3
670,6.13915,4.741,-1,3
671,6.14388,4.727,-1,3
672,6.14859,4.709,-1,3
673,6.15328,4.697,-1,3
674,6.15797,4.686,-1,3
675,6.16264,4.669,-1,3
676,6.16729,4.654,-1,3
677,6.17194,4.641,-1,3
678,6.17656,4.629,-1,3
679,6.18118,4.617,-1,3
680,6.18578,4.600,-1,3
681,6.19036,4.582,-1,3
682,6.19493,4.572,-1,3
683,6.19949,4.557,-1,3
684,6.20404,4.547,-1,3
685,6.20857,4.529,-1,3
686,6.21308,4.502,-1,3
687,6.21758,4.502,-1,3
688,6.22207,4.476,-1,3
689,6.22655,4.461,-1,3
690,6.23545,4.447,-1,3
691,6.23988,4.430,-1,3
692,6.24430,4.417,-1,3
693,6.24871,4.405,-1,3
694,6.25310,4.392,-1,3
695,6.25747,4.374,-1,3
696,6.26183,4.359,-1,3
697,6.26617,4.342,-1,3
698,6.27050,4.329,-1,3
699,6.27482,4.317,-1,3
700,6.27912,4.304,-1,3
701,6.28341,4.285,-1,3
702,6.28768,4.269,-1,3
703,6.29193,4.255,-1,3
704,6.29618,4.244,-1,3
705,6.30041,4.230,-1,3
706,6.30462,4.215,-1,3
707,6.30882,4.199,-1,3
708,6.31300,4.183,-1,3
709,6.31717,4.170,-1,3
710,6.32133,4.156,-1,3
711,6.32547,4.144,-1,3
712,6.32960,4.126,-1,3
713,6.33371,4.111,-1,3
714,6.33780,4.094,-1,3
715,6.34189,4.083,-1,3
716,6.34595,4.065,-1,3
717,6.35000,4.051,-1,3
718,6.35404,4.035,-1,3
719,6.36207,4.011,-1,3
720,6.36607,3.999,-1,3
721,6.37005,3.980,-1,3
722,6.37401,3.961,-1,3
723,6.37796,3.952,-1,3
724,6.38190,3.942,-1,3
725,6.38583,3.925,-1,3
726,6.38974,3.908,-1,3
727,6.39363,3.895,-1,3
728,6.39751,3.881,-1,3
729,6.40138,3.868,-1,3
730,6.40524,3.855,-1,3
731,6.40908,3.839,-1,3
732,6.41290,3.823,-1,3
733,6.41671,3.812,-1,3
734,6.42051,3.800,-1,3
735,6.42429,3.785,-1,3
736,6.42807,3.774,-1,3
737,6.43183,3.759,-1,3
738,6.43557,3.745,-1,3
739,6.43931,3.734,-1,3
740,6.44303,3.720,-1,3
741,6.44674,3.709,-1,3
742,6.45043,3.692,-1,3
743,6.45411,3.681,-1,3
744,6.46143,3.655,-1,3
745,6.46508,3.642,-1,3
746,6.46508,3.627,-1,3
747,6.47232,3.617,-1,3
748,6.47592,3.604,-1,3
749,6.47952,3.591,-1,3
750,6.48309,3.576,-1,3
751,6.48665,3.562,-1,3
752,6.49021,3.553,-1,3
753,6.49375,3.540,-1,3
754,6.49727,3.526,-1,3
755,6.50079,3.513,-1,3
756,6.50429,3.504,-1,3
757,6.50778,3.489,-1,3
758,6.51125,3.472,-1,3
759,6.51471,3.462,-1,3
760,6.51816,3.448,-1,3
761,6.52160,3.439,-1,3
762,6.52502,3.421,-1,3
763,6.52843,3.406,-1,3
764,6.53182,3.393,-1,3
765,6.53520,3.379,-1,3
766,6.53857,3.368,-1,3
767,6.54193,3.363,-1,3
768,6.54528,3.352,-1,3
769,6.54862,3.337,-1,3
770,6.55194,3.320,-1,3
771,6.55524,3.306,-1,3
772,6.55854,3.295,-1,3
773,6.56183,3.281,-1,3
774,6.56511,3.275,-1,3
775,6.56838,3.268,-1,3
776,6.57492,3.266,-1,3
777,6.57819,3.270,-1,3
778,6.58147,3.279,-1,3
779,6.58476,3.289,-1,3
780,6.58805,3.297,-1,3
781,6.59135,3.295,-1,3
782,6.59464,3.291,-1,3
783,6.59793,3.292,-1,3
784,6.60123,3.302,-1,3
785,6.60455,3.320,-1,3
786,6.60789,3.335,-1,3
787,6.61124,3.352,-1,3
788,6.61460,3.362,-1,3
789,6.61799,3.386,-1,3
790,6.62140,3.411,-1,3
791,6.62484,3.440,-1,3
792,6.62829,3.451,-1,3
793,6.63176,3.474,-1,3
794,6.63526,3.501,-1,3
795,6.63880,3.535,-1,3
796,6.64237,3.570,-1,3
797,6.64597,3.598,-1,3
798,6.64960,3.632,-1,3
799,6.65328,3.675,-1,3
800,6.65699,3.715,-1,3
801,6.66075,3.756,-1,3
802,6.66454,3.793,-1,3
803,6.66838,3.839,-1,3
804,6.67227,3.890,-1,3
805,6.67621,3.939,-1,3
806,6.68019,3.983,-1,3
807,6.68831,4.089,-1,3
808,6.69246,4.142,-1,3
809,6.69665,4.193,-1,3
810,6.70089,4.240,-1,3
811,6.70519,4.303,-1,3
812,6.70955,4.361,-1,3
813,6.71397,4.417,-1,3
814,6.71844,4.470,-1,3
815,6.72297,4.528,-1,3
816,6.72756,4.594,-1,3
817,6.73221,4.651,-1,3
818,6.73692,4.705,-1,3
819,6.74168,4.763,-1,3
820,6.74651,4.831,-1,3
821,6.75141,4.897,-1,3
822,6.75637,4.958,-1,3
823,6.76138,5.015,-1,3
824,6.76647,5.085,-1,3
825,6.77161,5.146,-1,3
826,6.77682,5.210,-1,3
827,6.78209,5.265,-1,3
828,6.78741,5.325,-1,3
829,6.79280,5.386,-1,3
830,6.79824,5.446,-1,3
831,6.80373,5.489,-1,3
832,6.81485,5.587,-1,3
833,6.82049,5.637,-1,3
834,6.82617,5.678,-1,3
835,6.83188,5.708,-1,3
836,6.83762,5.747,-1,3
837,6.84341,5.782,-1,3
838,6.84923,5.821,-1,3
839,6.85508,5.850,-1,3
840,6.86095,5.876,-1,3
841,6.86685,5.893,-1,3
842,6.87277,5.925,-1,3
843,6.87872,5.950,-1,3
844,6.88470,5.977,-1,3
845,6.89069,5.988,-1,3
846,6.89669,6.006,-1,3
847,6.90272,6.028,-1,3
848,6.90877,6.049,-1,3
849,6.91484,6.071,-1,3
850,6.92093,6.085,-1,3
851,6.92702,6.095,-1,3
852,6.93313,6.110,-1,3
853,6.93926,6.132,-1,3
854,6.94541,6.142,-1,3
855,6.95156,6.150,-1,3
856,6.95771,6.155,-1,3
857,6.96388,6.165,-1,3
858,6.97004,6.169,-1,3
859,6.97622,6.175,-1,3
860,6.98240,6.176,-1,3
861,6.98857,6.179,-1,3
862,6.99475,6.177,-1,3
863,7.00093,6.177,-1,3
864,7.00710,6.176,-1,3
865,7.01945,6.169,-1,3
866,7.02561,6.161,-1,3
867,7.03177,6.163,-1,3
868,7.03792,6.152,-1,3
869,7.04406,6.140,-1,3
870,7.05019,6.128,-1,3
871,7.05632,6.124,-1,3
872,7.06243,6.114,-1,3
873,7.06854,6.106,-1,3
