cnt,pos,speed,Dir,Force,
1,4.24016,1.192,-1,3
2,4.24136,1.200,-1,3
3,4.24255,1.197,-1,3
4,4.24375,1.198,-1,3
5,4.24496,1.211,-1,3
6,4.24618,1.217,-1,3
7,4.24740,1.220,-1,3
8,4.24862,1.227,-1,3
9,4.24986,1.231,-1,3
10,4.25109,1.237,-1,3
11,4.25233,1.239,-1,3
12,4.25358,1.248,-1,3
13,4.25483,1.250,-1,3
14,4.25608,1.255,-1,3
15,4.25734,1.258,-1,3
16,4.25861,1.269,-1,3
17,4.25988,1.273,-1,3
18,4.26115,1.269,-1,3
19,4.26243,1.276,-1,3
20,4.26371,1.284,-1,3
21,4.26501,1.292,-1,3
22,4.26630,1.296,-1,3
23,4.26760,1.295,-1,3
24,4.26889,1.297,-1,3
25,4.27020,1.302,-1,3
26,4.27282,1.319,-1,3
27,4.27414,1.320,-1,3
28,4.27546,1.318,-1,3
29,4.27678,1.320,-1,3
30,4.27811,1.326,-1,3
31,4.27944,1.333,-1,3
32,4.28077,1.335,-1,3
33,4.28211,1.340,-1,3
34,4.28346,1.341,-1,3
35,4.28480,1.341,-1,3
36,4.28614,1.343,-1,3
37,4.28749,1.351,-1,3
38,4.28885,1.355,-1,3
39,4.29020,1.356,-1,3
40,4.29156,1.358,-1,3
41,4.29292,1.360,-1,3
42,4.29428,1.358,-1,3
43,4.29564,1.363,-1,3
44,4.29701,1.373,-1,3
45,4.29839,1.377,-1,3
46,4.29977,1.375,-1,3
47,4.30114,1.372,-1,3
48,4.30251,1.372,-1,3
49,4.30389,1.377,-1,3
50,4.30528,1.389,-1,3
51,4.30667,1.392,-1,3
52,4.30805,1.385,-1,3
53,4.30943,1.380,-1,3
54,4.31082,1.387,-1,3
55,4.31222,1.396,-1,3
56,4.31362,1.403,-1,3
57,4.31502,1.399,-1,3
58,4.31641,1.393,-1,3
59,4.31780,1.390,-1,3
60,4.31920,1.403,-1,3
61,4.32062,1.416,-1,3
62,4.32203,1.414,-1,3
63,4.32344,1.405,-1,3
64,4.32484,1.400,-1,3
65,4.32625,1.407,-1,3
66,4.32766,1.417,-1,3
67,4.32909,1.428,-1,3
68,4.33052,1.425,-1,3
69,4.33193,1.414,-1,3
70,4.33334,1.410,-1,3
71,4.33476,1.424,-1,3
72,4.33620,1.434,-1,3
73,4.33763,1.437,-1,3
74,4.33907,1.434,-1,3
75,4.34049,1.427,-1,3
76,4.34192,1.424,-1,3
77,4.34336,1.438,-1,3
78,4.34481,1.450,-1,3
79,4.34626,1.452,-1,3
80,4.34770,1.443,-1,3
81,4.34914,1.439,-1,3
82,4.35058,1.443,-1,3
83,4.35204,1.456,-1,3
84,4.35351,1.467,-1,3
85,4.35497,1.463,-1,3
86,4.35642,1.454,-1,3
87,4.35934,1.467,-1,3
88,4.36082,1.476,-1,3
89,4.36082,1.483,-1,3
90,4.36377,1.473,-1,3
91,4.36524,1.462,-1,3
92,4.36671,1.477,-1,3
93,4.36821,1.495,-1,3
94,4.36971,1.497,-1,3
95,4.37119,1.488,-1,3
96,4.37267,1.480,-1,3
97,4.37416,1.485,-1,3
98,4.37566,1.506,-1,3
99,4.37718,1.518,-1,3
100,4.37869,1.508,-1,3
101,4.38018,1.492,-1,3
102,4.38168,1.517,-1,3
103,4.38473,1.535,-1,3
104,4.38626,1.529,-1,3
105,4.38778,1.516,-1,3
106,4.38929,1.535,-1,3
107,4.39082,1.535,-1,3
108,4.39238,1.551,-1,3
109,4.39392,1.549,-1,3
110,4.39546,1.536,-1,3
111,4.39699,1.531,-1,3
112,4.39854,1.550,-1,3
113,4.40011,1.572,-1,3
114,4.40168,1.571,-1,3
115,4.40324,1.557,-1,3
116,4.40479,1.553,-1,3
117,4.40636,1.571,-1,3
118,4.40796,1.594,-1,3
119,4.40955,1.594,-1,3
120,4.41113,1.582,-1,3
121,4.41271,1.572,-1,3
122,4.41430,1.596,-1,3
123,4.41592,1.618,-1,3
124,4.41754,1.620,-1,3
125,4.41915,1.606,-1,3
126,4.42075,1.598,-1,3
127,4.42236,1.619,-1,3
128,4.42401,1.645,-1,3
129,4.42566,1.649,-1,3
130,4.42729,1.634,-1,3
131,4.42892,1.625,-1,3
132,4.43056,1.640,-1,3
133,4.43223,1.669,-1,3
134,4.43557,1.664,-1,3
135,4.43889,1.668,-1,3
136,4.44059,1.695,-1,3
137,4.44229,1.704,-1,3
138,4.44399,1.697,-1,3
139,4.44568,1.689,-1,3
140,4.44738,1.698,-1,3
141,4.44910,1.720,-1,3
142,4.45083,1.731,-1,3
143,4.45256,1.729,-1,3
144,4.45428,1.724,-1,3
145,4.45601,1.742,-1,3
146,4.45950,1.755,-1,3
147,4.46126,1.757,-1,3
148,4.46302,1.759,-1,3
149,4.46478,1.758,-1,3
150,4.46654,1.762,-1,3
151,4.46831,1.774,-1,3
152,4.47010,1.795,-1,3
153,4.47368,1.787,-1,3
154,4.47368,1.784,-1,3
155,4.47547,1.784,-1,3
156,4.47726,1.797,-1,3
157,4.47908,1.816,-1,3
158,4.48091,1.826,-1,3
159,4.48273,1.819,-1,3
160,4.48454,1.810,-1,3
161,4.48636,1.823,-1,3
162,4.48820,1.840,-1,3
163,4.49005,1.853,-1,3
164,4.49190,1.849,-1,3
165,4.49374,1.842,-1,3
166,4.49559,1.851,-1,3
167,4.49746,1.865,-1,3
168,4.49934,1.879,-1,3
169,4.50122,1.881,-1,3
170,4.50310,1.879,-1,3
171,4.50498,1.879,-1,3
172,4.50686,1.887,-1,3
173,4.50877,1.905,-1,3
174,4.51069,1.920,-1,3
175,4.51261,1.917,-1,3
176,4.51451,1.909,-1,3
177,4.51643,1.911,-1,3
178,4.51836,1.937,-1,3
179,4.52031,1.953,-1,3
180,4.52226,1.950,-1,3
181,4.52421,1.944,-1,3
182,4.52616,1.949,-1,3
183,4.52813,1.970,-1,3
184,4.53011,1.984,-1,3
185,4.53210,1.988,-1,3
186,4.53409,1.988,-1,3
187,4.53608,1.992,-1,3
188,4.53808,2.003,-1,3
189,4.54010,2.019,-1,3
190,4.54213,2.031,-1,3
191,4.54620,2.036,-1,3
192,4.54825,2.046,-1,3
193,4.55031,2.062,-1,3
194,4.55238,2.075,-1,3
195,4.55446,2.080,-1,3
196,4.55655,2.087,-1,3
197,4.55865,2.097,-1,3
198,4.56076,2.111,-1,3
199,4.56288,2.124,-1,3
200,4.56502,2.136,-1,3
201,4.56716,2.147,-1,3
202,4.56932,2.153,-1,3
203,4.57148,2.166,-1,3
204,4.57367,2.183,-1,3
205,4.57587,2.202,-1,3
206,4.57808,2.209,-1,3
207,4.58030,2.221,-1,3
208,4.58253,2.233,-1,3
209,4.58479,2.254,-1,3
210,4.58705,2.269,-1,3
211,4.58934,2.285,-1,3
212,4.59395,2.312,-1,3
213,4.59628,2.330,-1,3
214,4.59863,2.350,-1,3
215,4.60099,2.365,-1,3
216,4.60337,2.381,-1,3
217,4.60577,2.401,-1,3
218,4.60819,2.419,-1,3
219,4.61063,2.437,-1,3
220,4.61309,2.459,-1,3
221,4.61557,2.478,-1,3
222,4.61806,2.493,-1,3
223,4.62057,2.512,-1,3
224,4.62311,2.538,-1,3
225,4.62567,2.559,-1,3
226,4.62825,2.580,-1,3
227,4.63085,2.596,-1,3
228,4.63347,2.621,-1,3
229,4.63611,2.642,-1,3
230,4.63878,2.667,-1,3
231,4.64146,2.686,-1,3
232,4.64417,2.711,-1,3
233,4.64690,2.731,-1,3
234,4.64966,2.753,-1,3
235,4.65244,2.781,-1,3
236,4.65524,2.805,-1,3
237,4.65807,2.826,-1,3
238,4.66092,2.854,-1,3
239,4.66380,2.876,-1,3
240,4.66670,2.900,-1,3
241,4.66962,2.925,-1,3
242,4.67257,2.946,-1,3
243,4.67554,2.975,-1,3
244,4.67854,3.000,-1,3
245,4.68157,3.021,-1,3
246,4.68461,3.046,-1,3
247,4.68768,3.069,-1,3
248,4.69077,3.093,-1,3
249,4.69390,3.122,-1,3
250,4.69704,3.141,-1,3
251,4.70020,3.165,-1,3
252,4.70339,3.190,-1,3
253,4.70660,3.212,-1,3
254,4.70984,3.236,-1,3
255,4.71310,3.260,-1,3
256,4.71638,3.279,-1,3
257,4.71968,3.303,-1,3
258,4.72301,3.325,-1,3
259,4.72636,3.349,-1,3
260,4.72972,3.368,-1,3
261,4.73312,3.394,-1,3
262,4.73653,3.411,-1,3
263,4.73996,3.433,-1,3
264,4.74342,3.455,-1,3
265,4.74689,3.470,-1,3
266,4.75038,3.493,-1,3
267,4.75389,3.508,-1,3
268,4.75742,3.529,-1,3
269,4.76096,3.543,-1,3
270,4.76452,3.561,-1,3
271,4.76810,3.574,-1,3
272,4.77168,3.589,-1,3
273,4.77529,3.604,-1,3
274,4.77891,3.617,-1,3
275,4.78254,3.630,-1,3
276,4.78618,3.642,-1,3
277,4.78983,3.649,-1,3
278,4.79349,3.662,-1,3
279,4.79716,3.674,-1,3
280,4.80084,3.680,-1,3
281,4.80453,3.688,-1,3
282,4.80823,3.695,-1,3
283,4.81563,3.706,-1,3
284,4.81935,3.714,-1,3
285,4.82306,3.713,-1,3
286,4.82678,3.721,-1,3
287,4.83050,3.718,-1,3
288,4.83423,3.725,-1,3
289,4.83795,3.722,-1,3
290,4.84168,3.727,-1,3
291,4.84540,3.721,-1,3
292,4.84912,3.720,-1,3
293,4.85284,3.722,-1,3
294,4.85656,3.721,-1,3
295,4.86028,3.717,-1,3
296,4.86399,3.712,-1,3
297,4.86770,3.711,-1,3
298,4.87141,3.707,-1,3
299,4.87511,3.706,-1,3
300,4.88251,3.699,-1,3
301,4.88620,3.689,-1,3
302,4.88989,3.686,-1,3
303,4.89357,3.680,-1,3
304,4.89724,3.676,-1,3
305,4.90091,3.668,-1,3
306,4.90457,3.663,-1,3
307,4.90823,3.654,-1,3
308,4.91187,3.644,-1,3
309,4.91552,3.645,-1,3
310,4.91915,3.636,-1,3
311,4.92278,3.628,-1,3
312,4.92640,3.618,-1,3
313,4.93001,3.614,-1,3
314,4.93362,3.605,-1,3
315,4.93722,3.599,-1,3
316,4.94080,3.588,-1,3
317,4.94439,3.581,-1,3
318,4.94796,3.574,-1,3
319,4.95153,3.566,-1,3
320,4.95508,3.556,-1,3
321,4.95863,3.548,-1,3
322,4.96217,3.541,-1,3
323,4.96570,3.530,-1,3
324,4.96922,3.523,-1,3
325,4.97274,3.514,-1,3
326,4.97624,3.507,-1,3
327,4.97974,3.495,-1,3
328,4.98323,3.486,-1,3
329,4.98670,3.478,-1,3
330,4.99017,3.469,-1,3
331,4.99364,3.462,-1,3
332,4.99709,3.452,-1,3
333,5.00053,3.442,-1,3
334,5.00396,3.432,-1,3
335,5.00739,3.424,-1,3
336,5.01080,3.417,-1,3
337,5.01421,3.409,-1,3
338,5.01761,3.398,-1,3
339,5.02100,3.388,-1,3
340,5.02775,3.373,-1,3
341,5.03112,3.367,-1,3
342,5.03447,3.353,-1,3
343,5.03781,3.344,-1,3
344,5.04115,3.338,-1,3
345,5.04448,3.325,-1,3
346,5.04780,3.320,-1,3
347,5.05111,3.309,-1,3
348,5.05441,3.302,-1,3
349,5.05770,3.292,-1,3
350,5.06098,3.284,-1,3
351,5.06752,3.267,-1,3
352,5.07078,3.255,-1,3
353,5.07403,3.246,-1,3
354,5.07726,3.239,-1,3
355,5.08049,3.227,-1,3
356,5.08371,3.218,-1,3
357,5.08693,3.216,-1,3
358,5.09013,3.202,-1,3
359,5.09332,3.194,-1,3
360,5.09651,3.184,-1,3
361,5.09968,3.175,-1,3
362,5.10285,3.168,-1,3
363,5.10601,3.158,-1,3
364,5.10916,3.149,-1,3
365,5.11229,3.138,-1,3
366,5.11542,3.131,-1,3
367,5.11855,3.123,-1,3
368,5.12166,3.115,-1,3
369,5.12477,3.105,-1,3
370,5.12786,3.094,-1,3
371,5.13094,3.084,-1,3
372,5.13402,3.080,-1,3
373,5.13710,3.071,-1,3
374,5.14016,3.061,-1,3
375,5.14321,3.052,-1,3
376,5.14625,3.041,-1,3
377,5.14929,3.037,-1,3
378,5.15231,3.028,-1,3
379,5.15533,3.020,-1,3
380,5.15834,3.010,-1,3
381,5.16135,3.003,-1,3
382,5.16434,2.995,-1,3
383,5.16733,2.990,-1,3
384,5.17031,2.981,-1,3
385,5.17329,2.974,-1,3
386,5.17625,2.964,-1,3
387,5.17921,2.959,-1,3
388,5.18217,2.954,-1,3
389,5.18511,2.942,-1,3
390,5.18805,2.937,-1,3
391,5.19389,2.918,-1,3
392,5.19681,2.916,-1,3
393,5.19972,2.909,-1,3
394,5.20262,2.902,-1,3
395,5.20551,2.894,-1,3
396,5.20840,2.886,-1,3
397,5.21128,2.880,-1,3
398,5.21415,2.875,-1,3
399,5.21702,2.870,-1,3
400,5.21989,2.864,-1,3
401,5.22274,2.856,-1,3
402,5.22844,2.848,-1,3
403,5.23128,2.841,-1,3
404,5.23411,2.833,-1,3
405,5.23694,2.828,-1,3
406,5.23977,2.826,-1,3
407,5.24259,2.819,-1,3
408,5.24540,2.816,-1,3
409,5.24821,2.809,-1,3
410,5.25102,2.804,-1,3
411,5.25382,2.802,-1,3
412,5.25662,2.798,-1,3
413,5.25941,2.798,-1,3
414,5.26220,2.789,-1,3
415,5.26499,2.789,-1,3
416,5.26778,2.786,-1,3
417,5.27056,2.781,-1,3
418,5.27334,2.783,-1,3
419,5.27612,2.780,-1,3
420,5.27890,2.777,-1,3
421,5.28167,2.777,-1,3
422,5.28445,2.778,-1,3
423,5.28723,2.778,-1,3
424,5.29001,2.781,-1,3
425,5.29279,2.780,-1,3
426,5.29557,2.781,-1,3
427,5.29835,2.783,-1,3
428,5.30114,2.790,-1,3
429,5.30394,2.793,-1,3
430,5.30673,2.794,-1,3
431,5.30953,2.796,-1,3
432,5.31233,2.804,-1,3
433,5.31514,2.812,-1,3
434,5.31796,2.818,-1,3
435,5.32079,2.829,-1,3
436,5.32362,2.832,-1,3
437,5.32646,2.842,-1,3
438,5.32932,2.853,-1,3
439,5.33218,2.861,-1,3
440,5.33794,2.888,-1,3
441,5.34084,2.898,-1,3
442,5.34375,2.913,-1,3
443,5.34668,2.927,-1,3
444,5.34962,2.944,-1,3
445,5.35259,2.963,-1,3
446,5.35556,2.978,-1,3
447,5.35856,2.996,-1,3
448,5.36158,3.018,-1,3
449,5.36461,3.035,-1,3
450,5.36767,3.060,-1,3
451,5.37075,3.082,-1,3
452,5.37386,3.105,-1,3
453,5.37699,3.130,-1,3
454,5.38014,3.154,-1,3
455,5.38333,3.182,-1,3
456,5.38654,3.236,-1,3
457,5.38977,3.236,-1,3
458,5.39304,3.296,-1,3
459,5.39966,3.328,-1,3
460,5.40302,3.360,-1,3
461,5.40641,3.388,-1,3
462,5.40983,3.420,-1,3
463,5.41328,3.453,-1,3
464,5.41677,3.488,-1,3
465,5.42029,3.520,-1,3
466,5.42385,3.557,-1,3
467,5.42744,3.588,-1,3
468,5.43106,3.623,-1,3
469,5.43472,3.659,-1,3
470,5.43841,3.694,-1,3
471,5.44214,3.728,-1,3
472,5.44591,3.766,-1,3
473,5.44971,3.799,-1,3
474,5.45354,3.833,-1,3
475,5.45741,3.870,-1,3
476,5.46131,3.903,-1,3
477,5.46525,3.936,-1,3
478,5.46922,3.969,-1,3
479,5.47322,4.003,-1,3
480,5.47725,4.033,-1,3
481,5.48132,4.068,-1,3
482,5.48542,4.098,-1,3
483,5.48955,4.128,-1,3
484,5.49370,4.156,-1,3
485,5.49789,4.183,-1,3
486,5.50210,4.216,-1,3
487,5.50634,4.242,-1,3
488,5.51061,4.266,-1,3
489,5.51490,4.293,-1,3
490,5.51922,4.316,-1,3
491,5.52355,4.335,-1,3
492,5.52791,4.359,-1,3
493,5.53229,4.380,-1,3
494,5.54111,4.415,-1,3
495,5.54554,4.431,-1,3
496,5.54998,4.444,-1,3
497,5.55444,4.460,-1,3
498,5.55891,4.473,-1,3
499,5.56340,4.486,-1,3
500,5.56789,4.494,-1,3
501,5.57239,4.500,-1,3
502,5.57691,4.513,-1,3
503,5.58143,4.522,-1,3
504,5.58595,4.522,-1,3
505,5.59048,4.528,-1,3
506,5.59501,4.531,-1,3
507,5.60408,4.535,-1,3
508,5.60861,4.532,-1,3
509,5.61314,4.535,-1,3
510,5.61767,4.529,-1,3
511,5.62220,4.527,-1,3
512,5.62672,4.524,-1,3
513,5.63124,4.520,-1,3
514,5.63576,4.517,-1,3
515,5.64027,4.509,-1,3
516,5.64477,4.506,-1,3
517,5.64927,4.501,-1,3
518,5.65377,4.493,-1,3
519,5.65825,4.485,-1,3
520,5.66273,4.480,-1,3
521,5.66720,4.472,-1,3
522,5.67167,4.462,-1,3
523,5.67612,4.451,-1,3
524,5.68056,4.443,-1,3
525,5.68499,4.434,-1,3
526,5.68942,4.424,-1,3
527,5.69383,4.411,-1,3
528,5.69823,4.400,-1,3
529,5.70262,4.386,-1,3
530,5.70699,4.377,-1,3
531,5.71136,4.366,-1,3
532,5.71571,4.353,-1,3
533,5.72006,4.345,-1,3
534,5.72439,4.330,-1,3
535,5.72870,4.317,-1,3
536,5.73301,4.307,-1,3
537,5.73731,4.294,-1,3
538,5.74159,4.282,-1,3
539,5.74585,4.268,-1,3
540,5.75011,4.257,-1,3
541,5.75435,4.243,-1,3
542,5.75858,4.227,-1,3
543,5.76280,4.216,-1,3
544,5.76700,4.204,-1,3
545,5.77119,4.178,-1,3
546,5.77954,4.164,-1,3
547,5.78368,4.149,-1,3
548,5.78782,4.140,-1,3
549,5.79195,4.127,-1,3
550,5.79606,4.113,-1,3
551,5.80017,4.101,-1,3
552,5.80425,4.088,-1,3
553,5.80832,4.071,-1,3
554,5.81239,4.061,-1,3
555,5.81644,4.052,-1,3
556,5.82047,4.034,-1,3
557,5.82449,4.023,-1,3
558,5.83250,3.998,-1,3
559,5.83648,3.983,-1,3
560,5.84046,3.972,-1,3
561,5.84441,3.956,-1,3
562,5.84836,3.947,-1,3
563,5.85229,3.934,-1,3
564,5.85621,3.920,-1,3
565,5.86012,3.908,-1,3
566,5.86402,3.893,-1,3
567,5.86790,3.884,-1,3
568,5.87177,3.874,-1,3
569,5.87563,3.857,-1,3
570,5.87948,3.846,-1,3
571,5.88331,3.835,-1,3
572,5.88713,3.822,-1,3
573,5.89095,3.812,-1,3
574,5.89474,3.798,-1,3
575,5.89853,3.786,-1,3
576,5.90230,3.774,-1,3
577,5.90607,3.764,-1,3
578,5.90982,3.750,-1,3
579,5.91356,3.740,-1,3
580,5.91728,3.726,-1,3
581,5.92100,3.715,-1,3
582,5.92470,3.706,-1,3
583,5.92840,3.695,-1,3
584,5.93208,3.683,-1,3
585,5.93575,3.671,-1,3
586,5.93942,3.663,-1,3
587,5.94307,3.654,-1,3
588,5.94671,3.643,-1,3
589,5.95034,3.631,-1,3
590,5.95397,3.622,-1,3
591,5.95758,3.612,-1,3
592,5.96118,3.601,-1,3
593,5.96477,3.592,-1,3
594,5.96836,3.584,-1,3
595,5.97193,3.575,-1,3
596,5.97549,3.564,-1,3
597,5.98613,3.537,-1,3
598,5.98966,3.531,-1,3
599,5.99318,3.521,-1,3
600,5.99670,3.512,-1,3
601,6.00020,3.505,-1,3
602,6.00370,3.496,-1,3
603,6.00719,3.490,-1,3
604,6.01067,3.480,-1,3
605,6.01414,3.475,-1,3
606,6.01761,3.467,-1,3
607,6.02107,3.451,-1,3
608,6.02797,3.447,-1,3
609,6.03141,3.439,-1,3
610,6.03141,3.430,-1,3
611,6.03826,3.425,-1,3
612,6.04168,3.420,-1,3
613,6.04509,3.411,-1,3
614,6.04850,3.405,-1,3
615,6.05190,3.404,-1,3
616,6.05530,3.396,-1,3
617,6.05869,3.390,-1,3
618,6.06208,3.387,-1,3
619,6.06546,3.384,-1,3
620,6.06884,3.381,-1,3
621,6.07222,3.376,-1,3
622,6.07559,3.377,-1,3
623,6.07897,3.373,-1,3
624,6.08234,3.368,-1,3
625,6.08571,3.369,-1,3
626,6.08907,3.364,-1,3
627,6.09243,3.365,-1,3
628,6.09580,3.363,-1,3
629,6.09916,3.361,-1,3
630,6.10251,3.357,-1,3
631,6.10587,3.357,-1,3
632,6.10923,3.357,-1,3
633,6.11259,3.357,-1,3
634,6.11594,3.357,-1,3
635,6.11930,3.353,-1,3
636,6.12265,3.357,-1,3
637,6.12601,3.357,-1,3
638,6.12936,3.356,-1,3
639,6.13272,3.359,-1,3
640,6.13608,3.361,-1,3
641,6.13945,3.363,-1,3
642,6.14281,3.366,-1,3
643,6.14618,3.370,-1,3
644,6.14956,3.375,-1,3
645,6.15294,3.381,-1,3
646,6.15632,3.381,-1,3
647,6.15971,3.388,-1,3
648,6.16310,3.395,-1,3
649,6.16651,3.402,-1,3
650,6.16992,3.410,-1,3
651,6.17333,3.418,-1,3
652,6.17676,3.422,-1,3
653,6.18019,3.431,-1,3
654,6.18363,3.442,-1,3
655,6.18708,3.451,-1,3
656,6.19054,3.464,-1,3
657,6.19402,3.472,-1,3
658,6.19750,3.484,-1,3
659,6.20100,3.498,-1,3
660,6.20450,3.506,-1,3
661,6.20803,3.522,-1,3
662,6.21157,3.539,-1,3
663,6.21512,3.555,-1,3
664,6.21869,3.569,-1,3
665,6.22227,3.583,-1,3
666,6.22588,3.604,-1,3
667,6.22950,3.620,-1,3
668,6.23314,3.642,-1,3
669,6.23679,3.657,-1,3
670,6.24047,3.680,-1,3
671,6.24417,3.697,-1,3
672,6.24789,3.722,-1,3
673,6.25164,3.743,-1,3
674,6.25540,3.767,-1,3
675,6.25919,3.785,-1,3
676,6.26300,3.810,-1,3
677,6.26683,3.835,-1,3
678,6.27069,3.859,-1,3
679,6.27458,3.886,-1,3
680,6.27849,3.914,-1,3
681,6.28243,3.938,-1,3
682,6.28639,3.962,-1,3
683,6.29039,3.992,-1,3
684,6.29441,4.019,-1,3
685,6.29845,4.075,-1,3
686,6.30663,4.103,-1,3
687,6.31076,4.132,-1,3
688,6.31492,4.161,-1,3
689,6.31911,4.189,-1,3
690,6.32333,4.219,-1,3
691,6.32758,4.245,-1,3
692,6.33186,4.278,-1,3
693,6.33616,4.306,-1,3
694,6.34050,4.336,-1,3
695,6.34486,4.365,-1,3
696,6.34926,4.397,-1,3
697,6.35368,4.425,-1,3
698,6.35814,4.457,-1,3
699,6.36263,4.490,-1,3
700,6.36715,4.518,-1,3
701,6.37170,4.548,-1,3
702,6.37627,4.576,-1,3
703,6.38088,4.638,-1,3
704,6.39019,4.668,-1,3
705,6.39488,4.693,-1,3
706,6.39960,4.723,-1,3
707,6.40436,4.752,-1,3
708,6.40914,4.783,-1,3
709,6.41394,4.805,-1,3
710,6.41877,4.830,-1,3
711,6.42363,4.860,-1,3
712,6.42852,4.889,-1,3
713,6.43343,4.911,-1,3
714,6.43837,4.934,-1,3
715,6.44333,4.958,-1,3
716,6.44830,4.980,-1,3
717,6.45331,5.005,-1,3
718,6.45833,5.024,-1,3
719,6.46338,5.045,-1,3
720,6.46844,5.060,-1,3
721,6.47352,5.082,-1,3
722,6.47862,5.097,-1,3
723,6.48374,5.118,-1,3
724,6.48886,5.130,-1,3
725,6.49401,5.147,-1,3
726,6.49917,5.160,-1,3
727,6.50434,5.172,-1,3
728,6.50953,5.191,-1,3
729,6.51474,5.202,-1,3
730,6.51995,5.209,-1,3
731,6.52516,5.215,-1,3
732,6.53039,5.227,-1,3
733,6.53562,5.236,-1,3
734,6.54087,5.244,-1,3
735,6.54611,5.246,-1,3
736,6.55137,5.252,-1,3
737,6.55662,5.254,-1,3
738,6.56188,5.263,-1,3
739,6.56715,5.266,-1,3
740,6.57242,5.270,-1,3
741,6.57769,5.269,-1,3
742,6.58296,5.271,-1,3
743,6.58823,5.272,-1,3
744,6.59350,5.270,-1,3
745,6.59877,5.274,-1,3
746,6.60405,5.272,-1,3
747,6.60931,5.265,-1,3
748,6.61458,5.264,-1,3
749,6.61984,5.266,-1,3
750,6.62510,5.259,-1,3
751,6.63036,5.254,-1,3
752,6.63560,5.248,-1,3
753,6.64085,5.247,-1,3
754,6.64609,5.242,-1,3
755,6.65656,5.228,-1,3
756,6.66178,5.222,-1,3
757,6.66699,5.212,-1,3
758,6.67220,5.207,-1,3
759,6.67740,5.202,-1,3
760,6.68259,5.194,-1,3
761,6.68778,5.182,-1,3
762,6.69295,5.172,-1,3
763,6.69812,5.170,-1,3
764,6.70328,5.159,-1,3
765,6.70843,5.150,-1,3
766,6.71357,5.141,-1,3
767,6.71870,5.134,-1,3
768,6.72382,5.122,-1,3
769,6.72894,5.117,-1,3
770,6.73404,5.100,-1,3
771,6.73913,5.093,-1,3
772,6.74421,5.080,-1,3
773,6.74928,5.060,-1,3
774,6.75939,5.045,-1,3
775,6.76442,5.035,-1,3
776,6.76945,5.027,-1,3
777,6.77446,5.013,-1,3
778,6.77946,5.000,-1,3
779,6.78446,4.992,-1,3
780,6.78944,4.980,-1,3
781,6.79441,4.970,-1,3
782,6.79936,4.957,-1,3
783,6.80431,4.945,-1,3
784,6.80924,4.930,-1,3
785,6.81416,4.920,-1,3
786,6.81907,4.910,-1,3
787,6.82397,4.900,-1,3
788,6.82885,4.883,-1,3
789,6.83372,4.869,-1,3
790,6.83858,4.858,-1,3
791,6.84342,4.844,-1,3
792,6.84826,4.840,-1,3
793,6.85309,4.826,-1,3
794,6.85790,4.812,-1,3
795,6.86270,4.796,-1,3
796,6.86748,4.788,-1,3
797,6.87226,4.778,-1,3
798,6.87703,4.769,-1,3
799,6.88178,4.753,-1,3
800,6.88653,4.742,-1,3
801,6.89125,4.724,-1,3
802,6.89597,4.716,-1,3
803,6.90067,4.705,-1,3
804,6.90537,4.695,-1,3
805,6.91471,4.664,-1,3
806,6.91936,4.650,-1,3
807,6.91936,4.644,-1,3
808,6.92864,4.635,-1,3
809,6.93326,4.623,-1,3
810,6.93787,4.608,-1,3
811,6.94246,4.595,-1,3
812,6.94705,4.584,-1,3
813,6.95162,4.572,-1,3
814,6.95619,4.567,-1,3
815,6.96073,4.547,-1,3
816,6.96527,4.538,-1,3
817,6.96979,4.524,-1,3
818,6.97431,4.517,-1,3
819,6.97882,4.505,-1,3
820,6.98779,4.478,-1,3
821,6.99226,4.470,-1,3
822,6.99672,4.459,-1,3
823,7.00117,4.452,-1,3
824,7.00561,4.441,-1,3
825,7.01004,4.429,-1,3
826,7.01445,4.413,-1,3
827,7.01886,4.405,-1,3
828,7.02326,4.401,-1,3
829,7.02765,4.391,-1,3
830,7.03202,4.377,-1,3
831,7.03639,4.362,-1,3
832,7.04074,4.358,-1,3
833,7.04509,4.350,-1,3
834,7.04944,4.345,-1,3
835,7.05377,4.331,-1,3
836,7.05809,4.324,-1,3
837,7.06240,4.310,-1,3
838,7.06671,4.308,-1,3
839,7.07101,4.302,-1,3
840,7.07531,4.294,-1,3
841,7.07960,4.288,-1,3
842,7.08387,4.278,-1,3
843,7.08815,4.273,-1,3
844,7.09241,4.265,-1,3
845,7.09668,4.265,-1,3
846,7.10093,4.255,-1,3
847,7.10518,4.250,-1,3
848,7.10942,4.240,-1,3
849,7.11366,4.237,-1,3
850,7.11789,4.231,-1,3
851,7.12212,4.229,-1,3
852,7.13056,4.216,-1,3
853,7.13477,4.211,-1,3
854,7.13897,4.206,-1,3
855,7.14317,4.201,-1,3
856,7.14737,4.192,-1,3
857,7.15156,4.191,-1,3
858,7.15574,4.186,-1,3
859,7.15992,4.180,-1,3
860,7.16409,4.172,-1,3
861,7.16826,4.167,-1,3
862,7.17242,4.159,-1,3
863,7.17657,4.154,-1,3
864,7.18072,4.147,-1,3
865,7.18486,4.142,-1,3
866,7.18900,4.134,-1,3
867,7.19313,4.128,-1,3
868,7.19725,4.120,-1,3
869,7.20136,4.110,-1,3
870,7.20958,4.106,-1,3
871,7.21368,4.100,-1,3
872,7.21777,4.094,-1,3
873,7.22186,4.085,-1,3
