cnt,pos,speed,Dir,Force,
1,4.40935,1.004,-1,3
2,4.41035,1.002,-1,3
3,4.41134,0.989,-1,3
4,4.41233,0.993,-1,3
5,4.41334,1.007,-1,3
6,4.41436,1.020,-1,3
7,4.41538,1.014,-1,3
8,4.41637,0.999,-1,3
9,4.41738,1.002,-1,3
10,4.41839,1.017,-1,3
11,4.41942,1.029,-1,3
12,4.42044,1.023,-1,3
13,4.42146,1.016,-1,3
14,4.42248,1.018,-1,3
15,4.42351,1.032,-1,3
16,4.42455,1.043,-1,3
17,4.42559,1.033,-1,3
18,4.42661,1.024,-1,3
19,4.42764,1.029,-1,3
20,4.42869,1.048,-1,3
21,4.42974,1.053,-1,3
22,4.43078,1.044,-1,3
23,4.43182,1.040,-1,3
24,4.43287,1.047,-1,3
25,4.43393,1.057,-1,3
26,4.43499,1.058,-1,3
27,4.43604,1.054,-1,3
28,4.43815,1.063,-1,3
29,4.43922,1.072,-1,3
30,4.44029,1.066,-1,3
31,4.44135,1.064,-1,3
32,4.44242,1.065,-1,3
33,4.44349,1.072,-1,3
34,4.44457,1.077,-1,3
35,4.44565,1.079,-1,3
36,4.44672,1.078,-1,3
37,4.44780,1.079,-1,3
38,4.44888,1.080,-1,3
39,4.44996,1.080,-1,3
40,4.45105,1.086,-1,3
41,4.45214,1.091,-1,3
42,4.45432,1.086,-1,3
43,4.45540,1.087,-1,3
44,4.45650,1.092,-1,3
45,4.45759,1.094,-1,3
46,4.45868,1.090,-1,3
47,4.45977,1.090,-1,3
48,4.46087,1.097,-1,3
49,4.46197,1.103,-1,3
50,4.46307,1.099,-1,3
51,4.46416,1.091,-1,3
52,4.46525,1.092,-1,3
53,4.46635,1.100,-1,3
54,4.46746,1.106,-1,3
55,4.46856,1.104,-1,3
56,4.46966,1.101,-1,3
57,4.47076,1.099,-1,3
58,4.47186,1.100,-1,3
59,4.47296,1.101,-1,3
60,4.47407,1.103,-1,3
61,4.47517,1.105,-1,3
62,4.47628,1.105,-1,3
63,4.47738,1.103,-1,3
64,4.47848,1.102,-1,3
65,4.47959,1.106,-1,3
66,4.48070,1.107,-1,3
67,4.48180,1.103,-1,3
68,4.48290,1.100,-1,3
69,4.48400,1.104,-1,3
70,4.48511,1.110,-1,3
71,4.48622,1.110,-1,3
72,4.48732,1.101,-1,3
73,4.48842,1.098,-1,3
74,4.48953,1.109,-1,3
75,4.49174,1.107,-1,3
76,4.49284,1.102,-1,3
77,4.49395,1.103,-1,3
78,4.49505,1.106,-1,3
79,4.49616,1.105,-1,3
80,4.49726,1.103,-1,3
81,4.49836,1.105,-1,3
82,4.49947,1.107,-1,3
83,4.50058,1.107,-1,3
84,4.50168,1.106,-1,3
85,4.50279,1.106,-1,3
86,4.50390,1.106,-1,3
87,4.50500,1.105,-1,3
88,4.50610,1.103,-1,3
89,4.50721,1.108,-1,3
90,4.50833,1.114,-1,3
91,4.50944,1.114,-1,3
92,4.51165,1.103,-1,3
93,4.51276,1.107,-1,3
94,4.51387,1.115,-1,3
95,4.51499,1.117,-1,3
96,4.51611,1.115,-1,3
97,4.51722,1.116,-1,3
98,4.51834,1.120,-1,3
99,4.51946,1.120,-1,3
100,4.52058,1.118,-1,3
101,4.52170,1.121,-1,3
102,4.52283,1.126,-1,3
103,4.52396,1.131,-1,3
104,4.52509,1.132,-1,3
105,4.52622,1.134,-1,3
106,4.52736,1.137,-1,3
107,4.52850,1.137,-1,3
108,4.52964,1.140,-1,3
109,4.53079,1.147,-1,3
110,4.53194,1.155,-1,3
111,4.53310,1.159,-1,3
112,4.53426,1.158,-1,3
113,4.53542,1.159,-1,3
114,4.53658,1.167,-1,3
115,4.53776,1.176,-1,3
116,4.53894,1.180,-1,3
117,4.54012,1.184,-1,3
118,4.54131,1.191,-1,3
119,4.54251,1.194,-1,3
120,4.54371,1.202,-1,3
121,4.54492,1.207,-1,3
122,4.54613,1.217,-1,3
123,4.54736,1.228,-1,3
124,4.54859,1.230,-1,3
125,4.54983,1.246,-1,3
126,4.55233,1.257,-1,3
127,4.55233,1.264,-1,3
128,4.55488,1.279,-1,3
129,4.55617,1.293,-1,3
130,4.55747,1.301,-1,3
131,4.55878,1.308,-1,3
132,4.56010,1.320,-1,3
133,4.56143,1.336,-1,3
134,4.56278,1.350,-1,3
135,4.56415,1.369,-1,3
136,4.56554,1.385,-1,3
137,4.56693,1.394,-1,3
138,4.56834,1.405,-1,3
139,4.56976,1.424,-1,3
140,4.57268,1.472,-1,3
141,4.57417,1.491,-1,3
142,4.57567,1.499,-1,3
143,4.57718,1.539,-1,3
144,4.57872,1.539,-1,3
145,4.58030,1.574,-1,3
146,4.58190,1.599,-1,3
147,4.58351,1.611,-1,3
148,4.58513,1.627,-1,3
149,4.58679,1.653,-1,3
150,4.58848,1.691,-1,3
151,4.59020,1.723,-1,3
152,4.59194,1.739,-1,3
153,4.59370,1.758,-1,3
154,4.59548,1.786,-1,3
155,4.59731,1.828,-1,3
156,4.59917,1.860,-1,3
157,4.60105,1.877,-1,3
158,4.60296,1.907,-1,3
159,4.60490,1.943,-1,3
160,4.60688,1.978,-1,3
161,4.60888,2.008,-1,3
162,4.61092,2.036,-1,3
163,4.61299,2.074,-1,3
164,4.61510,2.106,-1,3
165,4.61724,2.139,-1,3
166,4.61941,2.172,-1,3
167,4.62162,2.213,-1,3
168,4.62387,2.248,-1,3
169,4.62615,2.281,-1,3
170,4.62847,2.318,-1,3
171,4.63083,2.357,-1,3
172,4.63566,2.432,-1,3
173,4.63813,2.471,-1,3
174,4.64064,2.509,-1,3
175,4.64318,2.548,-1,3
176,4.64577,2.585,-1,3
177,4.64840,2.627,-1,3
178,4.65106,2.663,-1,3
179,4.65376,2.703,-1,3
180,4.65650,2.742,-1,3
181,4.65929,2.782,-1,3
182,4.66211,2.823,-1,3
183,4.66497,2.857,-1,3
184,4.66786,2.892,-1,3
185,4.67079,2.970,-1,3
186,4.67677,3.010,-1,3
187,4.67677,3.044,-1,3
188,4.68290,3.079,-1,3
189,4.68601,3.117,-1,3
190,4.68917,3.153,-1,3
191,4.69236,3.190,-1,3
192,4.69558,3.220,-1,3
193,4.69883,3.252,-1,3
194,4.70212,3.286,-1,3
195,4.70544,3.319,-1,3
196,4.70879,3.353,-1,3
197,4.71217,3.384,-1,3
198,4.71558,3.408,-1,3
199,4.71902,3.440,-1,3
200,4.72249,3.469,-1,3
201,4.72599,3.499,-1,3
202,4.72951,3.520,-1,3
203,4.73305,3.545,-1,3
204,4.73663,3.574,-1,3
205,4.74023,3.600,-1,3
206,4.74385,3.620,-1,3
207,4.74749,3.642,-1,3
208,4.75115,3.664,-1,3
209,4.75483,3.681,-1,3
210,4.75854,3.706,-1,3
211,4.76226,3.721,-1,3
212,4.76600,3.739,-1,3
213,4.76975,3.751,-1,3
214,4.77352,3.771,-1,3
215,4.77731,3.783,-1,3
216,4.78110,3.798,-1,3
217,4.78491,3.810,-1,3
218,4.78873,3.820,-1,3
219,4.79257,3.833,-1,3
220,4.80026,3.853,-1,3
221,4.80412,3.863,-1,3
222,4.80799,3.868,-1,3
223,4.81187,3.876,-1,3
224,4.81575,3.884,-1,3
225,4.81964,3.890,-1,3
226,4.82354,3.895,-1,3
227,4.82744,3.900,-1,3
228,4.83134,3.903,-1,3
229,4.83525,3.909,-1,3
230,4.83916,3.913,-1,3
231,4.84308,3.914,-1,3
232,4.85091,3.915,-1,3
233,4.85482,3.917,-1,3
234,4.85874,3.918,-1,3
235,4.86266,3.920,-1,3
236,4.86658,3.917,-1,3
237,4.87049,3.913,-1,3
238,4.87441,3.914,-1,3
239,4.87832,3.917,-1,3
240,4.88224,3.913,-1,3
241,4.88614,3.909,-1,3
242,4.89005,3.908,-1,3
243,4.89395,3.900,-1,3
244,4.89785,3.902,-1,3
245,4.90175,3.896,-1,3
246,4.90564,3.893,-1,3
247,4.90953,3.885,-1,3
248,4.91341,3.881,-1,3
249,4.91729,3.878,-1,3
250,4.92116,3.876,-1,3
251,4.92503,3.867,-1,3
252,4.92889,3.858,-1,3
253,4.93274,3.853,-1,3
254,4.93659,3.851,-1,3
255,4.94043,3.843,-1,3
256,4.94427,3.833,-1,3
257,4.94810,3.829,-1,3
258,4.95191,3.819,-1,3
259,4.95573,3.815,-1,3
260,4.95953,3.804,-1,3
261,4.96333,3.796,-1,3
262,4.96712,3.788,-1,3
263,4.97090,3.781,-1,3
264,4.97467,3.770,-1,3
265,4.97843,3.751,-1,3
266,4.98218,3.741,-1,3
267,4.98965,3.730,-1,3
268,4.99338,3.722,-1,3
269,4.99709,3.712,-1,3
270,5.00079,3.702,-1,3
271,5.00448,3.689,-1,3
272,5.00816,3.680,-1,3
273,5.01183,3.671,-1,3
274,5.01549,3.659,-1,3
275,5.01914,3.648,-1,3
276,5.02277,3.636,-1,3
277,5.02640,3.624,-1,3
278,5.03001,3.612,-1,3
279,5.03361,3.600,-1,3
280,5.03720,3.586,-1,3
281,5.04433,3.560,-1,3
282,5.04788,3.549,-1,3
283,5.05141,3.534,-1,3
284,5.05494,3.521,-1,3
285,5.05845,3.509,-1,3
286,5.06194,3.495,-1,3
287,5.06542,3.479,-1,3
288,5.06889,3.466,-1,3
289,5.07234,3.452,-1,3
290,5.07578,3.438,-1,3
291,5.07920,3.424,-1,3
292,5.08261,3.407,-1,3
293,5.08601,3.399,-1,3
294,5.08939,3.383,-1,3
295,5.09276,3.369,-1,3
296,5.09611,3.355,-1,3
297,5.09945,3.340,-1,3
298,5.10278,3.327,-1,3
299,5.10609,3.311,-1,3
300,5.10939,3.299,-1,3
301,5.11267,3.285,-1,3
302,5.11594,3.269,-1,3
303,5.11920,3.256,-1,3
304,5.12244,3.243,-1,3
305,5.12567,3.226,-1,3
306,5.12888,3.213,-1,3
307,5.13208,3.198,-1,3
308,5.13527,3.186,-1,3
309,5.13843,3.170,-1,3
310,5.14159,3.158,-1,3
311,5.14473,3.140,-1,3
312,5.14786,3.131,-1,3
313,5.15098,3.116,-1,3
314,5.15408,3.102,-1,3
315,5.15717,3.085,-1,3
316,5.16024,3.073,-1,3
317,5.16330,3.060,-1,3
318,5.16635,3.047,-1,3
319,5.17240,3.019,-1,3
320,5.17540,3.003,-1,3
321,5.17839,2.990,-1,3
322,5.18137,2.979,-1,3
323,5.18433,2.963,-1,3
324,5.18728,2.949,-1,3
325,5.19022,2.935,-1,3
326,5.19314,2.920,-1,3
327,5.19604,2.907,-1,3
328,5.19894,2.896,-1,3
329,5.20182,2.879,-1,3
330,5.20468,2.851,-1,3
331,5.21037,2.838,-1,3
332,5.21320,2.824,-1,3
333,5.21601,2.811,-1,3
334,5.21881,2.800,-1,3
335,5.22159,2.786,-1,3
336,5.22436,2.769,-1,3
337,5.22712,2.760,-1,3
338,5.22987,2.749,-1,3
339,5.23260,2.733,-1,3
340,5.23532,2.721,-1,3
341,5.23803,2.706,-1,3
342,5.24073,2.696,-1,3
343,5.24341,2.684,-1,3
344,5.24608,2.671,-1,3
345,5.24874,2.658,-1,3
346,5.25139,2.647,-1,3
347,5.25402,2.636,-1,3
348,5.25665,2.626,-1,3
349,5.25927,2.618,-1,3
350,5.26187,2.602,-1,3
351,5.26446,2.594,-1,3
352,5.26704,2.582,-1,3
353,5.26962,2.574,-1,3
354,5.27218,2.564,-1,3
355,5.27474,2.554,-1,3
356,5.27728,2.541,-1,3
357,5.27981,2.530,-1,3
358,5.28233,2.525,-1,3
359,5.28485,2.515,-1,3
360,5.28735,2.504,-1,3
361,5.28985,2.495,-1,3
362,5.29233,2.484,-1,3
363,5.29481,2.476,-1,3
364,5.29728,2.469,-1,3
365,5.29974,2.458,-1,3
366,5.30219,2.452,-1,3
367,5.30463,2.445,-1,3
368,5.30949,2.425,-1,3
369,5.31192,2.425,-1,3
370,5.31433,2.416,-1,3
371,5.31674,2.407,-1,3
372,5.31915,2.405,-1,3
373,5.32155,2.402,-1,3
374,5.32394,2.393,-1,3
375,5.32633,2.389,-1,3
376,5.32872,2.387,-1,3
377,5.33110,2.383,-1,3
378,5.33348,2.382,-1,3
379,5.33586,2.376,-1,3
380,5.34060,2.371,-1,3
381,5.34297,2.368,-1,3
382,5.34534,2.369,-1,3
383,5.34770,2.360,-1,3
384,5.35006,2.363,-1,3
385,5.35242,2.361,-1,3
386,5.35478,2.356,-1,3
387,5.35713,2.355,-1,3
388,5.35949,2.357,-1,3
389,5.36185,2.357,-1,3
390,5.36420,2.353,-1,3
391,5.36656,2.358,-1,3
392,5.36892,2.358,-1,3
393,5.37128,2.361,-1,3
394,5.37364,2.357,-1,3
395,5.37600,2.367,-1,3
396,5.37837,2.369,-1,3
397,5.38074,2.371,-1,3
398,5.38312,2.375,-1,3
399,5.38550,2.377,-1,3
400,5.38788,2.385,-1,3
401,5.39027,2.386,-1,3
402,5.39266,2.394,-1,3
403,5.39506,2.401,-1,3
404,5.39747,2.409,-1,3
405,5.39989,2.416,-1,3
406,5.40231,2.421,-1,3
407,5.40474,2.428,-1,3
408,5.40718,2.440,-1,3
409,5.40962,2.448,-1,3
410,5.41208,2.456,-1,3
411,5.41702,2.476,-1,3
412,5.41950,2.483,-1,3
413,5.42200,2.494,-1,3
414,5.42451,2.511,-1,3
415,5.42703,2.522,-1,3
416,5.42957,2.536,-1,3
417,5.43211,2.547,-1,3
418,5.43467,2.562,-1,3
419,5.43725,2.578,-1,3
420,5.43984,2.592,-1,3
421,5.44245,2.606,-1,3
422,5.44772,2.640,-1,3
423,5.45037,2.653,-1,3
424,5.45304,2.676,-1,3
425,5.45574,2.693,-1,3
426,5.45845,2.710,-1,3
427,5.46118,2.731,-1,3
428,5.46393,2.750,-1,3
429,5.46669,2.764,-1,3
430,5.46947,2.783,-1,3
431,5.47228,2.803,-1,3
432,5.47510,2.822,-1,3
433,5.47794,2.841,-1,3
434,5.48081,2.865,-1,3
435,5.48369,2.885,-1,3
436,5.48660,2.905,-1,3
437,5.48952,2.925,-1,3
438,5.49247,2.948,-1,3
439,5.49544,2.968,-1,3
440,5.49842,2.988,-1,3
441,5.50144,3.015,-1,3
442,5.50448,3.038,-1,3
443,5.50754,3.059,-1,3
444,5.51063,3.090,-1,3
445,5.51374,3.109,-1,3
446,5.51687,3.132,-1,3
447,5.52003,3.158,-1,3
448,5.52321,3.184,-1,3
449,5.52642,3.207,-1,3
450,5.52964,3.227,-1,3
451,5.53290,3.258,-1,3
452,5.53618,3.279,-1,3
453,5.53949,3.332,-1,3
454,5.54282,3.357,-1,3
455,5.54618,3.382,-1,3
456,5.55297,3.410,-1,3
457,5.55640,3.436,-1,3
458,5.55987,3.467,-1,3
459,5.56336,3.488,-1,3
460,5.56688,3.518,-1,3
461,5.57042,3.546,-1,3
462,5.57400,3.575,-1,3
463,5.57760,3.600,-1,3
464,5.58122,3.626,-1,3
465,5.58488,3.656,-1,3
466,5.58857,3.713,-1,3
467,5.59602,3.743,-1,3
468,5.59979,3.769,-1,3
469,5.60359,3.799,-1,3
470,5.60742,3.830,-1,3
471,5.61128,3.856,-1,3
472,5.61516,3.886,-1,3
473,5.61907,3.911,-1,3
474,5.62302,3.944,-1,3
475,5.62699,3.972,-1,3
476,5.63099,3.996,-1,3
477,5.63502,4.029,-1,3
478,5.63907,4.055,-1,3
479,5.64316,4.086,-1,3
480,5.64727,4.114,-1,3
481,5.65142,4.146,-1,3
482,5.65559,4.173,-1,3
483,5.65979,4.204,-1,3
484,5.66402,4.230,-1,3
485,5.66828,4.260,-1,3
486,5.67257,4.287,-1,3
487,5.67688,4.313,-1,3
488,5.68122,4.338,-1,3
489,5.68559,4.370,-1,3
490,5.68998,4.395,-1,3
491,5.69441,4.421,-1,3
492,5.69885,4.445,-1,3
493,5.70332,4.469,-1,3
494,5.70782,4.495,-1,3
495,5.71233,4.519,-1,3
496,5.71688,4.543,-1,3
497,5.72144,4.565,-1,3
498,5.72603,4.583,-1,3
499,5.73526,4.628,-1,3
500,5.73990,4.643,-1,3
501,5.74456,4.659,-1,3
502,5.74923,4.673,-1,3
503,5.75392,4.691,-1,3
504,5.75863,4.702,-1,3
505,5.76334,4.716,-1,3
506,5.76807,4.725,-1,3
507,5.77281,4.739,-1,3
508,5.77755,4.747,-1,3
509,5.78231,4.753,-1,3
510,5.78707,4.766,-1,3
511,5.79184,4.774,-1,3
512,5.79662,4.777,-1,3
513,5.80141,4.784,-1,3
514,5.80620,4.790,-1,3
515,5.81099,4.789,-1,3
516,5.81578,4.797,-1,3
517,5.82538,4.801,-1,3
518,5.83018,4.800,-1,3
519,5.83498,4.800,-1,3
520,5.83978,4.797,-1,3
521,5.84458,4.801,-1,3
522,5.84938,4.796,-1,3
523,5.85417,4.798,-1,3
524,5.85897,4.793,-1,3
525,5.86375,4.787,-1,3
526,5.86854,4.789,-1,3
527,5.87333,4.786,-1,3
528,5.87811,4.778,-1,3
529,5.88288,4.774,-1,3
530,5.88765,4.771,-1,3
531,5.89242,4.764,-1,3
532,5.89718,4.760,-1,3
533,5.90193,4.753,-1,3
534,5.90668,4.746,-1,3
535,5.91141,4.736,-1,3
536,5.91614,4.731,-1,3
537,5.92087,4.723,-1,3
538,5.92558,4.719,-1,3
539,5.93029,4.709,-1,3
540,5.93500,4.702,-1,3
541,5.93969,4.692,-1,3
542,5.94437,4.685,-1,3
543,5.94905,4.680,-1,3
544,5.95373,4.674,-1,3
545,5.95839,4.660,-1,3
546,5.96304,4.649,-1,3
547,5.96768,4.643,-1,3
548,5.97231,4.634,-1,3
549,5.97694,4.626,-1,3
550,5.98155,4.615,-1,3
551,5.98616,4.603,-1,3
552,5.99074,4.590,-1,3
553,5.99533,4.586,-1,3
554,5.99991,4.574,-1,3
555,6.00447,4.566,-1,3
556,6.00902,4.551,-1,3
557,6.01809,4.528,-1,3
558,6.02261,4.524,-1,3
559,6.02712,4.509,-1,3
560,6.03162,4.495,-1,3
561,6.03610,4.484,-1,3
562,6.04057,4.468,-1,3
563,6.04503,4.458,-1,3
564,6.04947,4.445,-1,3
565,6.05391,4.436,-1,3
566,6.05833,4.420,-1,3
567,6.06273,4.405,-1,3
568,6.06712,4.390,-1,3
569,6.07150,4.379,-1,3
570,6.07587,4.370,-1,3
571,6.08023,4.359,-1,3
572,6.08457,4.343,-1,3
573,6.08890,4.326,-1,3
574,6.09321,4.310,-1,3
575,6.09751,4.302,-1,3
576,6.10180,4.290,-1,3
577,6.11033,4.255,-1,3
578,6.11458,4.242,-1,3
579,6.11881,4.230,-1,3
580,6.12302,4.217,-1,3
581,6.12723,4.205,-1,3
582,6.13142,4.187,-1,3
583,6.13559,4.173,-1,3
584,6.13975,4.158,-1,3
585,6.14389,4.147,-1,3
586,6.14803,4.133,-1,3
587,6.15215,4.120,-1,3
588,6.15625,4.103,-1,3
589,6.16034,4.088,-1,3
590,6.16441,4.072,-1,3
591,6.16847,4.064,-1,3
592,6.17253,4.052,-1,3
593,6.17656,4.038,-1,3
594,6.18059,4.022,-1,3
595,6.18459,4.003,-1,3
596,6.18859,3.997,-1,3
597,6.19257,3.983,-1,3
598,6.19654,3.974,-1,3
599,6.20050,3.960,-1,3
600,6.20445,3.943,-1,3
601,6.20838,3.935,-1,3
602,6.21231,3.927,-1,3
603,6.21623,3.918,-1,3
604,6.22013,3.904,-1,3
605,6.22402,3.894,-1,3
606,6.22791,3.882,-1,3
607,6.23178,3.876,-1,3
608,6.23565,3.869,-1,3
609,6.23951,3.857,-1,3
610,6.24335,3.844,-1,3
611,6.24719,3.837,-1,3
612,6.25102,3.832,-1,3
613,6.25484,3.824,-1,3
614,6.25866,3.812,-1,3
615,6.26246,3.802,-1,3
616,6.26625,3.796,-1,3
617,6.27383,3.783,-1,3
618,6.27761,3.779,-1,3
619,6.28138,3.772,-1,3
620,6.28514,3.762,-1,3
621,6.28890,3.758,-1,3
622,6.29265,3.753,-1,3
623,6.29640,3.751,-1,3
624,6.30015,3.747,-1,3
625,6.30389,3.739,-1,3
626,6.31136,3.734,-1,3
627,6.31509,3.730,-1,3
628,6.31882,3.725,-1,3
629,6.32254,3.722,-1,3
630,6.32626,3.719,-1,3
631,6.32998,3.719,-1,3
632,6.33369,3.713,-1,3
633,6.33740,3.712,-1,3
634,6.34111,3.708,-1,3
635,6.34481,3.705,-1,3
636,6.34852,3.703,-1,3
637,6.35222,3.700,-1,3
638,6.35592,3.699,-1,3
639,6.35961,3.698,-1,3
640,6.36331,3.698,-1,3
641,6.36700,3.693,-1,3
642,6.37069,3.689,-1,3
643,6.37438,3.691,-1,3
644,6.37807,3.687,-1,3
645,6.38176,3.688,-1,3
646,6.38544,3.684,-1,3
647,6.38913,3.681,-1,3
648,6.39280,3.678,-1,3
649,6.39648,3.680,-1,3
650,6.40016,3.674,-1,3
651,6.40383,3.671,-1,3
652,6.40750,3.672,-1,3
653,6.41117,3.667,-1,3
654,6.41483,3.663,-1,3
655,6.41849,3.662,-1,3
656,6.42215,3.661,-1,3
657,6.42946,3.655,-1,3
658,6.43312,3.653,-1,3
659,6.43677,3.652,-1,3
660,6.44042,3.647,-1,3
661,6.44406,3.645,-1,3
662,6.44770,3.641,-1,3
663,6.45134,3.640,-1,3
664,6.45498,3.639,-1,3
665,6.45862,3.636,-1,3
666,6.46225,3.633,-1,3
667,6.46588,3.629,-1,3
668,6.46951,3.627,-1,3
669,6.47313,3.626,-1,3
670,6.47676,3.625,-1,3
671,6.48038,3.622,-1,3
672,6.48400,3.622,-1,3
673,6.48762,3.621,-1,3
674,6.49486,3.617,-1,3
675,6.49848,3.619,-1,3
676,6.50210,3.617,-1,3
677,6.50571,3.619,-1,3
678,6.50933,3.620,-1,3
679,6.51296,3.621,-1,3
680,6.51658,3.620,-1,3
681,6.52020,3.622,-1,3
682,6.52382,3.621,-1,3
683,6.52744,3.623,-1,3
684,6.53107,3.628,-1,3
685,6.53470,3.629,-1,3
686,6.53833,3.632,-1,3
687,6.54196,3.632,-1,3
688,6.54560,3.637,-1,3
689,6.54924,3.643,-1,3
690,6.55289,3.646,-1,3
691,6.55654,3.648,-1,3
692,6.56019,3.657,-1,3
693,6.56385,3.661,-1,3
694,6.56752,3.668,-1,3
695,6.57120,3.675,-1,3
696,6.57488,3.685,-1,3
697,6.57857,3.689,-1,3
698,6.58227,3.698,-1,3
699,6.58598,3.707,-1,3
700,6.58969,3.719,-1,3
701,6.59342,3.730,-1,3
702,6.59716,3.740,-1,3
703,6.60091,3.750,-1,3
704,6.60468,3.762,-1,3
705,6.60845,3.776,-1,3
706,6.61225,3.805,-1,3
707,6.61987,3.817,-1,3
708,6.62370,3.834,-1,3
709,6.62370,3.852,-1,3
710,6.63143,3.870,-1,3
711,6.63531,3.886,-1,3
712,6.63922,3.903,-1,3
713,6.64314,3.923,-1,3
714,6.64709,3.946,-1,3
715,6.65105,3.965,-1,3
716,6.65504,3.985,-1,3
717,6.65904,4.006,-1,3
718,6.66307,4.030,-1,3
719,6.66713,4.058,-1,3
720,6.67121,4.080,-1,3
721,6.67531,4.104,-1,3
722,6.67944,4.130,-1,3
723,6.68360,4.189,-1,3
724,6.69201,4.219,-1,3
725,6.69626,4.248,-1,3
726,6.70054,4.282,-1,3
727,6.70485,4.312,-1,3
728,6.70920,4.348,-1,3
729,6.71358,4.383,-1,3
730,6.71800,4.417,-1,3
731,6.72245,4.451,-1,3
732,6.72694,4.492,-1,3
733,6.73147,4.527,-1,3
734,6.73604,4.565,-1,3
735,6.74064,4.603,-1,3
736,6.74528,4.643,-1,3
737,6.74997,4.685,-1,3
738,6.75469,4.726,-1,3
739,6.75946,4.764,-1,3
740,6.76426,4.806,-1,3
741,6.76911,4.850,-1,3
742,6.77401,4.894,-1,3
743,6.77894,4.937,-1,3
744,6.78392,4.978,-1,3
745,6.78895,5.025,-1,3
746,6.79402,5.067,-1,3
747,6.79913,5.112,-1,3
748,6.80428,5.150,-1,3
749,6.80947,5.192,-1,3
750,6.81470,5.235,-1,3
751,6.81998,5.278,-1,3
752,6.82530,5.316,-1,3
753,6.83065,5.350,-1,3
754,6.83604,5.389,-1,3
755,6.84146,5.426,-1,3
756,6.84693,5.463,-1,3
757,6.85242,5.496,-1,3
758,6.85795,5.528,-1,3
759,6.86351,5.590,-1,3
760,6.87472,5.621,-1,3
761,6.88037,5.649,-1,3
762,6.88604,5.671,-1,3
763,6.89173,5.692,-1,3
764,6.89745,5.715,-1,3
765,6.90319,5.740,-1,3
766,6.90894,5.756,-1,3
767,6.91471,5.769,-1,3
768,6.92050,5.786,-1,3
769,6.92630,5.804,-1,3
770,6.93212,5.820,-1,3
771,6.93796,5.833,-1,3
772,6.94380,5.843,-1,3
773,6.95550,5.858,-1,3
774,6.96137,5.867,-1,3
775,6.96725,5.876,-1,3
776,6.97312,5.873,-1,3
777,6.97899,5.876,-1,3
778,6.98487,5.878,-1,3
779,6.99076,5.884,-1,3
780,6.99664,5.882,-1,3
781,7.00253,5.887,-1,3
782,7.00841,5.882,-1,3
783,7.01428,5.873,-1,3
784,7.02016,5.875,-1,3
785,7.02603,5.876,-1,3
786,7.03190,5.868,-1,3
787,7.03776,5.859,-1,3
788,7.04361,5.854,-1,3
789,7.04946,5.847,-1,3
790,7.05530,5.845,-1,3
791,7.06114,5.838,-1,3
792,7.06697,5.829,-1,3
793,7.07279,5.818,-1,3
794,7.07860,5.813,-1,3
795,7.08441,5.806,-1,3
796,7.09021,5.800,-1,3
797,7.09599,5.785,-1,3
798,7.10177,5.776,-1,3
799,7.10753,5.765,-1,3
800,7.11329,5.755,-1,3
801,7.11903,5.739,-1,3
802,7.12475,5.725,-1,3
803,7.13047,5.718,-1,3
804,7.14187,5.691,-1,3
805,7.14755,5.677,-1,3
806,7.15321,5.662,-1,3
807,7.15886,5.649,-1,3
808,7.16449,5.636,-1,3
809,7.17011,5.621,-1,3
810,7.17572,5.607,-1,3
811,7.18131,5.586,-1,3
812,7.18688,5.573,-1,3
813,7.19244,5.558,-1,3
814,7.19798,5.544,-1,3
815,7.20351,5.525,-1,3
816,7.20901,5.509,-1,3
817,7.21452,5.501,-1,3
818,7.22547,5.469,-1,3
819,7.23093,5.452,-1,3
820,7.23636,5.427,-1,3
821,7.24720,5.413,-1,3
822,7.25259,5.391,-1,3
823,7.25797,5.380,-1,3
824,7.26334,5.364,-1,3
825,7.26869,5.353,-1,3
826,7.27403,5.339,-1,3
827,7.27935,5.321,-1,3
828,7.28466,5.306,-1,3
829,7.28995,5.296,-1,3
830,7.29523,5.282,-1,3
831,7.30050,5.263,-1,3
832,7.30575,5.251,-1,3
833,7.31099,5.237,-1,3
834,7.31621,5.219,-1,3
835,7.32141,5.203,-1,3
836,7.32660,5.192,-1,3
837,7.33178,5.176,-1,3
838,7.33694,5.164,-1,3
839,7.34209,5.147,-1,3
840,7.34722,5.136,-1,3
841,7.35234,5.120,-1,3
842,7.35745,5.109,-1,3
843,7.36255,5.093,-1,3
844,7.36763,5.081,-1,3
845,7.37269,5.063,-1,3
846,7.37774,5.051,-1,3
847,7.38278,5.037,-1,3
848,7.38780,5.021,-1,3
849,7.39281,5.008,-1,3
850,7.39780,4.992,-1,3
851,7.40277,4.973,-1,3
852,7.40773,4.960,-1,3
853,7.41268,4.950,-1,3
854,7.41762,4.936,-1,3
855,7.42254,4.920,-1,3
856,7.42744,4.904,-1,3
857,7.43233,4.891,-1,3
858,7.43721,4.878,-1,3
859,7.44207,4.865,-1,3
860,7.45176,4.834,-1,3
861,7.45657,4.815,-1,3
862,7.46138,4.802,-1,3
863,7.46617,4.792,-1,3
864,7.47095,4.780,-1,3
865,7.47571,4.760,-1,3
866,7.48045,4.745,-1,3
867,7.48519,4.734,-1,3
868,7.48991,4.720,-1,3
869,7.49462,4.709,-1,3
870,7.49931,4.691,-1,3
871,7.50865,4.662,-1,3
872,7.51330,4.652,-1,3
873,7.51793,4.635,-1,3
