cnt,pos,speed,Dir,Force,
1,4.19240,1.005,-1,1
2,4.19342,1.022,-1,1
3,4.19446,1.038,-1,1
4,4.19552,1.059,-1,1
5,4.19660,1.082,-1,1
6,4.19771,1.104,-1,1
7,4.19882,1.119,-1,1
8,4.19996,1.134,-1,1
9,4.20112,1.157,-1,1
10,4.20230,1.182,-1,1
11,4.20351,1.208,-1,1
12,4.20473,1.225,-1,1
13,4.20597,1.239,-1,1
14,4.20723,1.257,-1,1
15,4.20851,1.282,-1,1
16,4.20982,1.307,-1,1
17,4.21115,1.333,-1,1
18,4.21386,1.361,-1,1
19,4.21524,1.382,-1,1
20,4.21665,1.409,-1,1
21,4.21808,1.434,-1,1
22,4.21954,1.456,-1,1
23,4.22101,1.472,-1,1
24,4.22249,1.482,-1,1
25,4.22400,1.506,-1,1
26,4.22553,1.560,-1,1
27,4.22709,1.575,-1,1
28,4.22866,1.575,-1,1
29,4.23025,1.587,-1,1
30,4.23185,1.602,-1,1
31,4.23348,1.622,-1,1
32,4.23512,1.647,-1,1
33,4.23679,1.670,-1,1
34,4.23848,1.684,-1,1
35,4.24017,1.694,-1,1
36,4.24188,1.707,-1,1
37,4.24361,1.728,-1,1
38,4.24536,1.749,-1,1
39,4.24712,1.766,-1,1
40,4.24890,1.779,-1,1
41,4.25069,1.785,-1,1
42,4.25248,1.798,-1,1
43,4.25429,1.808,-1,1
44,4.25612,1.826,-1,1
45,4.25796,1.839,-1,1
46,4.25981,1.849,-1,1
47,4.26166,1.856,-1,1
48,4.26352,1.863,-1,1
49,4.26539,1.870,-1,1
50,4.26728,1.885,-1,1
51,4.26918,1.897,-1,1
52,4.27108,1.904,-1,1
53,4.27299,1.909,-1,1
54,4.27490,1.910,-1,1
55,4.27682,1.917,-1,1
56,4.27874,1.925,-1,1
57,4.28067,1.930,-1,1
58,4.28261,1.937,-1,1
59,4.28455,1.940,-1,1
60,4.28649,1.941,-1,1
61,4.28843,1.941,-1,1
62,4.29038,1.945,-1,1
63,4.29233,1.949,-1,1
64,4.29428,1.952,-1,1
65,4.29623,1.956,-1,1
66,4.29819,1.954,-1,1
67,4.30014,1.951,-1,1
68,4.30209,1.951,-1,1
69,4.30404,1.950,-1,1
70,4.30599,1.951,-1,1
71,4.30794,1.951,-1,1
72,4.30989,1.950,-1,1
73,4.31184,1.944,-1,1
74,4.31572,1.941,-1,1
75,4.31766,1.938,-1,1
76,4.31960,1.938,-1,1
77,4.32154,1.937,-1,1
78,4.32347,1.933,-1,1
79,4.32540,1.928,-1,1
80,4.32732,1.922,-1,1
81,4.32924,1.919,-1,1
82,4.33115,1.915,-1,1
83,4.33307,1.914,-1,1
84,4.33498,1.909,-1,1
85,4.33688,1.900,-1,1
86,4.33877,1.896,-1,1
87,4.34066,1.891,-1,1
88,4.34255,1.886,-1,1
89,4.34443,1.882,-1,1
90,4.34631,1.876,-1,1
91,4.34818,1.873,-1,1
92,4.35005,1.866,-1,1
93,4.35191,1.858,-1,1
94,4.35376,1.852,-1,1
95,4.35560,1.847,-1,1
96,4.35745,1.843,-1,1
97,4.35928,1.837,-1,1
98,4.36111,1.830,-1,1
99,4.36294,1.827,-1,1
100,4.36476,1.818,-1,1
101,4.36657,1.812,-1,1
102,4.36838,1.807,-1,1
103,4.37018,1.802,-1,1
104,4.37198,1.797,-1,1
105,4.37377,1.790,-1,1
106,4.37555,1.779,-1,1
107,4.37733,1.774,-1,1
108,4.37910,1.769,-1,1
109,4.38263,1.761,-1,1
110,4.38439,1.757,-1,1
111,4.38614,1.751,-1,1
112,4.38789,1.745,-1,1
113,4.38963,1.740,-1,1
114,4.39136,1.735,-1,1
115,4.39309,1.728,-1,1
116,4.39481,1.721,-1,1
117,4.39653,1.719,-1,1
118,4.39824,1.714,-1,1
119,4.39995,1.708,-1,1
120,4.40166,1.704,-1,1
121,4.40335,1.697,-1,1
122,4.40505,1.693,-1,1
123,4.40674,1.690,-1,1
124,4.40842,1.686,-1,1
125,4.41010,1.682,-1,1
126,4.41178,1.676,-1,1
127,4.41345,1.673,-1,1
128,4.41512,1.670,-1,1
129,4.41679,1.667,-1,1
130,4.41845,1.664,-1,1
131,4.42011,1.660,-1,1
132,4.42177,1.657,-1,1
133,4.42343,1.654,-1,1
134,4.42673,1.650,-1,1
135,4.42838,1.645,-1,1
136,4.43002,1.642,-1,1
137,4.43166,1.641,-1,1
138,4.43330,1.641,-1,1
139,4.43494,1.639,-1,1
140,4.43657,1.636,-1,1
141,4.43821,1.636,-1,1
142,4.43985,1.634,-1,1
143,4.44148,1.635,-1,1
144,4.44311,1.634,-1,1
145,4.44475,1.635,-1,1
146,4.44638,1.635,-1,1
147,4.44802,1.636,-1,1
148,4.44966,1.636,-1,1
149,4.45129,1.637,-1,1
150,4.45293,1.638,-1,1
151,4.45457,1.639,-1,1
152,4.45621,1.644,-1,1
153,4.45786,1.642,-1,1
154,4.45950,1.641,-1,1
155,4.46114,1.645,-1,1
156,4.46279,1.650,-1,1
157,4.46445,1.655,-1,1
158,4.46610,1.655,-1,1
159,4.46776,1.657,-1,1
160,4.46942,1.662,-1,1
161,4.47109,1.669,-1,1
162,4.47276,1.673,-1,1
163,4.47443,1.673,-1,1
164,4.47611,1.677,-1,1
165,4.47779,1.683,-1,1
166,4.47948,1.690,-1,1
167,4.48118,1.698,-1,1
168,4.48288,1.698,-1,1
169,4.48458,1.704,-1,1
170,4.48630,1.720,-1,1
171,4.48974,1.724,-1,1
172,4.49147,1.728,-1,1
173,4.49321,1.739,-1,1
174,4.49496,1.746,-1,1
175,4.49671,1.752,-1,1
176,4.49847,1.759,-1,1
177,4.50023,1.767,-1,1
178,4.50201,1.777,-1,1
179,4.50380,1.786,-1,1
180,4.50559,1.791,-1,1
181,4.50738,1.796,-1,1
182,4.50919,1.809,-1,1
183,4.51102,1.823,-1,1
184,4.51285,1.833,-1,1
185,4.51468,1.833,-1,1
186,4.51653,1.842,-1,1
187,4.51839,1.863,-1,1
188,4.52026,1.873,-1,1
189,4.52214,1.881,-1,1
190,4.52403,1.887,-1,1
191,4.52593,1.901,-1,1
192,4.52785,1.919,-1,1
193,4.52978,1.928,-1,1
194,4.53171,1.936,-1,1
195,4.53366,1.950,-1,1
196,4.53563,1.967,-1,1
197,4.53761,1.980,-1,1
198,4.53960,1.987,-1,1
199,4.54160,2.001,-1,1
200,4.54362,2.016,-1,1
201,4.54565,2.033,-1,1
202,4.54769,2.060,-1,1
203,4.55391,2.086,-1,1
204,4.55601,2.101,-1,1
205,4.55813,2.118,-1,1
206,4.56027,2.134,-1,1
207,4.56241,2.147,-1,1
208,4.56458,2.163,-1,1
209,4.56676,2.181,-1,1
210,4.56895,2.196,-1,1
211,4.57116,2.210,-1,1
212,4.57339,2.228,-1,1
213,4.57564,2.263,-1,1
214,4.58018,2.277,-1,1
215,4.58247,2.295,-1,1
216,4.58478,2.313,-1,1
217,4.58712,2.330,-1,1
218,4.58946,2.347,-1,1
219,4.59183,2.368,-1,1
220,4.59421,2.381,-1,1
221,4.59661,2.402,-1,1
222,4.59904,2.423,-1,1
223,4.60147,2.436,-1,1
224,4.60393,2.457,-1,1
225,4.60641,2.478,-1,1
226,4.60890,2.496,-1,1
227,4.61142,2.515,-1,1
228,4.61395,2.535,-1,1
229,4.61651,2.555,-1,1
230,4.61908,2.576,-1,1
231,4.62168,2.595,-1,1
232,4.62430,2.616,-1,1
233,4.62693,2.639,-1,1
234,4.62959,2.658,-1,1
235,4.63227,2.678,-1,1
236,4.63497,2.699,-1,1
237,4.63769,2.722,-1,1
238,4.64043,2.743,-1,1
239,4.64320,2.765,-1,1
240,4.64598,2.785,-1,1
241,4.64879,2.806,-1,1
242,4.65162,2.828,-1,1
243,4.65447,2.852,-1,1
244,4.65734,2.873,-1,1
245,4.66024,2.899,-1,1
246,4.66316,2.919,-1,1
247,4.66610,2.941,-1,1
248,4.66906,2.964,-1,1
249,4.67205,2.986,-1,1
250,4.67506,3.008,-1,1
251,4.67809,3.032,-1,1
252,4.68115,3.077,-1,1
253,4.68422,3.099,-1,1
254,4.68732,3.120,-1,1
255,4.69359,3.146,-1,1
256,4.69675,3.167,-1,1
257,4.69994,3.190,-1,1
258,4.70316,3.213,-1,1
259,4.70640,3.238,-1,1
260,4.70966,3.262,-1,1
261,4.71294,3.285,-1,1
262,4.71625,3.306,-1,1
263,4.71958,3.330,-1,1
264,4.72293,3.357,-1,1
265,4.72632,3.382,-1,1
266,4.72972,3.402,-1,1
267,4.73315,3.429,-1,1
268,4.73660,3.453,-1,1
269,4.74008,3.480,-1,1
270,4.74358,3.503,-1,1
271,4.74711,3.529,-1,1
272,4.75067,3.555,-1,1
273,4.75425,3.578,-1,1
274,4.75785,3.606,-1,1
275,4.76148,3.629,-1,1
276,4.76514,3.659,-1,1
277,4.76882,3.682,-1,1
278,4.77252,3.702,-1,1
279,4.77626,3.733,-1,1
280,4.78001,3.757,-1,1
281,4.78380,3.783,-1,1
282,4.78761,3.808,-1,1
283,4.79144,3.833,-1,1
284,4.79530,3.858,-1,1
285,4.79918,3.883,-1,1
286,4.80309,3.908,-1,1
287,4.80702,3.934,-1,1
288,4.81098,3.960,-1,1
289,4.81897,4.007,-1,1
290,4.82301,4.031,-1,1
291,4.82706,4.056,-1,1
292,4.83114,4.076,-1,1
293,4.83524,4.098,-1,1
294,4.83935,4.119,-1,1
295,4.84350,4.144,-1,1
296,4.84766,4.165,-1,1
297,4.85185,4.184,-1,1
298,4.85605,4.203,-1,1
299,4.86027,4.224,-1,1
300,4.86452,4.241,-1,1
301,4.86878,4.264,-1,1
302,4.87306,4.280,-1,1
303,4.87736,4.302,-1,1
304,4.88168,4.320,-1,1
305,4.88602,4.334,-1,1
306,4.89037,4.351,-1,1
307,4.89473,4.367,-1,1
308,4.89911,4.381,-1,1
309,4.90351,4.398,-1,1
310,4.90792,4.412,-1,1
311,4.91235,4.423,-1,1
312,4.91678,4.434,-1,1
313,4.92123,4.447,-1,1
314,4.92569,4.460,-1,1
315,4.93016,4.472,-1,1
316,4.93464,4.477,-1,1
317,4.93912,4.498,-1,1
318,4.94813,4.504,-1,1
319,4.95264,4.515,-1,1
320,4.95716,4.517,-1,1
321,4.96168,4.523,-1,1
322,4.96621,4.530,-1,1
323,4.97074,4.534,-1,1
324,4.97528,4.536,-1,1
325,4.97982,4.538,-1,1
326,4.98435,4.538,-1,1
327,4.98890,4.540,-1,1
328,4.99343,4.538,-1,1
329,4.99797,4.538,-1,1
330,5.00251,4.538,-1,1
331,5.00705,4.538,-1,1
332,5.01158,4.533,-1,1
333,5.01611,4.529,-1,1
334,5.02064,4.529,-1,1
335,5.02516,4.521,-1,1
336,5.02968,4.519,-1,1
337,5.03419,4.511,-1,1
338,5.03869,4.503,-1,1
339,5.04319,4.495,-1,1
340,5.04768,4.489,-1,1
341,5.05216,4.479,-1,1
342,5.05663,4.471,-1,1
343,5.06109,4.463,-1,1
344,5.06554,4.453,-1,1
345,5.06999,4.448,-1,1
346,5.07443,4.441,-1,1
347,5.07886,4.433,-1,1
348,5.08329,4.424,-1,1
349,5.09212,4.412,-1,1
350,5.09653,4.407,-1,1
351,5.10093,4.400,-1,1
352,5.10532,4.394,-1,1
353,5.10971,4.387,-1,1
354,5.11409,4.380,-1,1
355,5.11846,4.374,-1,1
356,5.12283,4.367,-1,1
357,5.12719,4.359,-1,1
358,5.13154,4.351,-1,1
359,5.13588,4.341,-1,1
360,5.14021,4.334,-1,1
361,5.14454,4.326,-1,1
362,5.14886,4.317,-1,1
363,5.15317,4.312,-1,1
364,5.15747,4.301,-1,1
365,5.16177,4.298,-1,1
366,5.16606,4.290,-1,1
367,5.17034,4.286,-1,1
368,5.17462,4.278,-1,1
369,5.17889,4.272,-1,1
370,5.18316,4.265,-1,1
371,5.18742,4.261,-1,1
372,5.19167,4.251,-1,1
373,5.19592,4.246,-1,1
374,5.20015,4.237,-1,1
375,5.20439,4.231,-1,1
376,5.20861,4.223,-1,1
377,5.21282,4.216,-1,1
378,5.21703,4.209,-1,1
379,5.22124,4.205,-1,1
380,5.22544,4.198,-1,1
381,5.22963,4.192,-1,1
382,5.23382,4.188,-1,1
383,5.23800,4.179,-1,1
384,5.24217,4.173,-1,1
385,5.24633,4.166,-1,1
386,5.25050,4.155,-1,1
387,5.25880,4.151,-1,1
388,5.26295,4.143,-1,1
389,5.26708,4.137,-1,1
390,5.27121,4.128,-1,1
391,5.27533,4.123,-1,1
392,5.27945,4.118,-1,1
393,5.28357,4.113,-1,1
394,5.28767,4.104,-1,1
395,5.29177,4.096,-1,1
396,5.29586,4.090,-1,1
397,5.29994,4.085,-1,1
398,5.30402,4.078,-1,1
399,5.31216,4.066,-1,1
400,5.31622,4.058,-1,1
401,5.32027,4.053,-1,1
402,5.32431,4.045,-1,1
403,5.32835,4.040,-1,1
404,5.33239,4.036,-1,1
405,5.33642,4.028,-1,1
406,5.34044,4.019,-1,1
407,5.34445,4.014,-1,1
408,5.34845,4.005,-1,1
409,5.35245,3.997,-1,1
410,5.35645,3.993,-1,1
411,5.36044,3.991,-1,1
412,5.36442,3.981,-1,1
413,5.36839,3.971,-1,1
414,5.37236,3.969,-1,1
415,5.37632,3.961,-1,1
416,5.38027,3.956,-1,1
417,5.38423,3.952,-1,1
418,5.38817,3.946,-1,1
419,5.39211,3.936,-1,1
420,5.39604,3.931,-1,1
421,5.39996,3.923,-1,1
422,5.40388,3.919,-1,1
423,5.40779,3.911,-1,1
424,5.41170,3.905,-1,1
425,5.41559,3.897,-1,1
426,5.41948,3.889,-1,1
427,5.42337,3.884,-1,1
428,5.42724,3.876,-1,1
429,5.43111,3.867,-1,1
430,5.43883,3.858,-1,1
431,5.44268,3.849,-1,1
432,5.44652,3.845,-1,1
433,5.45036,3.837,-1,1
434,5.45419,3.831,-1,1
435,5.45801,3.823,-1,1
436,5.46183,3.817,-1,1
437,5.46564,3.810,-1,1
438,5.46945,3.807,-1,1
439,5.47325,3.799,-1,1
440,5.47704,3.793,-1,1
441,5.48082,3.782,-1,1
442,5.48460,3.775,-1,1
443,5.48837,3.771,-1,1
444,5.49213,3.764,-1,1
445,5.49589,3.757,-1,1
446,5.49964,3.748,-1,1
447,5.50338,3.743,-1,1
448,5.50711,3.736,-1,1
449,5.51084,3.729,-1,1
450,5.51457,3.726,-1,1
451,5.51829,3.719,-1,1
452,5.52200,3.712,-1,1
453,5.52571,3.705,-1,1
454,5.52940,3.695,-1,1
455,5.53309,3.694,-1,1
456,5.53678,3.684,-1,1
457,5.54046,3.679,-1,1
458,5.54413,3.676,-1,1
459,5.54780,3.667,-1,1
460,5.55146,3.659,-1,1
461,5.55511,3.653,-1,1
462,5.55876,3.651,-1,1
463,5.56240,3.640,-1,1
464,5.56604,3.636,-1,1
465,5.56967,3.626,-1,1
466,5.57329,3.623,-1,1
467,5.57690,3.616,-1,1
468,5.58412,3.604,-1,1
469,5.58772,3.599,-1,1
470,5.59131,3.591,-1,1
471,5.59490,3.585,-1,1
472,5.59847,3.578,-1,1
473,5.60204,3.570,-1,1
474,5.60561,3.567,-1,1
475,5.60917,3.560,-1,1
476,5.61272,3.553,-1,1
477,5.61627,3.545,-1,1
478,5.61981,3.539,-1,1
479,5.62334,3.531,-1,1
480,5.62686,3.525,-1,1
481,5.63038,3.521,-1,1
482,5.63390,3.515,-1,1
483,5.63740,3.505,-1,1
484,5.64090,3.499,-1,1
485,5.64440,3.494,-1,1
486,5.64788,3.486,-1,1
487,5.65136,3.482,-1,1
488,5.65484,3.476,-1,1
489,5.65831,3.468,-1,1
490,5.66868,3.452,-1,1
491,5.67213,3.444,-1,1
492,5.67557,3.443,-1,1
493,5.67900,3.429,-1,1
494,5.68242,3.423,-1,1
495,5.68584,3.416,-1,1
496,5.68925,3.410,-1,1
497,5.69265,3.406,-1,1
498,5.69605,3.397,-1,1
499,5.69944,3.392,-1,1
500,5.70283,3.385,-1,1
501,5.70620,3.377,-1,1
502,5.70957,3.369,-1,1
503,5.71294,3.365,-1,1
504,5.71629,3.355,-1,1
505,5.71965,3.354,-1,1
506,5.72299,3.347,-1,1
507,5.72633,3.340,-1,1
508,5.72967,3.336,-1,1
509,5.73300,3.327,-1,1
510,5.73632,3.319,-1,1
511,5.73962,3.310,-1,1
512,5.74293,3.305,-1,1
513,5.74623,3.300,-1,1
514,5.74952,3.295,-1,1
515,5.75281,3.287,-1,1
516,5.75609,3.279,-1,1
517,5.75936,3.270,-1,1
518,5.76263,3.267,-1,1
519,5.76589,3.260,-1,1
520,5.76914,3.256,-1,1
521,5.77239,3.249,-1,1
522,5.77563,3.239,-1,1
523,5.77887,3.234,-1,1
524,5.78210,3.229,-1,1
525,5.78854,3.220,-1,1
526,5.79175,3.216,-1,1
527,5.79497,3.214,-1,1
528,5.79818,3.215,-1,1
529,5.80139,3.207,-1,1
530,5.80459,3.201,-1,1
531,5.80779,3.195,-1,1
532,5.81097,3.189,-1,1
533,5.81416,3.186,-1,1
534,5.81734,3.178,-1,1
535,5.82051,3.174,-1,1
536,5.82368,3.166,-1,1
537,5.82684,3.161,-1,1
538,5.82999,3.153,-1,1
539,5.83314,3.151,-1,1
540,5.83629,3.147,-1,1
541,5.83943,3.140,-1,1
542,5.84257,3.139,-1,1
543,5.84570,3.131,-1,1
544,5.84882,3.124,-1,1
545,5.85195,3.122,-1,1
546,5.85506,3.114,-1,1
547,5.85817,3.111,-1,1
548,5.86127,3.102,-1,1
549,5.86437,3.099,-1,1
550,5.86746,3.090,-1,1
551,5.87055,3.085,-1,1
552,5.87362,3.077,-1,1
553,5.87669,3.069,-1,1
554,5.87976,3.067,-1,1
555,5.88282,3.063,-1,1
556,5.88894,3.054,-1,1
557,5.89199,3.051,-1,1
558,5.89504,3.048,-1,1
559,5.89808,3.041,-1,1
560,5.90111,3.036,-1,1
561,5.90414,3.032,-1,1
562,5.90717,3.027,-1,1
563,5.91019,3.024,-1,1
564,5.91321,3.016,-1,1
565,5.91622,3.012,-1,1
566,5.91923,3.007,-1,1
567,5.92524,3.000,-1,1
568,5.92824,3.001,-1,1
569,5.93123,2.997,-1,1
570,5.93423,3.000,-1,1
571,5.93723,2.999,-1,1
572,5.94023,2.999,-1,1
573,5.94324,3.005,-1,1
574,5.94625,3.010,-1,1
575,5.94926,3.013,-1,1
576,5.95228,3.018,-1,1
577,5.95530,3.026,-1,1
578,5.95833,3.028,-1,1
579,5.96136,3.033,-1,1
580,5.96440,3.037,-1,1
581,5.96745,3.046,-1,1
582,5.97050,3.053,-1,1
583,5.97357,3.063,-1,1
584,5.97664,3.071,-1,1
585,5.97972,3.085,-1,1
586,5.98282,3.103,-1,1
587,5.98594,3.117,-1,1
588,5.98908,3.137,-1,1
589,5.99224,3.158,-1,1
590,5.99541,3.171,-1,1
591,5.99859,3.187,-1,1
592,6.00180,3.203,-1,1
593,6.00502,3.224,-1,1
594,6.00826,3.243,-1,1
595,6.01153,3.265,-1,1
596,6.01482,3.290,-1,1
597,6.01813,3.314,-1,1
598,6.02147,3.334,-1,1
599,6.02481,3.339,-1,1
600,6.02816,3.351,-1,1
601,6.03152,3.366,-1,1
602,6.03492,3.395,-1,1
603,6.03835,3.433,-1,1
604,6.04182,3.506,-1,1
605,6.04886,3.533,-1,1
606,6.05242,3.559,-1,1
607,6.05601,3.594,-1,1
608,6.05965,3.634,-1,1
609,6.06331,3.665,-1,1
610,6.06701,3.695,-1,1
611,6.07072,3.715,-1,1
612,6.07445,3.734,-1,1
613,6.07822,3.761,-1,1
614,6.08202,3.799,-1,1
615,6.08585,3.836,-1,1
616,6.08973,3.881,-1,1
617,6.09365,3.917,-1,1
618,6.09760,3.949,-1,1
619,6.10158,3.977,-1,1
620,6.10558,4.006,-1,1
621,6.10962,4.044,-1,1
622,6.11370,4.079,-1,1
623,6.11782,4.115,-1,1
624,6.12197,4.147,-1,1
625,6.12614,4.175,-1,1
626,6.13034,4.200,-1,1
627,6.13457,4.229,-1,1
628,6.13884,4.269,-1,1
629,6.14314,4.305,-1,1
630,6.14748,4.335,-1,1
631,6.15183,4.355,-1,1
632,6.15621,4.380,-1,1
633,6.16062,4.409,-1,1
634,6.16507,4.444,-1,1
635,6.16955,4.480,-1,1
636,6.17404,4.504,-1,1
637,6.18306,4.509,-1,1
638,6.18758,4.523,-1,1
639,6.19213,4.549,-1,1
640,6.19670,4.571,-1,1
641,6.20129,4.587,-1,1
642,6.20588,4.596,-1,1
643,6.21049,4.609,-1,1
644,6.21511,4.616,-1,1
645,6.21974,4.629,-1,1
646,6.22438,4.641,-1,1
647,6.22903,4.651,-1,1
648,6.23369,4.657,-1,1
649,6.23834,4.659,-1,1
650,6.24301,4.662,-1,1
651,6.24768,4.669,-1,1
652,6.25235,4.675,-1,1
653,6.25703,4.680,-1,1
654,6.26171,4.683,-1,1
655,6.26640,4.686,-1,1
656,6.27108,4.683,-1,1
657,6.27577,4.683,-1,1
658,6.28045,4.687,-1,1
659,6.28514,4.687,-1,1
660,6.28983,4.687,-1,1
661,6.29451,4.681,-1,1
662,6.29918,4.674,-1,1
663,6.30385,4.669,-1,1
664,6.30852,4.667,-1,1
665,6.31785,4.669,-1,1
666,6.32252,4.664,-1,1
667,6.32718,4.657,-1,1
668,6.33182,4.646,-1,1
669,6.33646,4.641,-1,1
670,6.34110,4.642,-1,1
671,6.34574,4.639,-1,1
672,6.35037,4.629,-1,1
673,6.35499,4.617,-1,1
674,6.35960,4.615,-1,1
675,6.36421,4.610,-1,1
676,6.36882,4.608,-1,1
677,6.37342,4.601,-1,1
678,6.37802,4.592,-1,1
679,6.38260,4.582,-1,1
680,6.38718,4.577,-1,1
681,6.39175,4.574,-1,1
682,6.39632,4.569,-1,1
683,6.40088,4.560,-1,1
684,6.40543,4.554,-1,1
685,6.40998,4.544,-1,1
686,6.41451,4.537,-1,1
687,6.41905,4.535,-1,1
688,6.42358,4.531,-1,1
689,6.42810,4.520,-1,1
690,6.43261,4.513,-1,1
691,6.43712,4.511,-1,1
692,6.44162,4.501,-1,1
693,6.44612,4.500,-1,1
694,6.45061,4.490,-1,1
695,6.45510,4.486,-1,1
696,6.45958,4.477,-1,1
697,6.46405,4.473,-1,1
698,6.46851,4.464,-1,1
699,6.47297,4.457,-1,1
700,6.47742,4.450,-1,1
701,6.48187,4.446,-1,1
702,6.48631,4.440,-1,1
703,6.49517,4.431,-1,1
704,6.49960,4.426,-1,1
705,6.50402,4.419,-1,1
706,6.50844,4.416,-1,1
707,6.51285,4.414,-1,1
708,6.51726,4.408,-1,1
709,6.52166,4.404,-1,1
710,6.52606,4.396,-1,1
711,6.53045,4.395,-1,1
712,6.53484,4.387,-1,1
713,6.53922,4.384,-1,1
714,6.54360,4.378,-1,1
715,6.54798,4.375,-1,1
716,6.55235,4.369,-1,1
717,6.55671,4.364,-1,1
718,6.56107,4.358,-1,1
719,6.56542,4.351,-1,1
720,6.56977,4.351,-1,1
721,6.57412,4.350,-1,1
722,6.57846,4.345,-1,1
723,6.58280,4.336,-1,1
724,6.58713,4.331,-1,1
725,6.59146,4.326,-1,1
726,6.59578,4.322,-1,1
727,6.60010,4.319,-1,1
728,6.60442,4.318,-1,1
729,6.60873,4.310,-1,1
730,6.61304,4.306,-1,1
731,6.61734,4.301,-1,1
732,6.62164,4.301,-1,1
733,6.62594,4.301,-1,1
734,6.63024,4.295,-1,1
735,6.63882,4.288,-1,1
736,6.64311,4.296,-1,1
737,6.64742,4.301,-1,1
738,6.65172,4.301,-1,1
739,6.65601,4.297,-1,1
740,6.66031,4.296,-1,1
741,6.66461,4.297,-1,1
742,6.66890,4.297,-1,1
743,6.67320,4.301,-1,1
744,6.67750,4.300,-1,1
745,6.68611,4.304,-1,1
746,6.69041,4.307,-1,1
747,6.69473,4.316,-1,1
748,6.69905,4.316,-1,1
749,6.70337,4.321,-1,1
750,6.70770,4.328,-1,1
751,6.71203,4.333,-1,1
752,6.71638,4.347,-1,1
753,6.72074,4.362,-1,1
754,6.72511,4.370,-1,1
755,6.72949,4.378,-1,1
756,6.73388,4.393,-1,1
757,6.73829,4.407,-1,1
758,6.74271,4.426,-1,1
759,6.74715,4.441,-1,1
760,6.75161,4.457,-1,1
761,6.75608,4.469,-1,1
762,6.76057,4.491,-1,1
763,6.76508,4.515,-1,1
764,6.76962,4.541,-1,1
765,6.77419,4.564,-1,1
766,6.77877,4.584,-1,1
767,6.78339,4.616,-1,1
768,6.78804,4.647,-1,1
769,6.79272,4.680,-1,1
770,6.79743,4.710,-1,1
771,6.80217,4.739,-1,1
772,6.80693,4.765,-1,1
773,6.81173,4.796,-1,1
774,6.81656,4.829,-1,1
775,6.82142,4.866,-1,1
776,6.82632,4.894,-1,1
777,6.83124,4.925,-1,1
778,6.83619,4.953,-1,1
779,6.84118,4.985,-1,1
780,6.84620,5.019,-1,1
781,6.85125,5.056,-1,1
782,6.85634,5.083,-1,1
783,6.86145,5.111,-1,1
784,6.86659,5.140,-1,1
785,6.87176,5.172,-1,1
786,6.87696,5.203,-1,1
787,6.88219,5.232,-1,1
788,6.88746,5.265,-1,1
789,6.89275,5.290,-1,1
790,6.89807,5.323,-1,1
791,6.90343,5.355,-1,1
792,6.90881,5.387,-1,1
793,6.91968,5.449,-1,1
794,6.92516,5.480,-1,1
795,6.93068,5.515,-1,1
796,6.93623,5.551,-1,1
797,6.94182,5.592,-1,1
798,6.94745,5.627,-1,1
799,6.95311,5.664,-1,1
800,6.95881,5.694,-1,1
801,6.96453,5.728,-1,1
802,6.97030,5.768,-1,1
803,6.97610,5.803,-1,1
804,6.98194,5.832,-1,1
805,6.98780,5.859,-1,1
806,6.99369,5.894,-1,1
807,6.99961,5.918,-1,1
808,7.00556,5.949,-1,1
809,7.01153,5.972,-1,1
810,7.01752,5.996,-1,1
811,7.02353,6.011,-1,1
812,7.02957,6.034,-1,1
813,7.03562,6.049,-1,1
814,7.04168,6.066,-1,1
815,7.04776,6.079,-1,1
816,7.05386,6.096,-1,1
817,7.05997,6.109,-1,1
818,7.06609,6.120,-1,1
819,7.07222,6.134,-1,1
820,7.07837,6.147,-1,1
821,7.08453,6.158,-1,1
822,7.09069,6.167,-1,1
823,7.09687,6.175,-1,1
824,7.10924,6.191,-1,1
825,7.11544,6.197,-1,1
826,7.12164,6.204,-1,1
827,7.12785,6.205,-1,1
828,7.13406,6.209,-1,1
829,7.14027,6.210,-1,1
830,7.14648,6.216,-1,1
831,7.15270,6.215,-1,1
832,7.15891,6.215,-1,1
833,7.16513,6.219,-1,1
834,7.17135,6.219,-1,1
835,7.17756,6.212,-1,1
836,7.18377,6.205,-1,1
837,7.18997,6.205,-1,1
838,7.19618,6.203,-1,1
839,7.20237,6.198,-1,1
840,7.20857,6.194,-1,1
841,7.21476,6.188,-1,1
842,7.22094,6.184,-1,1
843,7.22712,6.177,-1,1
844,7.23329,6.169,-1,1
845,7.23945,6.166,-1,1
846,7.24561,6.157,-1,1
847,7.25176,6.150,-1,1
848,7.25790,6.144,-1,1
849,7.26404,6.134,-1,1
850,7.27017,6.131,-1,1
851,7.27629,6.124,-1,1
852,7.28851,6.108,-1,1
853,7.29462,6.105,-1,1
854,7.30071,6.094,-1,1
855,7.30680,6.089,-1,1
856,7.31288,6.081,-1,1
857,7.31896,6.073,-1,1
858,7.32502,6.062,-1,1
859,7.33107,6.053,-1,1
860,7.33711,6.045,-1,1
861,7.34316,6.042,-1,1
862,7.34919,6.038,-1,1
863,7.35523,6.032,-1,1
864,7.36125,6.025,-1,1
865,7.36727,6.015,-1,1
866,7.37328,6.013,-1,1
867,7.37929,6.008,-1,1
868,7.38528,5.997,-1,1
869,7.39127,5.983,-1,1
870,7.39725,5.980,-1,1
871,7.40322,5.971,-1,1
872,7.40918,5.964,-1,1
873,7.41514,5.956,-1,1
