cnt,pos,speed,Dir,Force,
1,4.21193,1.003,-1,3
2,4.21295,1.013,-1,3
3,4.21398,1.030,-1,3
4,4.21503,1.049,-1,3
5,4.21609,1.064,-1,3
6,4.21716,1.071,-1,3
7,4.21824,1.085,-1,3
8,4.21935,1.105,-1,3
9,4.22048,1.127,-1,3
10,4.22162,1.139,-1,3
11,4.22276,1.145,-1,3
12,4.22392,1.162,-1,3
13,4.22512,1.192,-1,3
14,4.22633,1.215,-1,3
15,4.22755,1.224,-1,3
16,4.22879,1.232,-1,3
17,4.23004,1.254,-1,3
18,4.23132,1.282,-1,3
19,4.23263,1.306,-1,3
20,4.23395,1.320,-1,3
21,4.23528,1.335,-1,3
22,4.23664,1.358,-1,3
23,4.23802,1.380,-1,3
24,4.23943,1.404,-1,3
25,4.24085,1.423,-1,3
26,4.24229,1.443,-1,3
27,4.24376,1.466,-1,3
28,4.24677,1.511,-1,3
29,4.24830,1.532,-1,3
30,4.24986,1.558,-1,3
31,4.25144,1.586,-1,3
32,4.25305,1.608,-1,3
33,4.25468,1.629,-1,3
34,4.25633,1.649,-1,3
35,4.25801,1.677,-1,3
36,4.25971,1.707,-1,3
37,4.26144,1.728,-1,3
38,4.26319,1.750,-1,3
39,4.26496,1.771,-1,3
40,4.26676,1.802,-1,3
41,4.26859,1.830,-1,3
42,4.27045,1.852,-1,3
43,4.27232,1.869,-1,3
44,4.27421,1.899,-1,3
45,4.27614,1.927,-1,3
46,4.27809,1.951,-1,3
47,4.28006,1.971,-1,3
48,4.28206,1.994,-1,3
49,4.28408,2.024,-1,3
50,4.28613,2.047,-1,3
51,4.28820,2.067,-1,3
52,4.29029,2.090,-1,3
53,4.29454,2.140,-1,3
54,4.29671,2.161,-1,3
55,4.29889,2.183,-1,3
56,4.30110,2.208,-1,3
57,4.30332,2.228,-1,3
58,4.30557,2.249,-1,3
59,4.30784,2.271,-1,3
60,4.31013,2.291,-1,3
61,4.31244,2.310,-1,3
62,4.31477,2.330,-1,3
63,4.31712,2.349,-1,3
64,4.31949,2.364,-1,3
65,4.32187,2.386,-1,3
66,4.32428,2.404,-1,3
67,4.32669,2.417,-1,3
68,4.32913,2.431,-1,3
69,4.33158,2.450,-1,3
70,4.33404,2.463,-1,3
71,4.33651,2.475,-1,3
72,4.33900,2.488,-1,3
73,4.34150,2.501,-1,3
74,4.34402,2.513,-1,3
75,4.34654,2.524,-1,3
76,4.34907,2.535,-1,3
77,4.35162,2.542,-1,3
78,4.35417,2.551,-1,3
79,4.35673,2.559,-1,3
80,4.35929,2.568,-1,3
81,4.36187,2.573,-1,3
82,4.36703,2.584,-1,3
83,4.36703,2.591,-1,3
84,4.36962,2.595,-1,3
85,4.37482,2.597,-1,3
86,4.37742,2.600,-1,3
87,4.38002,2.609,-1,3
88,4.38263,2.604,-1,3
89,4.38263,2.604,-1,3
90,4.38784,2.608,-1,3
91,4.39045,2.608,-1,3
92,4.39306,2.608,-1,3
93,4.39566,2.605,-1,3
94,4.39827,2.604,-1,3
95,4.40086,2.599,-1,3
96,4.40346,2.600,-1,3
97,4.40606,2.596,-1,3
98,4.40865,2.594,-1,3
99,4.41125,2.591,-1,3
100,4.41382,2.579,-1,3
101,4.41640,2.579,-1,3
102,4.41898,2.578,-1,3
103,4.42155,2.566,-1,3
104,4.42411,2.563,-1,3
105,4.42667,2.558,-1,3
106,4.42922,2.550,-1,3
107,4.43176,2.541,-1,3
108,4.43429,2.536,-1,3
109,4.43682,2.529,-1,3
110,4.43935,2.514,-1,3
111,4.44437,2.505,-1,3
112,4.44686,2.498,-1,3
113,4.44935,2.491,-1,3
114,4.45184,2.481,-1,3
115,4.45431,2.473,-1,3
116,4.45677,2.465,-1,3
117,4.45922,2.451,-1,3
118,4.46167,2.441,-1,3
119,4.46410,2.435,-1,3
120,4.46653,2.430,-1,3
121,4.46895,2.415,-1,3
122,4.47135,2.405,-1,3
123,4.47375,2.396,-1,3
124,4.47613,2.386,-1,3
125,4.47851,2.373,-1,3
126,4.48087,2.368,-1,3
127,4.48323,2.355,-1,3
128,4.48557,2.343,-1,3
129,4.48790,2.333,-1,3
130,4.49023,2.323,-1,3
131,4.49254,2.311,-1,3
132,4.49484,2.306,-1,3
133,4.49714,2.291,-1,3
134,4.49941,2.278,-1,3
135,4.50168,2.271,-1,3
136,4.50395,2.261,-1,3
137,4.50619,2.248,-1,3
138,4.50843,2.228,-1,3
139,4.51287,2.219,-1,3
140,4.51508,2.204,-1,3
141,4.51727,2.189,-1,3
142,4.51945,2.186,-1,3
143,4.52163,2.177,-1,3
144,4.52379,2.160,-1,3
145,4.52594,2.148,-1,3
146,4.52808,2.143,-1,3
147,4.53022,2.133,-1,3
148,4.53233,2.119,-1,3
149,4.53444,2.110,-1,3
150,4.53654,2.100,-1,3
151,4.53863,2.088,-1,3
152,4.54071,2.076,-1,3
153,4.54278,2.068,-1,3
154,4.54483,2.057,-1,3
155,4.54688,2.046,-1,3
156,4.54892,2.037,-1,3
157,4.55095,2.028,-1,3
158,4.55296,2.014,-1,3
159,4.55496,2.001,-1,3
160,4.55696,1.988,-1,3
161,4.56092,1.978,-1,3
162,4.56288,1.960,-1,3
163,4.56288,1.954,-1,3
164,4.56679,1.948,-1,3
165,4.56873,1.939,-1,3
166,4.57065,1.926,-1,3
167,4.57257,1.915,-1,3
168,4.57448,1.909,-1,3
169,4.57638,1.904,-1,3
170,4.57827,1.888,-1,3
171,4.58015,1.881,-1,3
172,4.58202,1.872,-1,3
173,4.58389,1.865,-1,3
174,4.58574,1.856,-1,3
175,4.58759,1.845,-1,3
176,4.58943,1.840,-1,3
177,4.59126,1.833,-1,3
178,4.59308,1.820,-1,3
179,4.59489,1.814,-1,3
180,4.59670,1.810,-1,3
181,4.59851,1.802,-1,3
182,4.60029,1.789,-1,3
183,4.60207,1.779,-1,3
184,4.60385,1.780,-1,3
185,4.60563,1.777,-1,3
186,4.60739,1.763,-1,3
187,4.60915,1.751,-1,3
188,4.61089,1.747,-1,3
189,4.61439,1.746,-1,3
190,4.61612,1.729,-1,3
191,4.61784,1.718,-1,3
192,4.61955,1.719,-1,3
193,4.62128,1.724,-1,3
194,4.62300,1.720,-1,3
195,4.62470,1.702,-1,3
196,4.62639,1.695,-1,3
197,4.62809,1.696,-1,3
198,4.62979,1.701,-1,3
199,4.63149,1.698,-1,3
200,4.63318,1.689,-1,3
201,4.63486,1.679,-1,3
202,4.63654,1.681,-1,3
203,4.63822,1.684,-1,3
204,4.63991,1.684,-1,3
205,4.64159,1.684,-1,3
206,4.64327,1.679,-1,3
207,4.64495,1.677,-1,3
208,4.64662,1.678,-1,3
209,4.64831,1.682,-1,3
210,4.65000,1.690,-1,3
211,4.65169,1.694,-1,3
212,4.65338,1.690,-1,3
213,4.65507,1.689,-1,3
214,4.65677,1.696,-1,3
215,4.66020,1.724,-1,3
216,4.66364,1.720,-1,3
217,4.66538,1.735,-1,3
218,4.66713,1.757,-1,3
219,4.66890,1.770,-1,3
220,4.67068,1.774,-1,3
221,4.67246,1.780,-1,3
222,4.67426,1.800,-1,3
223,4.67608,1.826,-1,3
224,4.67793,1.843,-1,3
225,4.67978,1.848,-1,3
226,4.68164,1.866,-1,3
227,4.68354,1.897,-1,3
228,4.68546,1.923,-1,3
229,4.68740,1.940,-1,3
230,4.68936,1.959,-1,3
231,4.69135,1.986,-1,3
232,4.69337,2.022,-1,3
233,4.69541,2.045,-1,3
234,4.69749,2.072,-1,3
235,4.69959,2.103,-1,3
236,4.70172,2.134,-1,3
237,4.70389,2.167,-1,3
238,4.70609,2.202,-1,3
239,4.70833,2.238,-1,3
240,4.71060,2.303,-1,3
241,4.71290,2.347,-1,3
242,4.71764,2.388,-1,3
243,4.72006,2.422,-1,3
244,4.72252,2.464,-1,3
245,4.72503,2.507,-1,3
246,4.72758,2.552,-1,3
247,4.73018,2.595,-1,3
248,4.73281,2.638,-1,3
249,4.73550,2.681,-1,3
250,4.73822,2.730,-1,3
251,4.74100,2.777,-1,3
252,4.74382,2.819,-1,3
253,4.74669,2.871,-1,3
254,4.74961,2.918,-1,3
255,4.75257,2.964,-1,3
256,4.75559,3.014,-1,3
257,4.75865,3.064,-1,3
258,4.76176,3.106,-1,3
259,4.76492,3.161,-1,3
260,4.76812,3.205,-1,3
261,4.77138,3.257,-1,3
262,4.77468,3.303,-1,3
263,4.77803,3.349,-1,3
264,4.78143,3.398,-1,3
265,4.78837,3.494,-1,3
266,4.79191,3.537,-1,3
267,4.79549,3.582,-1,3
268,4.79911,3.624,-1,3
269,4.80279,3.673,-1,3
270,4.80650,3.714,-1,3
271,4.81026,3.756,-1,3
272,4.81405,3.793,-1,3
273,4.81789,3.834,-1,3
274,4.82176,3.874,-1,3
275,4.82567,3.914,-1,3
276,4.82962,3.944,-1,3
277,4.83360,3.982,-1,3
278,4.83761,4.013,-1,3
279,4.84166,4.049,-1,3
280,4.84574,4.078,-1,3
281,4.84985,4.107,-1,3
282,4.85398,4.136,-1,3
283,4.85815,4.167,-1,3
284,4.86234,4.195,-1,3
285,4.86657,4.220,-1,3
286,4.87081,4.243,-1,3
287,4.87508,4.270,-1,3
288,4.87937,4.291,-1,3
289,4.88369,4.317,-1,3
290,4.88802,4.337,-1,3
291,4.89238,4.354,-1,3
292,4.89675,4.373,-1,3
293,4.90114,4.393,-1,3
294,4.90556,4.411,-1,3
295,4.91442,4.439,-1,3
296,4.91887,4.452,-1,3
297,4.92334,4.470,-1,3
298,4.92782,4.479,-1,3
299,4.93231,4.490,-1,3
300,4.93681,4.500,-1,3
301,4.94132,4.511,-1,3
302,4.94585,4.523,-1,3
303,4.95038,4.533,-1,3
304,4.95492,4.538,-1,3
305,4.95946,4.542,-1,3
306,4.96401,4.555,-1,3
307,4.96857,4.557,-1,3
308,4.97314,4.565,-1,3
309,4.97770,4.567,-1,3
310,4.98228,4.573,-1,3
311,4.98685,4.572,-1,3
312,4.99142,4.576,-1,3
313,4.99600,4.578,-1,3
314,5.00058,4.579,-1,3
315,5.00516,4.577,-1,3
316,5.00974,4.577,-1,3
317,5.01431,4.578,-1,3
318,5.01889,4.574,-1,3
319,5.02346,4.575,-1,3
320,5.02803,4.573,-1,3
321,5.03260,4.566,-1,3
322,5.03716,4.563,-1,3
323,5.04628,4.557,-1,3
324,5.05083,4.550,-1,3
325,5.05538,4.544,-1,3
326,5.05991,4.538,-1,3
327,5.06444,4.531,-1,3
328,5.06897,4.528,-1,3
329,5.07349,4.517,-1,3
330,5.07800,4.512,-1,3
331,5.08250,4.500,-1,3
332,5.08699,4.490,-1,3
333,5.09148,4.487,-1,3
334,5.09596,4.483,-1,3
335,5.10043,4.471,-1,3
336,5.10489,4.459,-1,3
337,5.10934,4.451,-1,3
338,5.11378,4.437,-1,3
339,5.11821,4.431,-1,3
340,5.12263,4.422,-1,3
341,5.12704,4.414,-1,3
342,5.13144,4.398,-1,3
343,5.13583,4.386,-1,3
344,5.14020,4.373,-1,3
345,5.14456,4.362,-1,3
346,5.14891,4.352,-1,3
347,5.15326,4.342,-1,3
348,5.15759,4.328,-1,3
349,5.16190,4.310,-1,3
350,5.16620,4.301,-1,3
351,5.17049,4.292,-1,3
352,5.17904,4.268,-1,3
353,5.18329,4.255,-1,3
354,5.18753,4.226,-1,3
355,5.19175,4.212,-1,3
356,5.19597,4.212,-1,3
357,5.20017,4.200,-1,3
358,5.20435,4.187,-1,3
359,5.20853,4.175,-1,3
360,5.21269,4.158,-1,3
361,5.21683,4.143,-1,3
362,5.22096,4.130,-1,3
363,5.22508,4.119,-1,3
364,5.22919,4.109,-1,3
365,5.23328,4.096,-1,3
366,5.23736,4.080,-1,3
367,5.24143,4.063,-1,3
368,5.24548,4.052,-1,3
369,5.24952,4.044,-1,3
370,5.25355,4.024,-1,3
371,5.25756,4.013,-1,3
372,5.26156,3.998,-1,3
373,5.26554,3.986,-1,3
374,5.26951,3.959,-1,3
375,5.27742,3.947,-1,3
376,5.28135,3.929,-1,3
377,5.28526,3.916,-1,3
378,5.28917,3.902,-1,3
379,5.29306,3.890,-1,3
380,5.29693,3.877,-1,3
381,5.30080,3.864,-1,3
382,5.30465,3.852,-1,3
383,5.30849,3.836,-1,3
384,5.31231,3.824,-1,3
385,5.31612,3.811,-1,3
386,5.31992,3.798,-1,3
387,5.32370,3.784,-1,3
388,5.32748,3.772,-1,3
389,5.33123,3.757,-1,3
390,5.33497,3.742,-1,3
391,5.33870,3.730,-1,3
392,5.34242,3.716,-1,3
393,5.34613,3.705,-1,3
394,5.34982,3.691,-1,3
395,5.35349,3.677,-1,3
396,5.35716,3.664,-1,3
397,5.36081,3.651,-1,3
398,5.36444,3.635,-1,3
399,5.36807,3.627,-1,3
400,5.37168,3.614,-1,3
401,5.37528,3.599,-1,3
402,5.37887,3.575,-1,3
403,5.38601,3.563,-1,3
404,5.38955,3.548,-1,3
405,5.39309,3.535,-1,3
406,5.39661,3.521,-1,3
407,5.40012,3.511,-1,3
408,5.40362,3.500,-1,3
409,5.40710,3.484,-1,3
410,5.41058,3.471,-1,3
411,5.41403,3.456,-1,3
412,5.41748,3.446,-1,3
413,5.42091,3.432,-1,3
414,5.42433,3.421,-1,3
415,5.42774,3.406,-1,3
416,5.43113,3.396,-1,3
417,5.43451,3.380,-1,3
418,5.43788,3.368,-1,3
419,5.44124,3.359,-1,3
420,5.44458,3.344,-1,3
421,5.44792,3.335,-1,3
422,5.45124,3.319,-1,3
423,5.45455,3.310,-1,3
424,5.45784,3.297,-1,3
425,5.46113,3.289,-1,3
426,5.46441,3.276,-1,3
427,5.46767,3.262,-1,3
428,5.47092,3.248,-1,3
429,5.47416,3.229,-1,3
430,5.47739,3.216,-1,3
431,5.48380,3.200,-1,3
432,5.48699,3.191,-1,3
433,5.49017,3.175,-1,3
434,5.49333,3.166,-1,3
435,5.49648,3.151,-1,3
436,5.49962,3.139,-1,3
437,5.50275,3.126,-1,3
438,5.50586,3.112,-1,3
439,5.50897,3.104,-1,3
440,5.51206,3.092,-1,3
441,5.51513,3.077,-1,3
442,5.51820,3.065,-1,3
443,5.52125,3.052,-1,3
444,5.52429,3.041,-1,3
445,5.52732,3.031,-1,3
446,5.53034,3.016,-1,3
447,5.53334,3.005,-1,3
448,5.53633,2.991,-1,3
449,5.53931,2.978,-1,3
450,5.54229,2.973,-1,3
451,5.54524,2.958,-1,3
452,5.54819,2.943,-1,3
453,5.55404,2.920,-1,3
454,5.55695,2.909,-1,3
455,5.55985,2.899,-1,3
456,5.56273,2.884,-1,3
457,5.56561,2.875,-1,3
458,5.56847,2.865,-1,3
459,5.57132,2.852,-1,3
460,5.57417,2.846,-1,3
461,5.57700,2.832,-1,3
462,5.57982,2.821,-1,3
463,5.58263,2.810,-1,3
464,5.58544,2.805,-1,3
465,5.58823,2.797,-1,3
466,5.59101,2.783,-1,3
467,5.59379,2.773,-1,3
468,5.59656,2.768,-1,3
469,5.59931,2.757,-1,3
470,5.60206,2.749,-1,3
471,5.60481,2.743,-1,3
472,5.60754,2.735,-1,3
473,5.61026,2.723,-1,3
474,5.61299,2.723,-1,3
475,5.61570,2.713,-1,3
476,5.61841,2.707,-1,3
477,5.62111,2.703,-1,3
478,5.62381,2.697,-1,3
479,5.62650,2.693,-1,3
480,5.62919,2.691,-1,3
481,5.63457,2.690,-1,3
482,5.63726,2.690,-1,3
483,5.63995,2.691,-1,3
484,5.64265,2.697,-1,3
485,5.64535,2.702,-1,3
486,5.64806,2.711,-1,3
487,5.65079,2.726,-1,3
488,5.65352,2.737,-1,3
489,5.65628,2.754,-1,3
490,5.65905,2.774,-1,3
491,5.66185,2.796,-1,3
492,5.66467,2.823,-1,3
493,5.66753,2.855,-1,3
494,5.67042,2.890,-1,3
495,5.67334,2.925,-1,3
496,5.67631,2.965,-1,3
497,5.67932,3.010,-1,3
498,5.68238,3.061,-1,3
499,5.68549,3.110,-1,3
500,5.68865,3.162,-1,3
501,5.69187,3.220,-1,3
502,5.69514,3.277,-1,3
503,5.69849,3.342,-1,3
504,5.70189,3.407,-1,3
505,5.70537,3.473,-1,3
506,5.70891,3.542,-1,3
507,5.71253,3.616,-1,3
508,5.71622,3.690,-1,3
509,5.71998,3.768,-1,3
510,5.72383,3.930,-1,3
511,5.73177,4.009,-1,3
512,5.73586,4.094,-1,3
513,5.74004,4.177,-1,3
514,5.74430,4.263,-1,3
515,5.74866,4.353,-1,3
516,5.75310,4.438,-1,3
517,5.75762,4.522,-1,3
518,5.76222,4.607,-1,3
519,5.76692,4.694,-1,3
520,5.77169,4.777,-1,3
521,5.77655,4.859,-1,3
522,5.78149,4.937,-1,3
523,5.78651,5.021,-1,3
524,5.79161,5.095,-1,3
525,5.79678,5.172,-1,3
526,5.80202,5.241,-1,3
527,5.80733,5.311,-1,3
528,5.81271,5.377,-1,3
529,5.81815,5.437,-1,3
530,5.82364,5.499,-1,3
531,5.82920,5.557,-1,3
532,5.83481,5.604,-1,3
533,5.84046,5.650,-1,3
534,5.84615,5.697,-1,3
535,5.85189,5.777,-1,3
536,5.85767,5.809,-1,3
537,5.86932,5.843,-1,3
538,5.87519,5.871,-1,3
539,5.88109,5.896,-1,3
540,5.88700,5.917,-1,3
541,5.89294,5.937,-1,3
542,5.89889,5.952,-1,3
543,5.90486,5.966,-1,3
544,5.91084,5.980,-1,3
545,5.91682,5.985,-1,3
546,5.92282,5.997,-1,3
547,5.92883,6.006,-1,3
548,5.93483,6.004,-1,3
549,5.94083,6.003,-1,3
550,5.94685,6.011,-1,3
551,5.95286,6.011,-1,3
552,5.95887,6.011,-1,3
553,5.96487,6.002,-1,3
554,5.97087,5.999,-1,3
555,5.97686,5.994,-1,3
556,5.98285,5.987,-1,3
557,5.98882,5.976,-1,3
558,5.99479,5.968,-1,3
559,6.00075,5.955,-1,3
560,6.00669,5.945,-1,3
561,6.01854,5.918,-1,3
562,6.02445,5.908,-1,3
563,6.03035,5.898,-1,3
564,6.03623,5.881,-1,3
565,6.04210,5.867,-1,3
566,6.04795,5.856,-1,3
567,6.05379,5.838,-1,3
568,6.05962,5.824,-1,3
569,6.06542,5.807,-1,3
570,6.07122,5.776,-1,3
571,6.07699,5.776,-1,3
572,6.08276,5.766,-1,3
573,6.08851,5.752,-1,3
574,6.09425,5.739,-1,3
575,6.09997,5.723,-1,3
576,6.10568,5.705,-1,3
577,6.11137,5.690,-1,3
578,6.11704,5.675,-1,3
579,6.12270,5.661,-1,3
580,6.12835,5.645,-1,3
581,6.13398,5.626,-1,3
582,6.13959,5.611,-1,3
583,6.14519,5.600,-1,3
584,6.15077,5.585,-1,3
585,6.15634,5.570,-1,3
586,6.16190,5.554,-1,3
587,6.16743,5.536,-1,3
588,6.17295,5.520,-1,3
589,6.17846,5.507,-1,3
590,6.18395,5.491,-1,3
591,6.18943,5.480,-1,3
592,6.19489,5.460,-1,3
593,6.20033,5.443,-1,3
594,6.20576,5.432,-1,3
595,6.21118,5.421,-1,3
596,6.22197,5.386,-1,3
597,6.22735,5.376,-1,3
598,6.23271,5.361,-1,3
599,6.23805,5.348,-1,3
600,6.24338,5.330,-1,3
601,6.24870,5.319,-1,3
602,6.25401,5.305,-1,3
603,6.25930,5.291,-1,3
604,6.26457,5.273,-1,3
605,6.26983,5.258,-1,3
606,6.27507,5.241,-1,3
607,6.28030,5.228,-1,3
608,6.28552,5.216,-1,3
609,6.29072,5.204,-1,3
610,6.29591,5.187,-1,3
611,6.30108,5.171,-1,3
612,6.30624,5.161,-1,3
613,6.31139,5.149,-1,3
614,6.31652,5.133,-1,3
615,6.32164,5.117,-1,3
616,6.32674,5.103,-1,3
617,6.33183,5.087,-1,3
618,6.33690,5.076,-1,3
619,6.34196,5.048,-1,3
620,6.35204,5.029,-1,3
621,6.35706,5.016,-1,3
622,6.36206,5.005,-1,3
623,6.36706,4.998,-1,3
624,6.37204,4.982,-1,3
625,6.37701,4.967,-1,3
626,6.38196,4.951,-1,3
627,6.38690,4.938,-1,3
628,6.39183,4.934,-1,3
629,6.39675,4.920,-1,3
630,6.40165,4.901,-1,3
631,6.40654,4.888,-1,3
632,6.41142,4.878,-1,3
633,6.41628,4.864,-1,3
634,6.42114,4.854,-1,3
635,6.42597,4.839,-1,3
636,6.43080,4.825,-1,3
637,6.43561,4.810,-1,3
638,6.44041,4.800,-1,3
639,6.44520,4.788,-1,3
640,6.44997,4.773,-1,3
641,6.45473,4.759,-1,3
642,6.45947,4.746,-1,3
643,6.46420,4.730,-1,3
644,6.46892,4.717,-1,3
645,6.47363,4.705,-1,3
646,6.47832,4.693,-1,3
647,6.48300,4.677,-1,3
648,6.48766,4.664,-1,3
649,6.49231,4.653,-1,3
650,6.50158,4.627,-1,3
651,6.50619,4.614,-1,3
652,6.51080,4.603,-1,3
653,6.51538,4.587,-1,3
654,6.51996,4.577,-1,3
655,6.52452,4.560,-1,3
656,6.52907,4.548,-1,3
657,6.53360,4.531,-1,3
658,6.53812,4.519,-1,3
659,6.54262,4.505,-1,3
660,6.54711,4.492,-1,3
661,6.55159,4.476,-1,3
662,6.55605,4.461,-1,3
663,6.56050,4.451,-1,3
664,6.56494,4.437,-1,3
665,6.56936,4.425,-1,3
666,6.57377,4.409,-1,3
667,6.57817,4.398,-1,3
668,6.58256,4.383,-1,3
669,6.58693,4.371,-1,3
670,6.59128,4.355,-1,3
671,6.59563,4.346,-1,3
672,6.59995,4.328,-1,3
673,6.60427,4.314,-1,3
674,6.60857,4.302,-1,3
675,6.61286,4.286,-1,3
676,6.61713,4.278,-1,3
677,6.62140,4.263,-1,3
678,6.62565,4.232,-1,3
679,6.63410,4.222,-1,3
680,6.63831,4.209,-1,3
681,6.64251,4.197,-1,3
682,6.64669,4.183,-1,3
683,6.65086,4.168,-1,3
684,6.65501,4.155,-1,3
685,6.65916,4.143,-1,3
686,6.66329,4.129,-1,3
687,6.66740,4.117,-1,3
688,6.67150,4.101,-1,3
689,6.67559,4.089,-1,3
690,6.67967,4.074,-1,3
691,6.68373,4.063,-1,3
692,6.68778,4.048,-1,3
693,6.69181,4.033,-1,3
694,6.69583,4.024,-1,3
695,6.69984,4.007,-1,3
696,6.70384,3.994,-1,3
697,6.70782,3.980,-1,3
698,6.71179,3.972,-1,3
699,6.71574,3.956,-1,3
700,6.71969,3.942,-1,3
701,6.72362,3.929,-1,3
702,6.72753,3.905,-1,3
703,6.73144,3.893,-1,3
704,6.73533,3.877,-1,3
705,6.74308,3.867,-1,3
706,6.74693,3.854,-1,3
707,6.75077,3.841,-1,3
708,6.75460,3.827,-1,3
709,6.75841,3.814,-1,3
710,6.76221,3.802,-1,3
711,6.76601,3.792,-1,3
712,6.76978,3.776,-1,3
713,6.77355,3.762,-1,3
714,6.77730,3.753,-1,3
715,6.78104,3.738,-1,3
716,6.78477,3.729,-1,3
717,6.78848,3.715,-1,3
718,6.79219,3.707,-1,3
719,6.79588,3.691,-1,3
720,6.79956,3.680,-1,3
721,6.80323,3.668,-1,3
722,6.80688,3.655,-1,3
723,6.81052,3.643,-1,3
724,6.81416,3.634,-1,3
725,6.81778,3.625,-1,3
726,6.82140,3.616,-1,3
727,6.82500,3.603,-1,3
728,6.82859,3.592,-1,3
729,6.83218,3.578,-1,3
730,6.83933,3.573,-1,3
731,6.83933,3.565,-1,3
732,6.84290,3.561,-1,3
733,6.85001,3.556,-1,3
734,6.85357,3.554,-1,3
735,6.85712,3.551,-1,3
736,6.86067,3.553,-1,3
737,6.86422,3.550,-1,3
738,6.86777,3.552,-1,3
739,6.87133,3.555,-1,3
740,6.87489,3.561,-1,3
741,6.87846,3.574,-1,3
742,6.88205,3.587,-1,3
743,6.88565,3.601,-1,3
744,6.88927,3.617,-1,3
745,6.89290,3.638,-1,3
746,6.89656,3.659,-1,3
747,6.90025,3.682,-1,3
748,6.90395,3.707,-1,3
749,6.90769,3.735,-1,3
750,6.91145,3.762,-1,3
751,6.91524,3.791,-1,3
752,6.91906,3.821,-1,3
753,6.92292,3.856,-1,3
754,6.92681,3.890,-1,3
755,6.93073,3.929,-1,3
756,6.93470,3.966,-1,3
757,6.93870,4.005,-1,3
758,6.94275,4.097,-1,3
759,6.95099,4.140,-1,3
760,6.95518,4.189,-1,3
761,6.95942,4.243,-1,3
762,6.96372,4.296,-1,3
763,6.96807,4.350,-1,3
764,6.97247,4.406,-1,3
765,6.97694,4.467,-1,3
766,6.98147,4.526,-1,3
767,6.98606,4.592,-1,3
768,6.99071,4.655,-1,3
769,6.99543,4.720,-1,3
770,7.00022,4.784,-1,3
771,7.00507,4.856,-1,3
772,7.01000,4.921,-1,3
773,7.01498,4.988,-1,3
774,7.02004,5.060,-1,3
775,7.02518,5.132,-1,3
776,7.03037,5.196,-1,3
777,7.03564,5.266,-1,3
778,7.04098,5.340,-1,3
779,7.04638,5.406,-1,3
780,7.05186,5.476,-1,3
781,7.05740,5.543,-1,3
782,7.06301,5.612,-1,3
783,7.06869,5.677,-1,3
784,7.07444,5.746,-1,3
785,7.08024,5.807,-1,3
786,7.08611,5.864,-1,3
787,7.09203,5.977,-1,3
788,7.10403,6.030,-1,3
789,7.11011,6.077,-1,3
790,7.11011,6.126,-1,3
791,7.12241,6.169,-1,3
792,7.12861,6.205,-1,3
793,7.13486,6.251,-1,3
794,7.14115,6.285,-1,3
795,7.14746,6.316,-1,3
796,7.15381,6.348,-1,3
797,7.16019,6.376,-1,3
798,7.16659,6.408,-1,3
799,7.17302,6.429,-1,3
800,7.17947,6.450,-1,3
801,7.18594,6.466,-1,3
802,7.19242,6.485,-1,3
803,7.19893,6.502,-1,3
804,7.20544,6.514,-1,3
805,7.21196,6.524,-1,3
806,7.21850,6.533,-1,3
807,7.22504,6.545,-1,3
808,7.23159,6.552,-1,3
809,7.23815,6.554,-1,3
810,7.24470,6.552,-1,3
811,7.25126,6.558,-1,3
812,7.25781,6.557,-1,3
813,7.26437,6.559,-1,3
814,7.27093,6.553,-1,3
815,7.27748,6.552,-1,3
816,7.28402,6.546,-1,3
817,7.29057,6.543,-1,3
818,7.29710,6.534,-1,3
819,7.30363,6.528,-1,3
820,7.31014,6.516,-1,3
821,7.32314,6.493,-1,3
822,7.32962,6.478,-1,3
823,7.33609,6.471,-1,3
824,7.34255,6.461,-1,3
825,7.34900,6.444,-1,3
826,7.35543,6.432,-1,3
827,7.36185,6.423,-1,3
828,7.36826,6.408,-1,3
829,7.37465,6.395,-1,3
830,7.38103,6.378,-1,3
831,7.38740,6.365,-1,3
832,7.39374,6.347,-1,3
833,7.40008,6.335,-1,3
834,7.40640,6.318,-1,3
835,7.41271,6.309,-1,3
836,7.41900,6.293,-1,3
837,7.42528,6.277,-1,3
838,7.43154,6.266,-1,3
839,7.43779,6.252,-1,3
840,7.44403,6.233,-1,3
841,7.45024,6.216,-1,3
842,7.45645,6.205,-1,3
843,7.46264,6.189,-1,3
844,7.46881,6.177,-1,3
845,7.47498,6.162,-1,3
846,7.48112,6.148,-1,3
847,7.48725,6.130,-1,3
848,7.49337,6.117,-1,3
849,7.49948,6.104,-1,3
850,7.50557,6.091,-1,3
851,7.51164,6.074,-1,3
852,7.51770,6.043,-1,3
853,7.52977,6.030,-1,3
854,7.53579,6.016,-1,3
855,7.54179,6.000,-1,3
856,7.54777,5.981,-1,3
857,7.55374,5.969,-1,3
858,7.55970,5.956,-1,3
859,7.56564,5.941,-1,3
860,7.57157,5.929,-1,3
861,7.57748,5.914,-1,3
862,7.58338,5.897,-1,3
863,7.58926,5.883,-1,3
864,7.59513,5.872,-1,3
865,7.60098,5.853,-1,3
866,7.60682,5.840,-1,3
867,7.61265,5.822,-1,3
868,7.61846,5.810,-1,3
869,7.62425,5.794,-1,3
870,7.63003,5.782,-1,3
871,7.63580,5.767,-1,3
872,7.64155,5.752,-1,3
873,7.64729,5.742,-1,3
