cnt,pos,speed,Dir,Force,
1,0,1.013,1,8
2,0.00101089,1.016,1,8
3,0.0019989,0.988,1,8
4,0.00297928,0.977,1,8
5,0.0039711,0.998,1,8
6,0.00500107,1.031,1,8
7,0.00603104,1.028,1,8
8,0.00703049,0.993,1,8
9,0.00802231,0.987,1,8
10,0.00902939,1.017,1,8
11,0.0100822,1.049,1,8
12,0.0111198,1.04,1,8
13,0.0121193,1.003,1,8
14,0.0131187,0.997,1,8
15,0.0141487,1.033,1,8
16,0.0152206,1.066,1,8
17,0.0162697,1.047,1,8
18,0.0172806,1.01,1,8
19,0.0182915,1.058,1,8
20,0.019352,1.078,1,8
21,0.0204315,1.05,1,8
22,0.0224915,1.018,1,8
23,0.0235291,1.038,1,8
24,0.0246201,1.083,1,8
25,0.0257111,1.093,1,8
26,0.0267601,1.055,1,8
27,0.0278015,1.034,1,8
28,0.028862,1.067,1,8
29,0.0299721,1.104,1,8
30,0.0310593,1.096,1,8
31,0.0321312,1.063,1,8
32,0.0331917,1.064,1,8
33,0.0342903,1.098,1,8
34,0.0354004,1.114,1,8
35,0.036499,1.095,1,8
36,0.0375786,1.077,1,8
37,0.0386696,1.095,1,8
38,0.0409088,1.121,1,8
39,0.0420189,1.104,1,8
40,0.0431213,1.102,1,8
41,0.044239,1.119,1,8
42,0.045372,1.13,1,8
43,0.0465012,1.127,1,8
44,0.0476189,1.125,1,8
45,0.0487595,1.134,1,8
46,0.0498886,1.138,1,8
47,0.0510292,1.142,1,8
48,0.0521812,1.144,1,8
49,0.0533295,1.153,1,8
50,0.0544815,1.152,1,8
51,0.0556412,1.155,1,8
52,0.0568123,1.168,1,8
53,0.0579796,1.178,1,8
54,0.0591507,1.169,1,8
55,0.0603218,1.165,1,8
56,0.0615005,1.183,1,8
57,0.0627098,1.204,1,8
58,0.0639,1.197,1,8
59,0.0650902,1.184,1,8
60,0.0662804,1.193,1,8
61,0.0675011,1.218,1,8
62,0.0687218,1.222,1,8
63,0.0699196,1.203,1,8
64,0.0711403,1.213,1,8
65,0.0723686,1.236,1,8
66,0.0748405,1.231,1,8
67,0.0760803,1.232,1,8
68,0.0773315,1.25,1,8
69,0.0785904,1.262,1,8
70,0.0798492,1.262,1,8
71,0.0811195,1.268,1,8
72,0.0823898,1.272,1,8
73,0.0836716,1.276,1,8
74,0.0849495,1.287,1,8
75,0.0862503,1.299,1,8
76,0.0875511,1.299,1,8
77,0.0888596,1.301,1,8
78,0.0901604,1.314,1,8
79,0.0914993,1.328,1,8
80,0.0928192,1.322,1,8
81,0.0941391,1.322,1,8
82,0.0954819,1.342,1,8
83,0.0968399,1.356,1,8
84,0.0981903,1.351,1,8
85,0.0995407,1.351,1,8
86,0.100899,1.365,1,8
87,0.10228,1.376,1,8
88,0.103661,1.385,1,8
89,0.105049,1.389,1,8
90,0.106441,1.39,1,8
91,0.107841,1.394,1,8
92,0.109249,1.415,1,8
93,0.11068,1.431,1,8
94,0.112099,1.423,1,8
95,0.113529,1.425,1,8
96,0.114971,1.441,1,8
97,0.116421,1.453,1,8
98,0.117882,1.457,1,8
99,0.11935,1.465,1,8
100,0.120819,1.472,1,8
101,0.122292,1.477,1,8
102,0.123779,1.485,1,8
103,0.125271,1.495,1,8
104,0.12677,1.497,1,8
105,0.128292,1.512,1,8
106,0.12981,1.521,1,8
107,0.131321,1.516,1,8
108,0.132851,1.523,1,8
109,0.13438,1.539,1,8
110,0.135929,1.548,1,8
111,0.137489,1.558,1,8
112,0.13905,1.558,1,8
113,0.14217,1.573,1,8
114,0.143772,1.591,1,8
115,0.145359,1.592,1,8
116,0.14695,1.587,1,8
117,0.14854,1.596,1,8
118,0.15015,1.607,1,8
119,0.151772,1.623,1,8
120,0.1534,1.624,1,8
121,0.15501,1.614,1,8
122,0.156631,1.625,1,8
123,0.158279,1.645,1,8
124,0.159931,1.653,1,8
125,0.161591,1.65,1,8
126,0.163231,1.645,1,8
127,0.164879,1.654,1,8
128,0.166561,1.681,1,8
129,0.168251,1.684,1,8
130,0.169922,1.672,1,8
131,0.171589,1.674,1,8
132,0.17329,1.709,1,8
133,0.174992,1.709,1,8
134,0.176701,1.711,1,8
135,0.178402,1.696,1,8
136,0.180099,1.697,1,8
137,0.18182,1.72,1,8
138,0.183552,1.735,1,8
139,0.18528,1.73,1,8
140,0.187,1.716,1,8
141,0.188721,1.72,1,8
142,0.19046,1.749,1,8
143,0.192219,1.755,1,8
144,0.193962,1.744,1,8
145,0.195702,1.739,1,8
146,0.197449,1.746,1,8
147,0.199219,1.772,1,8
148,0.201,1.775,1,8
149,0.202751,1.754,1,8
150,0.20451,1.757,1,8
151,0.20808,1.791,1,8
152,0.20985,1.781,1,8
153,0.21162,1.761,1,8
154,0.21339,1.778,1,8
155,0.215191,1.8,1,8
156,0.216991,1.801,1,8
157,0.218781,1.78,1,8
158,0.220551,1.774,1,8
159,0.222351,1.799,1,8
160,0.224171,1.824,1,8
161,0.225971,1.801,1,8
162,0.22776,1.784,1,8
163,0.229549,1.79,1,8
164,0.231361,1.821,1,8
165,0.2332,1.83,1,8
166,0.235001,1.8,1,8
167,0.236782,1.787,1,8
168,0.23859,1.81,1,8
169,0.240421,1.832,1,8
170,0.242252,1.822,1,8
171,0.244049,1.799,1,8
172,0.245842,1.797,1,8
173,0.247669,1.825,1,8
174,0.2495,1.828,1,8
175,0.25132,1.815,1,8
176,0.25312,1.804,1,8
177,0.254929,1.811,1,8
178,0.25676,1.83,1,8
179,0.258579,1.82,1,8
180,0.262199,1.812,1,8
181,0.264019,1.817,1,8
182,0.265839,1.823,1,8
183,0.267651,1.811,1,8
184,0.26947,1.812,1,8
185,0.271282,1.818,1,8
186,0.273102,1.814,1,8
187,0.27491,1.809,1,8
188,0.276711,1.806,1,8
189,0.27853,1.813,1,8
190,0.28035,1.819,1,8
191,0.28215,1.808,1,8
192,0.283951,1.8,1,8
193,0.287571,1.814,1,8
194,0.289391,1.812,1,8
195,0.291191,1.798,1,8
196,0.292992,1.8,1,8
197,0.2948,1.812,1,8
198,0.2966,1.807,1,8
199,0.298412,1.802,1,8
200,0.300201,1.795,1,8
201,0.30201,1.804,1,8
202,0.30381,1.807,1,8
203,0.305611,1.8,1,8
204,0.307411,1.793,1,8
205,0.309212,1.805,1,8
206,0.31102,1.803,1,8
207,0.31282,1.804,1,8
208,0.31461,1.793,1,8
209,0.31641,1.799,1,8
210,0.31823,1.811,1,8
211,0.32003,1.804,1,8
212,0.321819,1.795,1,8
213,0.32362,1.795,1,8
214,0.32542,1.807,1,8
215,0.32724,1.814,1,8
216,0.329041,1.798,1,8
217,0.33083,1.808,1,8
218,0.33445,1.815,1,8
219,0.336262,1.814,1,8
220,0.338062,1.798,1,8
221,0.33987,1.806,1,8
222,0.34169,1.824,1,8
223,0.343521,1.823,1,8
224,0.345329,1.813,1,8
225,0.347141,1.811,1,8
226,0.348961,1.827,1,8
227,0.3508,1.837,1,8
228,0.352631,1.825,1,8
229,0.35445,1.819,1,8
230,0.356281,1.836,1,8
231,0.358131,1.848,1,8
232,0.35997,1.844,1,8
233,0.361801,1.831,1,8
234,0.363651,1.847,1,8
235,0.36552,1.87,1,8
236,0.36739,1.863,1,8
237,0.36924,1.852,1,8
238,0.371101,1.86,1,8
239,0.372982,1.886,1,8
240,0.374882,1.894,1,8
241,0.376762,1.878,1,8
242,0.378632,1.879,1,8
243,0.380531,1.9,1,8
244,0.382462,1.921,1,8
245,0.384369,1.915,1,8
246,0.38628,1.903,1,8
247,0.388199,1.922,1,8
248,0.39209,1.952,1,8
249,0.394039,1.944,1,8
250,0.395981,1.949,1,8
251,0.397972,1.978,1,8
252,0.39996,1.99,1,8
253,0.401939,1.986,1,8
254,0.403931,1.992,1,8
255,0.405941,2.007,1,8
256,0.407959,2.026,1,8
257,0.409992,2.028,1,8
258,0.412022,2.036,1,8
259,0.414082,2.051,1,8
260,0.416142,2.062,1,8
261,0.418209,2.071,1,8
262,0.420292,2.083,1,8
263,0.422401,2.103,1,8
264,0.4245,2.106,1,8
265,0.42662,2.118,1,8
266,0.43092,2.156,1,8
267,0.433071,2.158,1,8
268,0.435242,2.168,1,8
269,0.43742,2.187,1,8
270,0.439629,2.206,1,8
271,0.441849,2.217,1,8
272,0.44408,2.228,1,8
273,0.44632,2.241,1,8
274,0.448582,2.26,1,8
275,0.450859,2.282,1,8
276,0.453152,2.29,1,8
277,0.455452,2.299,1,8
278,0.457771,2.32,1,8
279,0.460121,2.349,1,8
280,0.462471,2.359,1,8
281,0.46484,2.362,1,8
282,0.46722,2.381,1,8
283,0.469631,2.417,1,8
284,0.472061,2.426,1,8
285,0.474499,2.435,1,8
286,0.476952,2.479,1,8
287,0.479431,2.503,1,8
288,0.48444,2.512,1,8
289,0.486961,2.523,1,8
290,0.489521,2.55,1,8
291,0.492092,2.577,1,8
292,0.494682,2.589,1,8
293,0.49728,2.599,1,8
294,0.499901,2.623,1,8
295,0.50256,2.652,1,8
296,0.50523,2.669,1,8
297,0.507912,2.684,1,8
298,0.510609,2.699,1,8
299,0.513332,2.725,1,8
300,0.51609,2.754,1,8
301,0.518852,2.767,1,8
302,0.521629,2.78,1,8
303,0.524441,2.802,1,8
304,0.527271,2.834,1,8
305,0.530132,2.858,1,8
306,0.53299,2.864,1,8
307,0.53587,2.885,1,8
308,0.538792,2.915,1,8
309,0.541729,2.94,1,8
310,0.544682,2.955,1,8
311,0.547661,2.972,1,8
312,0.550652,2.994,1,8
313,0.55368,3.024,1,8
314,0.556721,3.047,1,8
315,0.55978,3.059,1,8
316,0.562859,3.08,1,8
317,0.565971,3.108,1,8
318,0.569099,3.134,1,8
319,0.57225,3.149,1,8
320,0.57542,3.166,1,8
321,0.581821,3.215,1,8
322,0.58506,3.241,1,8
323,0.588322,3.257,1,8
324,0.591602,3.275,1,8
325,0.594902,3.303,1,8
326,0.598232,3.328,1,8
327,0.601582,3.347,1,8
328,0.604942,3.364,1,8
329,0.60833,3.385,1,8
330,0.61174,3.415,1,8
331,0.615181,3.437,1,8
332,0.618629,3.455,1,8
333,0.625599,3.499,1,8
334,0.62912,3.522,1,8
335,0.632671,3.544,1,8
336,0.63623,3.559,1,8
337,0.639801,3.58,1,8
338,0.643421,3.608,1,8
339,0.647041,3.631,1,8
340,0.6507,3.648,1,8
341,0.654362,3.663,1,8
342,0.658051,3.687,1,8
343,0.661762,3.713,1,8
344,0.665489,3.734,1,8
345,0.669239,3.752,1,8
346,0.673012,3.77,1,8
347,0.676811,3.794,1,8
348,0.68063,3.82,1,8
349,0.68446,3.835,1,8
350,0.68832,3.853,1,8
351,0.692192,3.873,1,8
352,0.696079,3.895,1,8
353,0.700001,3.918,1,8
354,0.70393,3.933,1,8
355,0.70789,3.949,1,8
356,0.711849,3.968,1,8
357,0.715851,3.992,1,8
358,0.719849,4.007,1,8
359,0.723869,4.022,1,8
360,0.727909,4.041,1,8
361,0.731979,4.064,1,8
362,0.736061,4.09,1,8
363,0.744251,4.106,1,8
364,0.748379,4.126,1,8
365,0.752522,4.145,1,8
366,0.75668,4.159,1,8
367,0.76086,4.171,1,8
368,0.765041,4.185,1,8
369,0.769241,4.203,1,8
370,0.77346,4.218,1,8
371,0.777691,4.229,1,8
372,0.781929,4.24,1,8
373,0.78619,4.255,1,8
374,0.790459,4.271,1,8
375,0.794731,4.279,1,8
376,0.79903,4.289,1,8
377,0.803322,4.298,1,8
378,0.807629,4.312,1,8
379,0.811962,4.327,1,8
380,0.816299,4.333,1,8
381,0.820641,4.34,1,8
382,0.824982,4.347,1,8
383,0.829342,4.357,1,8
384,0.83371,4.365,1,8
385,0.83807,4.369,1,8
386,0.842449,4.377,1,8
387,0.846832,4.384,1,8
388,0.851212,4.385,1,8
389,0.855602,4.387,1,8
390,0.860001,4.394,1,8
391,0.864391,4.394,1,8
392,0.86879,4.4,1,8
393,0.873192,4.402,1,8
394,0.877602,4.404,1,8
395,0.882,4.398,1,8
396,0.886402,4.403,1,8
397,0.8908,4.402,1,8
398,0.89521,4.406,1,8
399,0.899609,4.401,1,8
400,0.904011,4.401,1,8
401,0.908401,4.396,1,8
402,0.9128,4.394,1,8
403,0.917191,4.388,1,8
404,0.92157,4.382,1,8
405,0.925949,4.38,1,8
406,0.930321,4.375,1,8
407,0.934692,4.367,1,8
408,0.939049,4.357,1,8
409,0.943401,4.351,1,8
410,0.947739,4.342,1,8
411,0.95208,4.337,1,8
412,0.956402,4.328,1,8
413,0.965031,4.305,1,8
414,0.969322,4.295,1,8
415,0.97361,4.285,1,8
416,0.977882,4.274,1,8
417,0.98214,4.262,1,8
418,0.986389,4.246,1,8
419,0.99062,4.235,1,8
420,0.994839,4.221,1,8
421,0.99905,4.205,1,8
422,1.00324,4.19,1,8
423,1.00741,4.174,1,8
424,1.01157,4.157,1,8
425,1.01571,4.144,1,8
426,1.01984,4.128,1,8
427,1.02395,4.107,1,8
428,1.02804,4.089,1,8
429,1.03211,4.073,1,8
430,1.03617,4.056,1,8
431,1.04021,4.037,1,8
432,1.04422,4.018,1,8
433,1.04822,3.994,1,8
434,1.05219,3.976,1,8
435,1.05614,3.955,1,8
436,1.06008,3.936,1,8
437,1.064,3.915,1,8
438,1.06789,3.89,1,8
439,1.07561,3.851,1,8
440,1.07943,3.823,1,8
441,1.07943,3.803,1,8
442,1.08324,3.803,1,8
443,1.08702,3.78,1,8
444,1.09077,3.758,1,8
445,1.09451,3.735,1,8
446,1.09822,3.71,1,8
447,1.10191,3.686,1,8
448,1.10557,3.663,1,8
449,1.10921,3.638,1,8
450,1.11282,3.615,1,8
451,1.11641,3.587,1,8
452,1.11997,3.564,1,8
453,1.12352,3.542,1,8
454,1.12703,3.516,1,8
455,1.13052,3.487,1,8
456,1.13398,3.463,1,8
457,1.13742,3.438,1,8
458,1.14083,3.415,1,8
459,1.14422,3.386,1,8
460,1.14758,3.361,1,8
461,1.15092,3.337,1,8
462,1.15423,3.313,1,8
463,1.15752,3.29,1,8
464,1.16078,3.259,1,8
465,1.16401,3.233,1,8
466,1.16722,3.21,1,8
467,1.17041,3.19,1,8
468,1.17357,3.154,1,8
469,1.1767,3.135,1,8
470,1.17981,3.11,1,8
471,1.1829,3.088,1,8
472,1.18596,3.062,1,8
473,1.18899,3.032,1,8
474,1.192,3.011,1,8
475,1.195,2.989,1,8
476,1.19796,2.965,1,8
477,1.2009,2.937,1,8
478,1.20381,2.914,1,8
479,1.2067,2.889,1,8
480,1.20957,2.871,1,8
481,1.21241,2.842,1,8
482,1.21523,2.821,1,8
483,1.21803,2.797,1,8
484,1.22081,2.773,1,8
485,1.22356,2.754,1,8
486,1.229,2.706,1,8
487,1.23168,2.686,1,8
488,1.23434,2.664,1,8
489,1.23699,2.644,1,8
490,1.23961,2.619,1,8
491,1.24221,2.601,1,8
492,1.24479,2.58,1,8
493,1.24735,2.56,1,8
494,1.24989,2.536,1,8
495,1.2524,2.521,1,8
496,1.25491,2.503,1,8
497,1.25738,2.475,1,8
498,1.25984,2.458,1,8
499,1.26228,2.443,1,8
500,1.26471,2.423,1,8
501,1.2671,2.396,1,8
502,1.26949,2.386,1,8
503,1.27186,2.371,1,8
504,1.27422,2.352,1,8
505,1.27654,2.326,1,8
506,1.27886,2.32,1,8
507,1.28117,2.305,1,8
508,1.28345,2.282,1,8
509,1.28571,2.267,1,8
510,1.28797,2.257,1,8
511,1.29021,2.244,1,8
512,1.29244,2.225,1,8
513,1.29465,2.209,1,8
514,1.29684,2.196,1,8
515,1.29904,2.193,1,8
516,1.30122,2.178,1,8
517,1.30337,2.158,1,8
518,1.30552,2.145,1,8
519,1.30767,2.151,1,8
520,1.30981,2.138,1,8
521,1.31192,2.115,1,8
522,1.31403,2.105,1,8
523,1.31614,2.113,1,8
524,1.31824,2.105,1,8
525,1.32032,2.082,1,8
526,1.3224,2.075,1,8
527,1.32449,2.083,1,8
528,1.32657,2.082,1,8
529,1.32863,2.064,1,8
530,1.33068,2.054,1,8
531,1.33274,2.062,1,8
532,1.33481,2.066,1,8
533,1.33687,2.057,1,8
534,1.33892,2.047,1,8
535,1.34097,2.051,1,8
536,1.34302,2.053,1,8
537,1.34508,2.057,1,8
538,1.34713,2.055,1,8
539,1.34918,2.049,1,8
540,1.35124,2.053,1,8
541,1.3533,2.064,1,8
542,1.35744,2.063,1,8
543,1.3595,2.065,1,8
544,1.36158,2.08,1,8
545,1.36369,2.102,1,8
546,1.36578,2.093,1,8
547,1.36787,2.088,1,8
548,1.36998,2.108,1,8
549,1.3721,2.129,1,8
550,1.37424,2.134,1,8
551,1.37637,2.128,1,8
552,1.37851,2.143,1,8
553,1.38067,2.167,1,8
554,1.38504,2.187,1,8
555,1.38724,2.194,1,8
556,1.38945,2.21,1,8
557,1.39169,2.235,1,8
558,1.39394,2.257,1,8
559,1.3962,2.257,1,8
560,1.39846,2.266,1,8
561,1.40076,2.295,1,8
562,1.40308,2.328,1,8
563,1.40542,2.331,1,8
564,1.40775,2.334,1,8
565,1.41011,2.364,1,8
566,1.41251,2.401,1,8
567,1.41493,2.414,1,8
568,1.41735,2.419,1,8
569,1.41979,2.441,1,8
570,1.42227,2.479,1,8
571,1.42477,2.505,1,8
572,1.42728,2.512,1,8
573,1.42981,2.526,1,8
574,1.43237,2.562,1,8
575,1.43497,2.6,1,8
576,1.43758,2.613,1,8
577,1.44022,2.63,1,8
578,1.44287,2.656,1,8
579,1.44828,2.72,1,8
580,1.45102,2.742,1,8
581,1.45378,2.757,1,8
582,1.45657,2.788,1,8
583,1.4594,2.831,1,8
584,1.46225,2.854,1,8
585,1.46513,2.87,1,8
586,1.46802,2.899,1,8
587,1.47095,2.933,1,8
588,1.47393,2.971,1,8
589,1.47692,2.993,1,8
590,1.47993,3.011,1,8
591,1.48298,3.047,1,8
592,1.48606,3.079,1,8
593,1.48917,3.11,1,8
594,1.4923,3.134,1,8
595,1.49546,3.157,1,8
596,1.49865,3.196,1,8
597,1.50188,3.226,1,8
598,1.50513,3.25,1,8
599,1.50841,3.275,1,8
600,1.51171,3.307,1,8
601,1.51506,3.342,1,8
602,1.51842,3.369,1,8
603,1.52182,3.395,1,8
604,1.52524,3.42,1,8
605,1.52869,3.456,1,8
606,1.53218,3.486,1,8
607,1.53569,3.509,1,8
608,1.53923,3.534,1,8
609,1.54279,3.565,1,8
610,1.54639,3.601,1,8
611,1.55001,3.621,1,8
612,1.55733,3.671,1,8
613,1.56103,3.706,1,8
614,1.56477,3.731,1,8
615,1.56852,3.753,1,8
616,1.5723,3.777,1,8
617,1.5761,3.81,1,8
618,1.57994,3.839,1,8
619,1.5838,3.862,1,8
620,1.58769,3.881,1,8
621,1.5916,3.909,1,8
622,1.59554,3.944,1,8
623,1.59951,3.988,1,8
624,1.60751,4.016,1,8
625,1.61156,4.046,1,8
626,1.61563,4.071,1,8
627,1.61973,4.095,1,8
628,1.62385,4.12,1,8
629,1.62799,4.149,1,8
630,1.63217,4.178,1,8
631,1.63637,4.205,1,8
632,1.6406,4.229,1,8
633,1.64485,4.249,1,8
634,1.64913,4.279,1,8
635,1.65344,4.306,1,8
636,1.65778,4.336,1,8
637,1.66213,4.357,1,8
638,1.66652,4.386,1,8
639,1.67093,4.411,1,8
640,1.67537,4.44,1,8
641,1.67984,4.468,1,8
642,1.68433,4.493,1,8
643,1.68885,4.522,1,8
644,1.6934,4.551,1,8
645,1.69798,4.574,1,8
646,1.70258,4.601,1,8
647,1.7072,4.627,1,8
648,1.71654,4.682,1,8
649,1.72125,4.71,1,8
650,1.72599,4.738,1,8
651,1.73075,4.763,1,8
652,1.73554,4.789,1,8
653,1.74036,4.816,1,8
654,1.74521,4.85,1,8
655,1.75008,4.876,1,8
656,1.75499,4.902,1,8
657,1.75991,4.923,1,8
658,1.76487,4.952,1,8
659,1.76984,4.982,1,8
660,1.77486,5.01,1,8
661,1.77989,5.032,1,8
662,1.78494,5.056,1,8
663,1.79002,5.083,1,8
664,1.79514,5.112,1,8
665,1.80028,5.14,1,8
666,1.80544,5.164,1,8
667,1.81063,5.19,1,8
668,1.81585,5.218,1,8
669,1.82109,5.244,1,8
670,1.82636,5.267,1,8
671,1.83166,5.301,1,8
672,1.83699,5.323,1,8
673,1.84233,5.348,1,8
674,1.84771,5.374,1,8
675,1.8531,5.4,1,8
676,1.85853,5.427,1,8
677,1.86399,5.456,1,8
678,1.86946,5.476,1,8
679,1.87497,5.501,1,8
680,1.88049,5.525,1,8
681,1.88604,5.58,1,8
682,1.89722,5.597,1,8
683,1.90284,5.62,1,8
684,1.90849,5.644,1,8
685,1.91415,5.664,1,8
686,1.91984,5.688,1,8
687,1.92555,5.711,1,8
688,1.93127,5.722,1,8
689,1.93702,5.745,1,8
690,1.94279,5.77,1,8
691,1.94859,5.797,1,8
692,1.95439,5.811,1,8
693,1.96022,5.828,1,8
694,1.96607,5.846,1,8
695,1.97194,5.875,1,8
696,1.97784,5.892,1,8
697,1.98374,5.905,1,8
698,1.98966,5.916,1,8
699,1.99559,5.927,1,8
700,2.00154,5.958,1,8
701,2.00752,5.98,1,8
702,2.0195,5.99,1,8
703,2.0255,6.005,1,8
704,2.03153,6.024,1,8
705,2.03757,6.042,1,8
706,2.04361,6.042,1,8
707,2.04965,6.043,1,8
708,2.05571,6.053,1,8
709,2.06178,6.074,1,8
710,2.06786,6.078,1,8
711,2.07393,6.074,1,8
712,2.08001,6.075,1,8
713,2.0861,6.094,1,8
714,2.09221,6.106,1,8
715,2.09831,6.102,1,8
716,2.1044,6.095,1,8
717,2.11051,6.104,1,8
718,2.11662,6.115,1,8
719,2.12274,6.115,1,8
720,2.12884,6.099,1,8
721,2.13493,6.09,1,8
722,2.14103,6.101,1,8
723,2.14713,6.104,1,8
724,2.15322,6.092,1,8
725,2.1593,6.072,1,8
726,2.16537,6.073,1,8
727,2.17145,6.078,1,8
728,2.17752,6.074,1,8
729,2.18357,6.049,1,8
730,2.18961,6.032,1,8
731,2.19564,6.04,1,8
732,2.20169,6.038,1,8
733,2.20769,6.014,1,8
734,2.21368,5.988,1,8
735,2.21967,5.986,1,8
736,2.22565,5.98,1,8
737,2.23162,5.969,1,8
738,2.23756,5.942,1,8
739,2.24348,5.921,1,8
740,2.24939,5.905,1,8
741,2.26118,5.879,1,8
742,2.26703,5.852,1,8
743,2.27286,5.829,1,8
744,2.27867,5.817,1,8
745,2.28447,5.798,1,8
746,2.29024,5.773,1,8
747,2.29599,5.742,1,8
748,2.3017,5.718,1,8
749,2.30741,5.704,1,8
750,2.31309,5.682,1,8
751,2.31874,5.652,1,8
752,2.32436,5.617,1,8
753,2.32995,5.595,1,8
754,2.33553,5.569,1,8
755,2.34107,5.545,1,8
756,2.34658,5.512,1,8
757,2.35206,5.481,1,8
758,2.35751,5.448,1,8
759,2.36293,5.422,1,8
760,2.36832,5.391,1,8
761,2.37369,5.365,1,8
762,2.37901,5.326,1,8
763,2.38431,5.295,1,8
764,2.38957,5.261,1,8
765,2.3948,5.233,1,8
766,2.4,5.201,1,8
767,2.40517,5.167,1,8
768,2.41029,5.126,1,8
769,2.41539,5.094,1,8
770,2.42046,5.064,1,8
771,2.43048,4.998,1,8
772,2.43544,4.959,1,8
773,2.44036,4.925,1,8
774,2.44526,4.892,1,8
775,2.45011,4.861,1,8
776,2.45494,4.825,1,8
777,2.45973,4.79,1,8
778,2.46449,4.753,1,8
779,2.46921,4.719,1,8
780,2.47389,4.685,1,8
781,2.47854,4.649,1,8
782,2.48315,4.616,1,8
783,2.48774,4.583,1,8
784,2.49228,4.543,1,8
785,2.49679,4.508,1,8
786,2.50127,4.476,1,8
787,2.50571,4.442,1,8
788,2.51012,4.409,1,8
789,2.51882,4.336,1,8
790,2.52313,4.302,1,8
791,2.52739,4.269,1,8
792,2.53163,4.233,1,8
793,2.53583,4.201,1,8
794,2.53999,4.163,1,8
795,2.54412,4.132,1,8
796,2.54822,4.097,1,8
797,2.55228,4.061,1,8
798,2.55631,4.03,1,8
799,2.56031,3.999,1,8
800,2.56428,3.968,1,8
801,2.56821,3.933,1,8
802,2.57212,3.904,1,8
803,2.57598,3.871,1,8
804,2.57983,3.843,1,8
805,2.58364,3.815,1,8
806,2.58743,3.785,1,8
807,2.59118,3.754,1,8
808,2.59491,3.731,1,8
809,2.59861,3.703,1,8
810,2.60229,3.679,1,8
811,2.60957,3.624,1,8
812,2.61317,3.607,1,8
813,2.61676,3.584,1,8
814,2.62032,3.558,1,8
815,2.62386,3.535,1,8
816,2.62737,3.517,1,8
817,2.63087,3.502,1,8
818,2.63435,3.477,1,8
819,2.63781,3.457,1,8
820,2.64125,3.445,1,8
821,2.64468,3.426,1,8
822,2.64809,3.414,1,8
823,2.65149,3.399,1,8
824,2.65487,3.383,1,8
825,2.65825,3.37,1,8
826,2.66161,3.363,1,8
827,2.66495,3.35,1,8
828,2.6683,3.341,1,8
829,2.67163,3.327,1,8
830,2.67495,3.322,1,8
831,2.67826,3.318,1,8
832,2.68158,3.307,1,8
833,2.68488,3.302,1,8
834,2.68817,3.295,1,8
835,2.69146,3.293,1,8
836,2.69476,3.29,1,8
837,2.69804,3.286,1,8
838,2.70132,3.282,1,8
839,2.7046,3.285,1,8
840,2.70789,3.286,1,8
841,2.71118,3.287,1,8
842,2.71447,3.289,1,8
843,2.71776,3.291,1,8
844,2.72105,3.294,1,8
845,2.72436,3.304,1,8
846,2.72766,3.306,1,8
847,2.73098,3.314,1,8
848,2.73764,3.334,1,8
849,2.74098,3.344,1,8
850,2.74433,3.351,1,8
851,2.74769,3.363,1,8
852,2.75107,3.377,1,8
853,2.75447,3.395,1,8
854,2.75787,3.403,1,8
855,2.76129,3.42,1,8
856,2.76472,3.438,1,8
857,2.76818,3.454,1,8
858,2.77166,3.475,1,8
859,2.77514,3.49,1,8
860,2.77865,3.507,1,8
861,2.78218,3.532,1,8
862,2.78574,3.553,1,8
863,2.78931,3.573,1,8
864,2.79291,3.597,1,8
865,2.79653,3.618,1,8
866,2.80017,3.643,1,8
867,2.80383,3.665,1,8
868,2.80752,3.692,1,8
869,2.81498,3.741,1,8
870,2.81874,3.767,1,8
871,2.82254,3.793,1,8
872,2.82635,3.818,1,8
873,2.8302,3.844,1,8
874,2.83407,3.871,1,8
875,2.83797,3.898,1,8
876,2.84189,3.924,1,8
877,2.84584,3.952,1,8
878,2.84983,3.984,1,8
879,2.85384,4.013,1,8
880,2.85788,4.038,1,8
881,2.86195,4.063,1,8
882,2.86604,4.095,1,8
883,2.87016,4.122,1,8
884,2.87431,4.155,1,8
885,2.8785,4.182,1,8
886,2.88271,4.21,1,8
887,2.88695,4.237,1,8
888,2.89121,4.265,1,8
889,2.8955,4.294,1,8
890,2.89983,4.325,1,8
891,2.90418,4.354,1,8
892,2.90857,4.381,1,8
893,2.91297,4.406,1,8
894,2.9174,4.432,1,8
895,2.92186,4.461,1,8
896,2.92635,4.491,1,8
897,2.93087,4.52,1,8
898,2.93542,4.545,1,8
899,2.93999,4.573,1,8
900,2.94459,4.599,1,8
901,2.94922,4.63,1,8
902,2.95387,4.656,1,8
