cnt,pos,speed,Dir,Force,
1,4.01666,1.007,-1,3
2,4.01769,1.030,-1,3
3,4.01873,1.048,-1,3
4,4.01980,1.068,-1,3
5,4.02089,1.092,-1,3
6,4.02201,1.119,-1,3
7,4.02316,1.143,-1,3
8,4.02432,1.161,-1,3
9,4.02549,1.174,-1,3
10,4.02669,1.198,-1,3
11,4.02792,1.227,-1,3
12,4.02916,1.247,-1,3
13,4.03042,1.256,-1,3
14,4.03169,1.271,-1,3
15,4.03299,1.298,-1,3
16,4.03430,1.316,-1,3
17,4.03563,1.331,-1,3
18,4.03698,1.346,-1,3
19,4.03834,1.363,-1,3
20,4.04111,1.390,-1,3
21,4.04252,1.406,-1,3
22,4.04394,1.420,-1,3
23,4.04537,1.433,-1,3
24,4.04682,1.447,-1,3
25,4.04827,1.454,-1,3
26,4.04973,1.463,-1,3
27,4.05121,1.475,-1,3
28,4.05269,1.486,-1,3
29,4.05419,1.500,-1,3
30,4.05570,1.507,-1,3
31,4.05721,1.509,-1,3
32,4.05872,1.514,-1,3
33,4.06025,1.525,-1,3
34,4.06179,1.539,-1,3
35,4.06333,1.543,-1,3
36,4.06487,1.542,-1,3
37,4.06642,1.544,-1,3
38,4.06797,1.551,-1,3
39,4.06953,1.561,-1,3
40,4.07110,1.569,-1,3
41,4.07266,1.563,-1,3
42,4.07422,1.560,-1,3
43,4.07579,1.568,-1,3
44,4.07736,1.574,-1,3
45,4.07894,1.578,-1,3
46,4.08051,1.574,-1,3
47,4.08208,1.564,-1,3
48,4.08364,1.565,-1,3
49,4.08522,1.578,-1,3
50,4.08680,1.578,-1,3
51,4.08837,1.565,-1,3
52,4.08992,1.554,-1,3
53,4.09148,1.556,-1,3
54,4.09304,1.565,-1,3
55,4.09461,1.565,-1,3
56,4.09615,1.549,-1,3
57,4.09769,1.532,-1,3
58,4.09922,1.537,-1,3
59,4.10077,1.544,-1,3
60,4.10231,1.543,-1,3
61,4.10384,1.526,-1,3
62,4.10534,1.509,-1,3
63,4.10685,1.507,-1,3
64,4.10837,1.518,-1,3
65,4.10988,1.514,-1,3
66,4.11138,1.495,-1,3
67,4.11286,1.478,-1,3
68,4.11434,1.478,-1,3
69,4.11582,1.483,-1,3
70,4.11730,1.478,-1,3
71,4.11876,1.463,-1,3
72,4.12020,1.443,-1,3
73,4.12164,1.438,-1,3
74,4.12309,1.445,-1,3
75,4.12453,1.442,-1,3
76,4.12595,1.424,-1,3
77,4.12736,1.407,-1,3
78,4.12876,1.404,-1,3
79,4.13157,1.401,-1,3
80,4.13296,1.389,-1,3
81,4.13433,1.370,-1,3
82,4.13569,1.364,-1,3
83,4.13705,1.363,-1,3
84,4.13841,1.358,-1,3
85,4.13976,1.345,-1,3
86,4.14109,1.337,-1,3
87,4.14242,1.326,-1,3
88,4.14373,1.314,-1,3
89,4.14503,1.300,-1,3
90,4.14632,1.283,-1,3
91,4.14759,1.271,-1,3
92,4.14885,1.261,-1,3
93,4.15010,1.253,-1,3
94,4.15134,1.239,-1,3
95,4.15256,1.225,-1,3
96,4.15378,1.218,-1,3
97,4.15501,1.223,-1,3
98,4.15622,1.216,-1,3
99,4.15743,1.205,-1,3
100,4.15862,1.188,-1,3
101,4.15980,1.182,-1,3
102,4.16098,1.185,-1,3
103,4.16216,1.181,-1,3
104,4.16334,1.175,-1,3
105,4.16451,1.166,-1,3
106,4.16567,1.160,-1,3
107,4.16682,1.154,-1,3
108,4.16797,1.152,-1,3
109,4.16912,1.149,-1,3
110,4.17141,1.139,-1,3
111,4.17254,1.135,-1,3
112,4.17368,1.138,-1,3
113,4.17481,1.131,-1,3
114,4.17593,1.116,-1,3
115,4.17703,1.108,-1,3
116,4.17815,1.112,-1,3
117,4.17927,1.120,-1,3
118,4.18038,1.115,-1,3
119,4.18149,1.108,-1,3
120,4.18260,1.109,-1,3
121,4.18372,1.119,-1,3
122,4.18596,1.121,-1,3
123,4.18596,1.122,-1,3
124,4.18821,1.128,-1,3
125,4.18935,1.133,-1,3
126,4.19048,1.136,-1,3
127,4.19162,1.142,-1,3
128,4.19277,1.149,-1,3
129,4.19393,1.157,-1,3
130,4.19509,1.161,-1,3
131,4.19626,1.169,-1,3
132,4.19744,1.179,-1,3
133,4.19863,1.186,-1,3
134,4.19982,1.191,-1,3
135,4.20102,1.205,-1,3
136,4.20224,1.222,-1,3
137,4.20347,1.229,-1,3
138,4.20471,1.233,-1,3
139,4.20595,1.242,-1,3
140,4.20721,1.258,-1,3
141,4.20845,1.248,-1,3
142,4.20969,1.235,-1,3
143,4.21092,1.227,-1,3
144,4.21216,1.245,-1,3
145,4.21343,1.267,-1,3
146,4.21471,1.285,-1,3
147,4.21601,1.297,-1,3
148,4.21732,1.309,-1,3
149,4.21864,1.323,-1,3
150,4.21999,1.344,-1,3
151,4.22135,1.360,-1,3
152,4.22271,1.364,-1,3
153,4.22408,1.370,-1,3
154,4.22547,1.392,-1,3
155,4.22689,1.419,-1,3
156,4.22833,1.435,-1,3
157,4.22977,1.443,-1,3
158,4.23122,1.455,-1,3
159,4.23270,1.471,-1,3
160,4.23419,1.499,-1,3
161,4.23571,1.518,-1,3
162,4.23724,1.526,-1,3
163,4.23877,1.536,-1,3
164,4.24034,1.566,-1,3
165,4.24193,1.595,-1,3
166,4.24355,1.615,-1,3
167,4.24846,1.657,-1,3
168,4.25016,1.695,-1,3
169,4.25188,1.723,-1,3
170,4.25361,1.732,-1,3
171,4.25535,1.744,-1,3
172,4.25712,1.770,-1,3
173,4.25893,1.804,-1,3
174,4.26076,1.832,-1,3
175,4.26260,1.841,-1,3
176,4.26446,1.861,-1,3
177,4.26636,1.895,-1,3
178,4.26829,1.932,-1,3
179,4.27024,1.954,-1,3
180,4.27221,1.968,-1,3
181,4.27420,1.989,-1,3
182,4.27622,2.021,-1,3
183,4.27827,2.054,-1,3
184,4.28036,2.085,-1,3
185,4.28247,2.106,-1,3
186,4.28460,2.134,-1,3
187,4.28676,2.158,-1,3
188,4.28895,2.188,-1,3
189,4.29116,2.212,-1,3
190,4.29338,2.218,-1,3
191,4.29559,2.212,-1,3
192,4.29780,2.216,-1,3
193,4.30005,2.246,-1,3
194,4.30234,2.293,-1,3
195,4.30468,2.331,-1,3
196,4.30702,2.346,-1,3
197,4.30938,2.359,-1,3
198,4.31177,2.389,-1,3
199,4.31421,2.441,-1,3
200,4.31669,2.485,-1,3
201,4.31920,2.505,-1,3
202,4.32172,2.525,-1,3
203,4.32428,2.552,-1,3
204,4.32686,2.585,-1,3
205,4.32949,2.632,-1,3
206,4.33216,2.670,-1,3
207,4.33486,2.694,-1,3
208,4.33758,2.719,-1,3
209,4.34034,2.761,-1,3
210,4.34314,2.806,-1,3
211,4.34598,2.840,-1,3
212,4.34885,2.865,-1,3
213,4.35174,2.893,-1,3
214,4.35468,2.942,-1,3
215,4.35767,2.987,-1,3
216,4.36069,3.024,-1,3
217,4.36375,3.055,-1,3
218,4.36683,3.083,-1,3
219,4.36995,3.121,-1,3
220,4.37312,3.205,-1,3
221,4.37632,3.251,-1,3
222,4.37957,3.287,-1,3
223,4.38618,3.322,-1,3
224,4.38953,3.352,-1,3
225,4.39292,3.389,-1,3
226,4.39635,3.429,-1,3
227,4.39982,3.468,-1,3
228,4.40333,3.511,-1,3
229,4.40688,3.550,-1,3
230,4.41047,3.586,-1,3
231,4.41408,3.609,-1,3
232,4.41771,3.632,-1,3
233,4.42137,3.657,-1,3
234,4.42506,3.696,-1,3
235,4.42880,3.734,-1,3
236,4.43257,3.772,-1,3
237,4.43637,3.797,-1,3
238,4.44018,3.817,-1,3
239,4.44403,3.848,-1,3
240,4.44791,3.883,-1,3
241,4.45182,3.911,-1,3
242,4.45576,3.935,-1,3
243,4.45972,3.959,-1,3
244,4.46370,3.980,-1,3
245,4.46770,4.003,-1,3
246,4.47173,4.028,-1,3
247,4.47578,4.048,-1,3
248,4.47984,4.062,-1,3
249,4.48392,4.080,-1,3
250,4.48802,4.098,-1,3
251,4.49214,4.117,-1,3
252,4.49626,4.130,-1,3
253,4.50041,4.142,-1,3
254,4.50456,4.152,-1,3
255,4.50872,4.163,-1,3
256,4.51709,4.190,-1,3
257,4.52129,4.200,-1,3
258,4.52550,4.204,-1,3
259,4.52971,4.213,-1,3
260,4.53392,4.213,-1,3
261,4.53814,4.222,-1,3
262,4.54237,4.225,-1,3
263,4.54660,4.228,-1,3
264,4.55083,4.229,-1,3
265,4.55506,4.237,-1,3
266,4.55930,4.236,-1,3
267,4.56777,4.237,-1,3
268,4.57201,4.235,-1,3
269,4.57624,4.234,-1,3
270,4.58048,4.237,-1,3
271,4.58471,4.233,-1,3
272,4.58894,4.225,-1,3
273,4.59316,4.223,-1,3
274,4.59738,4.219,-1,3
275,4.60159,4.213,-1,3
276,4.60581,4.213,-1,3
277,4.61001,4.207,-1,3
278,4.61421,4.197,-1,3
279,4.61840,4.186,-1,3
280,4.62257,4.175,-1,3
281,4.62674,4.170,-1,3
282,4.63090,4.161,-1,3
283,4.63505,4.152,-1,3
284,4.63919,4.138,-1,3
285,4.64332,4.126,-1,3
286,4.64743,4.112,-1,3
287,4.65562,4.091,-1,3
288,4.65970,4.078,-1,3
289,4.66376,4.064,-1,3
290,4.66781,4.050,-1,3
291,4.67185,4.037,-1,3
292,4.67587,4.019,-1,3
293,4.67988,4.007,-1,3
294,4.68387,3.991,-1,3
295,4.68785,3.981,-1,3
296,4.69181,3.964,-1,3
297,4.69576,3.947,-1,3
298,4.69969,3.933,-1,3
299,4.70361,3.921,-1,3
300,4.70752,3.907,-1,3
301,4.71141,3.892,-1,3
302,4.71528,3.872,-1,3
303,4.71914,3.859,-1,3
304,4.72299,3.849,-1,3
305,4.72683,3.836,-1,3
306,4.73064,3.817,-1,3
307,4.73444,3.800,-1,3
308,4.73823,3.788,-1,3
309,4.74201,3.776,-1,3
310,4.74577,3.760,-1,3
311,4.74952,3.747,-1,3
312,4.75324,3.729,-1,3
313,4.75696,3.717,-1,3
314,4.76066,3.701,-1,3
315,4.76435,3.689,-1,3
316,4.76802,3.672,-1,3
317,4.77168,3.655,-1,3
318,4.77532,3.644,-1,3
319,4.77895,3.630,-1,3
320,4.78257,3.614,-1,3
321,4.78975,3.586,-1,3
322,4.79332,3.570,-1,3
323,4.79688,3.542,-1,3
324,4.80395,3.531,-1,3
325,4.80747,3.516,-1,3
326,4.81097,3.501,-1,3
327,4.81446,3.489,-1,3
328,4.81794,3.475,-1,3
329,4.82140,3.460,-1,3
330,4.82485,3.450,-1,3
331,4.82828,3.433,-1,3
332,4.83170,3.420,-1,3
333,4.83511,3.408,-1,3
334,4.83850,3.393,-1,3
335,4.84188,3.379,-1,3
336,4.84524,3.365,-1,3
337,4.84859,3.351,-1,3
338,4.85193,3.338,-1,3
339,4.85525,3.323,-1,3
340,4.85856,3.311,-1,3
341,4.86186,3.297,-1,3
342,4.86514,3.283,-1,3
343,4.86841,3.270,-1,3
344,4.87167,3.257,-1,3
345,4.87492,3.245,-1,3
346,4.87815,3.232,-1,3
347,4.88137,3.217,-1,3
348,4.88457,3.203,-1,3
349,4.88776,3.190,-1,3
350,4.89094,3.178,-1,3
351,4.89410,3.164,-1,3
352,4.89725,3.150,-1,3
353,4.90039,3.136,-1,3
354,4.90662,3.109,-1,3
355,4.90971,3.094,-1,3
356,4.91279,3.082,-1,3
357,4.91586,3.071,-1,3
358,4.91892,3.055,-1,3
359,4.92196,3.041,-1,3
360,4.92499,3.030,-1,3
361,4.92801,3.017,-1,3
362,4.93101,3.005,-1,3
363,4.93400,2.991,-1,3
364,4.93698,2.981,-1,3
365,4.93995,2.964,-1,3
366,4.94290,2.951,-1,3
367,4.94584,2.941,-1,3
368,4.94876,2.923,-1,3
369,4.95167,2.912,-1,3
370,4.95746,2.885,-1,3
371,4.96033,2.872,-1,3
372,4.96319,2.862,-1,3
373,4.96604,2.844,-1,3
374,4.96887,2.832,-1,3
375,4.97169,2.819,-1,3
376,4.97450,2.809,-1,3
377,4.97729,2.795,-1,3
378,4.98007,2.778,-1,3
379,4.98283,2.764,-1,3
380,4.98559,2.754,-1,3
381,4.98833,2.738,-1,3
382,4.99106,2.728,-1,3
383,4.99377,2.712,-1,3
384,4.99646,2.694,-1,3
385,4.99915,2.685,-1,3
386,5.00182,2.675,-1,3
387,5.00448,2.658,-1,3
388,5.00712,2.646,-1,3
389,5.00976,2.633,-1,3
390,5.01238,2.620,-1,3
391,5.01499,2.611,-1,3
392,5.01759,2.600,-1,3
393,5.02017,2.578,-1,3
394,5.02532,2.569,-1,3
395,5.02788,2.560,-1,3
396,5.03044,2.559,-1,3
397,5.03299,2.549,-1,3
398,5.03553,2.540,-1,3
399,5.03806,2.535,-1,3
400,5.04060,2.531,-1,3
401,5.04312,2.526,-1,3
402,5.04565,2.524,-1,3
403,5.04817,2.520,-1,3
404,5.05068,2.515,-1,3
405,5.05320,2.515,-1,3
406,5.05571,2.513,-1,3
407,5.05822,2.510,-1,3
408,5.06073,2.510,-1,3
409,5.06324,2.508,-1,3
410,5.06575,2.511,-1,3
411,5.06827,2.516,-1,3
412,5.07078,2.519,-1,3
413,5.07331,2.521,-1,3
414,5.07583,2.524,-1,3
415,5.07836,2.529,-1,3
416,5.08089,2.533,-1,3
417,5.08343,2.539,-1,3
418,5.08598,2.546,-1,3
419,5.08852,2.549,-1,3
420,5.09108,2.552,-1,3
421,5.09364,2.559,-1,3
422,5.09621,2.572,-1,3
423,5.09879,2.581,-1,3
424,5.10138,2.589,-1,3
425,5.10398,2.599,-1,3
426,5.10658,2.620,-1,3
427,5.11184,2.637,-1,3
428,5.11450,2.658,-1,3
429,5.11717,2.672,-1,3
430,5.11985,2.682,-1,3
431,5.12255,2.696,-1,3
432,5.12527,2.716,-1,3
433,5.12800,2.734,-1,3
434,5.13075,2.753,-1,3
435,5.13352,2.772,-1,3
436,5.13631,2.789,-1,3
437,5.13912,2.804,-1,3
438,5.14195,2.831,-1,3
439,5.14481,2.858,-1,3
440,5.14769,2.881,-1,3
441,5.15059,2.902,-1,3
442,5.15351,2.923,-1,3
443,5.15646,2.951,-1,3
444,5.15945,2.984,-1,3
445,5.16246,3.012,-1,3
446,5.16550,3.038,-1,3
447,5.16856,3.063,-1,3
448,5.17166,3.099,-1,3
449,5.17479,3.134,-1,3
450,5.17796,3.167,-1,3
451,5.18116,3.199,-1,3
452,5.18440,3.236,-1,3
453,5.18767,3.270,-1,3
454,5.19097,3.307,-1,3
455,5.19431,3.342,-1,3
456,5.19769,3.372,-1,3
457,5.20109,3.406,-1,3
458,5.20454,3.445,-1,3
459,5.20802,3.482,-1,3
460,5.21154,3.516,-1,3
461,5.21509,3.549,-1,3
462,5.21867,3.584,-1,3
463,5.22595,3.656,-1,3
464,5.22964,3.694,-1,3
465,5.23336,3.722,-1,3
466,5.23712,3.759,-1,3
467,5.24092,3.797,-1,3
468,5.24475,3.835,-1,3
469,5.24862,3.868,-1,3
470,5.25252,3.901,-1,3
471,5.25646,3.938,-1,3
472,5.26043,3.973,-1,3
473,5.26445,4.014,-1,3
474,5.27256,4.074,-1,3
475,5.27667,4.108,-1,3
476,5.28081,4.141,-1,3
477,5.28499,4.174,-1,3
478,5.28919,4.206,-1,3
479,5.29343,4.234,-1,3
480,5.29769,4.262,-1,3
481,5.30198,4.295,-1,3
482,5.30631,4.324,-1,3
483,5.31066,4.352,-1,3
484,5.31504,4.379,-1,3
485,5.31944,4.399,-1,3
486,5.32387,4.428,-1,3
487,5.32832,4.456,-1,3
488,5.33280,4.480,-1,3
489,5.33730,4.501,-1,3
490,5.34182,4.520,-1,3
491,5.34637,4.544,-1,3
492,5.35093,4.567,-1,3
493,5.35552,4.590,-1,3
494,5.36013,4.605,-1,3
495,5.36475,4.620,-1,3
496,5.36938,4.635,-1,3
497,5.37403,4.650,-1,3
498,5.37870,4.673,-1,3
499,5.38809,4.696,-1,3
500,5.39279,4.705,-1,3
501,5.39751,4.719,-1,3
502,5.40225,4.732,-1,3
503,5.40699,4.744,-1,3
504,5.41174,4.746,-1,3
505,5.41649,4.757,-1,3
506,5.42125,4.761,-1,3
507,5.42603,4.773,-1,3
508,5.43081,4.781,-1,3
509,5.43560,4.789,-1,3
510,5.44038,4.787,-1,3
511,5.44517,4.791,-1,3
512,5.44997,4.796,-1,3
513,5.45477,4.801,-1,3
514,5.45958,4.806,-1,3
515,5.46438,4.805,-1,3
516,5.46918,4.795,-1,3
517,5.47397,4.797,-1,3
518,5.47877,4.799,-1,3
519,5.48357,4.797,-1,3
520,5.48836,4.794,-1,3
521,5.49315,4.785,-1,3
522,5.49793,4.779,-1,3
523,5.50270,4.774,-1,3
524,5.50747,4.770,-1,3
525,5.51224,4.764,-1,3
526,5.51699,4.760,-1,3
527,5.52174,4.746,-1,3
528,5.52648,4.737,-1,3
529,5.53121,4.729,-1,3
530,5.53593,4.721,-1,3
531,5.54064,4.698,-1,3
532,5.55002,4.685,-1,3
533,5.55469,4.670,-1,3
534,5.55936,4.666,-1,3
535,5.56401,4.650,-1,3
536,5.56865,4.637,-1,3
537,5.57327,4.620,-1,3
538,5.57788,4.611,-1,3
539,5.58247,4.596,-1,3
540,5.58706,4.582,-1,3
541,5.59162,4.569,-1,3
542,5.59618,4.552,-1,3
543,5.60071,4.538,-1,3
544,5.60524,4.525,-1,3
545,5.60975,4.509,-1,3
546,5.61424,4.497,-1,3
547,5.61872,4.478,-1,3
548,5.62318,4.460,-1,3
549,5.62763,4.449,-1,3
550,5.63207,4.435,-1,3
551,5.63648,4.419,-1,3
552,5.64089,4.402,-1,3
553,5.64528,4.390,-1,3
554,5.64965,4.375,-1,3
555,5.65401,4.363,-1,3
556,5.65836,4.348,-1,3
557,5.66270,4.333,-1,3
558,5.66701,4.319,-1,3
559,5.67132,4.303,-1,3
560,5.67561,4.290,-1,3
561,5.67988,4.274,-1,3
562,5.68414,4.260,-1,3
563,5.68838,4.243,-1,3
564,5.69262,4.214,-1,3
565,5.70103,4.201,-1,3
566,5.70522,4.186,-1,3
567,5.70939,4.170,-1,3
568,5.71354,4.157,-1,3
569,5.71769,4.145,-1,3
570,5.72182,4.129,-1,3
571,5.72593,4.116,-1,3
572,5.73004,4.103,-1,3
573,5.73413,4.088,-1,3
574,5.73820,4.071,-1,3
575,5.74225,4.058,-1,3
576,5.74630,4.046,-1,3
577,5.75033,4.030,-1,3
578,5.75434,4.015,-1,3
579,5.75834,3.997,-1,3
580,5.76233,3.986,-1,3
581,5.77027,3.962,-1,3
582,5.77421,3.943,-1,3
583,5.77814,3.929,-1,3
584,5.78205,3.916,-1,3
585,5.78596,3.906,-1,3
586,5.78985,3.891,-1,3
587,5.79373,3.879,-1,3
588,5.79759,3.862,-1,3
589,5.80144,3.850,-1,3
590,5.80528,3.837,-1,3
591,5.80910,3.826,-1,3
592,5.81291,3.810,-1,3
593,5.81671,3.798,-1,3
594,5.82050,3.784,-1,3
595,5.82427,3.771,-1,3
596,5.82803,3.762,-1,3
597,5.83178,3.748,-1,3
598,5.83551,3.731,-1,3
599,5.83923,3.719,-1,3
600,5.84294,3.711,-1,3
601,5.84663,3.695,-1,3
602,5.85032,3.684,-1,3
603,5.85398,3.666,-1,3
604,5.85764,3.659,-1,3
605,5.86129,3.646,-1,3
606,5.86492,3.635,-1,3
607,5.86855,3.622,-1,3
608,5.87216,3.610,-1,3
609,5.87575,3.595,-1,3
610,5.87934,3.588,-1,3
611,5.88648,3.565,-1,3
612,5.89003,3.550,-1,3
613,5.89356,3.536,-1,3
614,5.89709,3.531,-1,3
615,5.90062,3.520,-1,3
616,5.90412,3.506,-1,3
617,5.90761,3.494,-1,3
618,5.91110,3.487,-1,3
619,5.91458,3.474,-1,3
620,5.91804,3.468,-1,3
621,5.92150,3.456,-1,3
622,5.92495,3.447,-1,3
623,5.92838,3.437,-1,3
624,5.93181,3.431,-1,3
625,5.93524,3.423,-1,3
626,5.93866,3.418,-1,3
627,5.94206,3.408,-1,3
628,5.94546,3.400,-1,3
629,5.94886,3.396,-1,3
630,5.95225,3.389,-1,3
631,5.95563,3.385,-1,3
632,5.95901,3.377,-1,3
633,5.96238,3.372,-1,3
634,5.96575,3.369,-1,3
635,5.96912,3.367,-1,3
636,5.97248,3.364,-1,3
637,5.97584,3.358,-1,3
638,5.97920,3.356,-1,3
639,5.98256,3.360,-1,3
640,5.98591,3.358,-1,3
641,5.99263,3.358,-1,3
642,5.99599,3.358,-1,3
643,5.99935,3.363,-1,3
644,6.00272,3.365,-1,3
645,6.00609,3.367,-1,3
646,6.00946,3.371,-1,3
647,6.01284,3.379,-1,3
648,6.01622,3.389,-1,3
649,6.01962,3.395,-1,3
650,6.02302,3.400,-1,3
651,6.02643,3.411,-1,3
652,6.02985,3.424,-1,3
653,6.03329,3.435,-1,3
654,6.03674,3.452,-1,3
655,6.04021,3.466,-1,3
656,6.04369,3.485,-1,3
657,6.04720,3.507,-1,3
658,6.05072,3.523,-1,3
659,6.05427,3.545,-1,3
660,6.05783,3.564,-1,3
661,6.06142,3.587,-1,3
662,6.06503,3.612,-1,3
663,6.06867,3.640,-1,3
664,6.07233,3.662,-1,3
665,6.07602,3.687,-1,3
666,6.07974,3.716,-1,3
667,6.08348,3.743,-1,3
668,6.08725,3.772,-1,3
669,6.09105,3.799,-1,3
670,6.09488,3.831,-1,3
671,6.09874,3.894,-1,3
672,6.10657,3.930,-1,3
673,6.11053,3.964,-1,3
674,6.11453,4.001,-1,3
675,6.11857,4.037,-1,3
676,6.12265,4.077,-1,3
677,6.12676,4.115,-1,3
678,6.13092,4.158,-1,3
679,6.13512,4.202,-1,3
680,6.13937,4.247,-1,3
681,6.14366,4.292,-1,3
682,6.14800,4.342,-1,3
683,6.15683,4.439,-1,3
684,6.16131,4.485,-1,3
685,6.16585,4.535,-1,3
686,6.17043,4.583,-1,3
687,6.17507,4.636,-1,3
688,6.17975,4.682,-1,3
689,6.18448,4.730,-1,3
690,6.18925,4.775,-1,3
691,6.19408,4.828,-1,3
692,6.19896,4.874,-1,3
693,6.20388,4.926,-1,3
694,6.20885,4.972,-1,3
695,6.21387,5.016,-1,3
696,6.21894,5.071,-1,3
697,6.22406,5.118,-1,3
698,6.22922,5.162,-1,3
699,6.23443,5.206,-1,3
700,6.23968,5.250,-1,3
701,6.24497,5.288,-1,3
702,6.25030,5.335,-1,3
703,6.25568,5.377,-1,3
704,6.26109,5.415,-1,3
705,6.26655,5.454,-1,3
706,6.27204,5.491,-1,3
707,6.27757,5.527,-1,3
708,6.28313,5.567,-1,3
709,6.29436,5.631,-1,3
710,6.30002,5.654,-1,3
711,6.30570,5.685,-1,3
712,6.31142,5.717,-1,3
713,6.31716,5.743,-1,3
714,6.32292,5.760,-1,3
715,6.32870,5.777,-1,3
716,6.33450,5.801,-1,3
717,6.34032,5.820,-1,3
718,6.34616,5.840,-1,3
719,6.35201,5.851,-1,3
720,6.35788,5.866,-1,3
721,6.36375,5.879,-1,3
722,6.36966,5.901,-1,3
723,6.37557,5.910,-1,3
724,6.38148,5.918,-1,3
725,6.38741,5.926,-1,3
726,6.39335,5.937,-1,3
727,6.39930,5.951,-1,3
728,6.40525,5.952,-1,3
729,6.41121,5.959,-1,3
730,6.41717,5.967,-1,3
731,6.42315,5.971,-1,3
732,6.42912,5.979,-1,3
733,6.43511,5.983,-1,3
734,6.44109,5.982,-1,3
735,6.44708,5.989,-1,3
736,6.45307,5.988,-1,3
737,6.45906,5.990,-1,3
738,6.46505,5.988,-1,3
739,6.47103,5.985,-1,3
740,6.47701,5.978,-1,3
741,6.48896,5.975,-1,3
742,6.49493,5.967,-1,3
743,6.50090,5.967,-1,3
744,6.50685,5.956,-1,3
745,6.51280,5.948,-1,3
746,6.51874,5.940,-1,3
747,6.52467,5.933,-1,3
748,6.53059,5.919,-1,3
749,6.53650,5.911,-1,3
750,6.54240,5.894,-1,3
751,6.54828,5.884,-1,3
752,6.55415,5.869,-1,3
753,6.56000,5.855,-1,3
754,6.56584,5.838,-1,3
755,6.57167,5.828,-1,3
756,6.57748,5.812,-1,3
757,6.58328,5.800,-1,3
758,6.58907,5.783,-1,3
759,6.59483,5.765,-1,3
760,6.60058,5.752,-1,3
761,6.60632,5.737,-1,3
762,6.61204,5.719,-1,3
763,6.61774,5.703,-1,3
764,6.62343,5.692,-1,3
765,6.62911,5.673,-1,3
766,6.63477,5.660,-1,3
767,6.64041,5.644,-1,3
768,6.64604,5.633,-1,3
769,6.65166,5.618,-1,3
770,6.65726,5.601,-1,3
771,6.66285,5.584,-1,3
772,6.66842,5.571,-1,3
773,6.67397,5.557,-1,3
774,6.67952,5.541,-1,3
775,6.68504,5.506,-1,3
776,6.69604,5.494,-1,3
777,6.70152,5.482,-1,3
778,6.70698,5.464,-1,3
779,6.71243,5.449,-1,3
780,6.71787,5.436,-1,3
781,6.72329,5.417,-1,3
782,6.72869,5.408,-1,3
783,6.73408,5.389,-1,3
784,6.73946,5.378,-1,3
785,6.74482,5.357,-1,3
786,6.75016,5.346,-1,3
787,6.75549,5.327,-1,3
788,6.76080,5.315,-1,3
789,6.77139,5.286,-1,3
790,6.77666,5.271,-1,3
791,6.78191,5.252,-1,3
792,6.78715,5.241,-1,3
793,6.79239,5.231,-1,3
794,6.79760,5.215,-1,3
795,6.80280,5.198,-1,3
796,6.80798,5.184,-1,3
797,6.81315,5.166,-1,3
798,6.81830,5.155,-1,3
799,6.82345,5.143,-1,3
800,6.82857,5.127,-1,3
801,6.83368,5.110,-1,3
802,6.83878,5.096,-1,3
803,6.84386,5.079,-1,3
804,6.84893,5.069,-1,3
805,6.85399,5.058,-1,3
806,6.85903,5.042,-1,3
807,6.86405,5.024,-1,3
808,6.86906,5.009,-1,3
809,6.87406,5.001,-1,3
810,6.87905,4.991,-1,3
811,6.88403,4.973,-1,3
812,6.88898,4.955,-1,3
813,6.89392,4.942,-1,3
814,6.89885,4.927,-1,3
815,6.90377,4.916,-1,3
816,6.90867,4.901,-1,3
817,6.91355,4.886,-1,3
818,6.91843,4.871,-1,3
819,6.92328,4.857,-1,3
820,6.92813,4.845,-1,3
821,6.93297,4.838,-1,3
822,6.93779,4.822,-1,3
823,6.94259,4.805,-1,3
824,6.94738,4.792,-1,3
825,6.95216,4.776,-1,3
826,6.95693,4.770,-1,3
827,6.96169,4.756,-1,3
828,6.96642,4.735,-1,3
829,6.97114,4.718,-1,3
830,6.97585,4.697,-1,3
831,6.98054,4.684,-1,3
832,6.98523,4.666,-1,3
833,6.99455,4.653,-1,3
834,6.99919,4.639,-1,3
835,7.00382,4.629,-1,3
836,7.00843,4.615,-1,3
837,7.01303,4.598,-1,3
838,7.01761,4.580,-1,3
839,7.02218,4.572,-1,3
840,7.02674,4.557,-1,3
841,7.03128,4.543,-1,3
842,7.03581,4.526,-1,3
843,7.04032,4.513,-1,3
844,7.04482,4.498,-1,3
845,7.04930,4.486,-1,3
846,7.05378,4.473,-1,3
847,7.05823,4.456,-1,3
848,7.06267,4.441,-1,3
849,7.06710,4.427,-1,3
850,7.07152,4.418,-1,3
851,7.07592,4.405,-1,3
852,7.08031,4.390,-1,3
853,7.08468,4.373,-1,3
854,7.08904,4.358,-1,3
855,7.09339,4.343,-1,3
856,7.09772,4.335,-1,3
857,7.10204,4.320,-1,3
858,7.10634,4.302,-1,3
859,7.11063,4.285,-1,3
860,7.11490,4.272,-1,3
861,7.11916,4.258,-1,3
862,7.12340,4.246,-1,3
863,7.12764,4.234,-1,3
864,7.13185,4.215,-1,3
865,7.13605,4.200,-1,3
866,7.14024,4.186,-1,3
867,7.14442,4.178,-1,3
868,7.14858,4.163,-1,3
869,7.15273,4.150,-1,3
870,7.15686,4.132,-1,3
871,7.16098,4.121,-1,3
872,7.16509,4.105,-1,3
873,7.16918,4.096,-1,3
