cnt,pos,speed,Dir,Force,
1,3.96833,1.009,-1,3
2,3.96936,1.027,-1,3
3,3.97041,1.051,-1,3
4,3.97148,1.073,-1,3
5,3.97257,1.083,-1,3
6,3.97366,1.094,-1,3
7,3.97478,1.115,-1,3
8,3.97591,1.138,-1,3
9,3.97706,1.152,-1,3
10,3.97822,1.160,-1,3
11,3.97940,1.174,-1,3
12,3.98059,1.194,-1,3
13,3.98181,1.216,-1,3
14,3.98303,1.224,-1,3
15,3.98426,1.231,-1,3
16,3.98551,1.245,-1,3
17,3.98677,1.263,-1,3
18,3.98805,1.277,-1,3
19,3.98934,1.292,-1,3
20,3.99064,1.299,-1,3
21,3.99194,1.303,-1,3
22,3.99326,1.313,-1,3
23,3.99459,1.332,-1,3
24,3.99593,1.345,-1,3
25,3.99728,1.349,-1,3
26,3.99863,1.352,-1,3
27,3.99999,1.360,-1,3
28,4.00137,1.372,-1,3
29,4.00275,1.383,-1,3
30,4.00414,1.389,-1,3
31,4.00553,1.390,-1,3
32,4.00692,1.390,-1,3
33,4.00832,1.401,-1,3
34,4.00973,1.414,-1,3
35,4.01115,1.417,-1,3
36,4.01256,1.410,-1,3
37,4.01397,1.411,-1,3
38,4.01539,1.418,-1,3
39,4.01681,1.426,-1,3
40,4.01824,1.429,-1,3
41,4.01967,1.424,-1,3
42,4.02109,1.420,-1,3
43,4.02251,1.422,-1,3
44,4.02394,1.431,-1,3
45,4.02537,1.430,-1,3
46,4.02679,1.424,-1,3
47,4.02821,1.421,-1,3
48,4.02963,1.419,-1,3
49,4.03105,1.420,-1,3
50,4.03248,1.422,-1,3
51,4.03389,1.412,-1,3
52,4.03530,1.407,-1,3
53,4.03670,1.407,-1,3
54,4.03952,1.405,-1,3
55,4.04091,1.393,-1,3
56,4.04230,1.387,-1,3
57,4.04368,1.387,-1,3
58,4.04508,1.390,-1,3
59,4.04646,1.388,-1,3
60,4.04784,1.376,-1,3
61,4.04920,1.361,-1,3
62,4.05056,1.359,-1,3
63,4.05192,1.364,-1,3
64,4.05329,1.364,-1,3
65,4.05464,1.352,-1,3
66,4.05598,1.341,-1,3
67,4.05732,1.335,-1,3
68,4.05865,1.334,-1,3
69,4.05998,1.334,-1,3
70,4.06131,1.330,-1,3
71,4.06263,1.316,-1,3
72,4.06394,1.309,-1,3
73,4.06525,1.310,-1,3
74,4.06656,1.308,-1,3
75,4.06785,1.298,-1,3
76,4.06915,1.292,-1,3
77,4.07044,1.290,-1,3
78,4.07173,1.289,-1,3
79,4.07301,1.283,-1,3
80,4.07428,1.272,-1,3
81,4.07555,1.272,-1,3
82,4.07682,1.272,-1,3
83,4.07809,1.270,-1,3
84,4.07936,1.267,-1,3
85,4.08062,1.255,-1,3
86,4.08187,1.250,-1,3
87,4.08312,1.263,-1,3
88,4.08564,1.256,-1,3
89,4.08689,1.244,-1,3
90,4.08813,1.240,-1,3
91,4.08938,1.249,-1,3
92,4.09063,1.252,-1,3
93,4.09187,1.245,-1,3
94,4.09312,1.244,-1,3
95,4.09436,1.247,-1,3
96,4.09561,1.249,-1,3
97,4.09686,1.245,-1,3
98,4.09811,1.247,-1,3
99,4.09935,1.249,-1,3
100,4.10061,1.257,-1,3
101,4.10187,1.258,-1,3
102,4.10313,1.258,-1,3
103,4.10438,1.255,-1,3
104,4.10564,1.258,-1,3
105,4.10691,1.269,-1,3
106,4.10819,1.279,-1,3
107,4.10947,1.280,-1,3
108,4.11074,1.271,-1,3
109,4.11202,1.280,-1,3
110,4.11332,1.295,-1,3
111,4.11461,1.297,-1,3
112,4.11591,1.299,-1,3
113,4.11722,1.306,-1,3
114,4.11853,1.316,-1,3
115,4.11985,1.321,-1,3
116,4.12118,1.324,-1,3
117,4.12251,1.333,-1,3
118,4.12385,1.343,-1,3
119,4.12521,1.354,-1,3
120,4.12657,1.361,-1,3
121,4.12793,1.366,-1,3
122,4.13068,1.383,-1,3
123,4.13209,1.402,-1,3
124,4.13350,1.409,-1,3
125,4.13490,1.408,-1,3
126,4.13632,1.417,-1,3
127,4.13775,1.432,-1,3
128,4.13920,1.448,-1,3
129,4.14066,1.461,-1,3
130,4.14212,1.463,-1,3
131,4.14359,1.469,-1,3
132,4.14508,1.484,-1,3
133,4.14809,1.517,-1,3
134,4.14961,1.520,-1,3
135,4.15114,1.530,-1,3
136,4.15268,1.538,-1,3
137,4.15424,1.556,-1,3
138,4.15582,1.578,-1,3
139,4.15740,1.584,-1,3
140,4.15899,1.586,-1,3
141,4.16059,1.601,-1,3
142,4.16385,1.640,-1,3
143,4.16550,1.649,-1,3
144,4.16714,1.648,-1,3
145,4.16881,1.662,-1,3
146,4.17049,1.686,-1,3
147,4.17220,1.705,-1,3
148,4.17390,1.708,-1,3
149,4.17561,1.710,-1,3
150,4.17734,1.726,-1,3
151,4.17909,1.754,-1,3
152,4.18087,1.772,-1,3
153,4.18264,1.770,-1,3
154,4.18440,1.769,-1,3
155,4.18620,1.791,-1,3
156,4.18802,1.821,-1,3
157,4.18985,1.836,-1,3
158,4.19168,1.828,-1,3
159,4.19351,1.828,-1,3
160,4.19537,1.858,-1,3
161,4.19726,1.890,-1,3
162,4.19915,1.895,-1,3
163,4.20104,1.884,-1,3
164,4.20293,1.894,-1,3
165,4.20486,1.925,-1,3
166,4.20681,1.949,-1,3
167,4.20876,1.951,-1,3
168,4.21070,1.945,-1,3
169,4.21266,1.960,-1,3
170,4.21465,1.990,-1,3
171,4.21867,2.007,-1,3
172,4.22067,2.008,-1,3
173,4.22270,2.023,-1,3
174,4.22474,2.049,-1,3
175,4.22681,2.069,-1,3
176,4.22888,2.067,-1,3
177,4.23095,2.070,-1,3
178,4.23303,2.083,-1,3
179,4.23515,2.114,-1,3
180,4.23728,2.132,-1,3
181,4.23941,2.128,-1,3
182,4.24154,2.128,-1,3
183,4.24369,2.152,-1,3
184,4.24587,2.184,-1,3
185,4.24806,2.191,-1,3
186,4.25025,2.189,-1,3
187,4.25245,2.199,-1,3
188,4.25467,2.222,-1,3
189,4.25692,2.247,-1,3
190,4.25918,2.258,-1,3
191,4.26144,2.258,-1,3
192,4.26371,2.270,-1,3
193,4.26600,2.295,-1,3
194,4.26832,2.318,-1,3
195,4.27065,2.332,-1,3
196,4.27298,2.332,-1,3
197,4.27533,2.345,-1,3
198,4.27770,2.371,-1,3
199,4.28009,2.395,-1,3
200,4.28250,2.406,-1,3
201,4.28492,2.416,-1,3
202,4.28734,2.429,-1,3
203,4.28979,2.476,-1,3
204,4.29227,2.495,-1,3
205,4.29476,2.503,-1,3
206,4.29978,2.516,-1,3
207,4.30232,2.540,-1,3
208,4.30489,2.564,-1,3
209,4.30747,2.586,-1,3
210,4.31007,2.599,-1,3
211,4.31269,2.615,-1,3
212,4.31532,2.636,-1,3
213,4.31798,2.661,-1,3
214,4.32067,2.685,-1,3
215,4.32337,2.703,-1,3
216,4.32609,2.719,-1,3
217,4.32883,2.739,-1,3
218,4.33160,2.770,-1,3
219,4.33439,2.793,-1,3
220,4.33720,2.811,-1,3
221,4.34003,2.831,-1,3
222,4.34288,2.851,-1,3
223,4.34576,2.879,-1,3
224,4.34867,2.905,-1,3
225,4.35159,2.927,-1,3
226,4.35454,2.945,-1,3
227,4.35751,2.966,-1,3
228,4.36050,2.997,-1,3
229,4.36352,3.020,-1,3
230,4.36656,3.041,-1,3
231,4.36963,3.063,-1,3
232,4.37271,3.085,-1,3
233,4.37583,3.113,-1,3
234,4.37896,3.138,-1,3
235,4.38212,3.159,-1,3
236,4.38530,3.181,-1,3
237,4.38851,3.206,-1,3
238,4.39174,3.229,-1,3
239,4.39500,3.255,-1,3
240,4.40157,3.298,-1,3
241,4.40489,3.318,-1,3
242,4.40823,3.343,-1,3
243,4.41160,3.366,-1,3
244,4.41498,3.383,-1,3
245,4.41838,3.406,-1,3
246,4.42181,3.424,-1,3
247,4.42525,3.444,-1,3
248,4.42872,3.463,-1,3
249,4.43220,3.481,-1,3
250,4.43569,3.497,-1,3
251,4.43921,3.514,-1,3
252,4.44274,3.529,-1,3
253,4.44628,3.546,-1,3
254,4.44984,3.560,-1,3
255,4.45342,3.574,-1,3
256,4.45700,3.588,-1,3
257,4.46060,3.600,-1,3
258,4.46422,3.612,-1,3
259,4.46784,3.625,-1,3
260,4.47148,3.635,-1,3
261,4.47513,3.650,-1,3
262,4.47878,3.657,-1,3
263,4.48245,3.669,-1,3
264,4.48613,3.675,-1,3
265,4.48981,3.684,-1,3
266,4.49351,3.698,-1,3
267,4.49721,3.703,-1,3
268,4.50092,3.711,-1,3
269,4.50464,3.717,-1,3
270,4.50836,3.725,-1,3
271,4.51584,3.739,-1,3
272,4.51958,3.743,-1,3
273,4.52333,3.751,-1,3
274,4.52708,3.753,-1,3
275,4.53084,3.761,-1,3
276,4.53461,3.765,-1,3
277,4.53838,3.768,-1,3
278,4.54215,3.770,-1,3
279,4.54592,3.770,-1,3
280,4.54969,3.776,-1,3
281,4.55347,3.782,-1,3
282,4.55725,3.779,-1,3
283,4.56103,3.776,-1,3
284,4.56481,3.778,-1,3
285,4.56859,3.779,-1,3
286,4.57237,3.779,-1,3
287,4.57615,3.780,-1,3
288,4.57992,3.778,-1,3
289,4.58370,3.772,-1,3
290,4.58747,3.774,-1,3
291,4.59124,3.772,-1,3
292,4.59501,3.769,-1,3
293,4.59878,3.767,-1,3
294,4.60254,3.761,-1,3
295,4.60630,3.757,-1,3
296,4.61005,3.753,-1,3
297,4.61380,3.750,-1,3
298,4.61754,3.746,-1,3
299,4.62128,3.736,-1,3
300,4.62501,3.729,-1,3
301,4.62873,3.725,-1,3
302,4.63245,3.718,-1,3
303,4.63616,3.712,-1,3
304,4.63987,3.704,-1,3
305,4.64356,3.693,-1,3
306,4.64725,3.687,-1,3
307,4.65092,3.678,-1,3
308,4.65459,3.667,-1,3
309,4.65825,3.653,-1,3
310,4.66555,3.644,-1,3
311,4.66918,3.631,-1,3
312,4.67280,3.618,-1,3
313,4.67641,3.611,-1,3
314,4.68001,3.601,-1,3
315,4.68360,3.591,-1,3
316,4.68718,3.576,-1,3
317,4.69074,3.565,-1,3
318,4.69429,3.553,-1,3
319,4.69784,3.544,-1,3
320,4.70137,3.530,-1,3
321,4.70488,3.515,-1,3
322,4.70839,3.503,-1,3
323,4.71188,3.493,-1,3
324,4.71536,3.476,-1,3
325,4.71882,3.467,-1,3
326,4.72227,3.448,-1,3
327,4.72571,3.440,-1,3
328,4.72914,3.424,-1,3
329,4.73255,3.412,-1,3
330,4.73595,3.399,-1,3
331,4.73933,3.384,-1,3
332,4.74270,3.370,-1,3
333,4.74606,3.360,-1,3
334,4.74941,3.346,-1,3
335,4.75273,3.328,-1,3
336,4.75605,3.320,-1,3
337,4.75936,3.304,-1,3
338,4.76265,3.289,-1,3
339,4.76592,3.275,-1,3
340,4.76918,3.263,-1,3
341,4.77567,3.236,-1,3
342,4.77889,3.218,-1,3
343,4.78210,3.209,-1,3
344,4.78529,3.193,-1,3
345,4.78847,3.179,-1,3
346,4.79163,3.167,-1,3
347,4.79479,3.157,-1,3
348,4.79793,3.138,-1,3
349,4.80106,3.128,-1,3
350,4.80417,3.117,-1,3
351,4.80728,3.103,-1,3
352,4.81345,3.079,-1,3
353,4.81651,3.067,-1,3
354,4.81957,3.056,-1,3
355,4.82261,3.044,-1,3
356,4.82565,3.032,-1,3
357,4.82866,3.019,-1,3
358,4.83167,3.008,-1,3
359,4.83467,2.999,-1,3
360,4.83766,2.989,-1,3
361,4.84361,2.967,-1,3
362,4.84656,2.957,-1,3
363,4.84951,2.947,-1,3
364,4.85245,2.939,-1,3
365,4.85538,2.929,-1,3
366,4.85830,2.921,-1,3
367,4.86121,2.911,-1,3
368,4.86412,2.904,-1,3
369,4.86701,2.896,-1,3
370,4.86990,2.889,-1,3
371,4.87278,2.879,-1,3
372,4.87565,2.872,-1,3
373,4.87852,2.868,-1,3
374,4.88138,2.861,-1,3
375,4.88423,2.852,-1,3
376,4.88708,2.844,-1,3
377,4.88992,2.840,-1,3
378,4.89275,2.835,-1,3
379,4.89558,2.833,-1,3
380,4.89841,2.825,-1,3
381,4.90123,2.819,-1,3
382,4.90404,2.814,-1,3
383,4.90685,2.809,-1,3
384,4.91247,2.804,-1,3
385,4.91527,2.802,-1,3
386,4.91807,2.797,-1,3
387,4.92086,2.796,-1,3
388,4.92366,2.795,-1,3
389,4.92645,2.793,-1,3
390,4.92924,2.791,-1,3
391,4.93203,2.786,-1,3
392,4.93481,2.786,-1,3
393,4.93760,2.788,-1,3
394,4.94038,2.783,-1,3
395,4.94317,2.784,-1,3
396,4.94595,2.787,-1,3
397,4.94874,2.784,-1,3
398,4.95152,2.785,-1,3
399,4.95431,2.785,-1,3
400,4.95710,2.787,-1,3
401,4.95988,2.788,-1,3
402,4.96268,2.792,-1,3
403,4.96546,2.787,-1,3
404,4.96825,2.790,-1,3
405,4.97105,2.794,-1,3
406,4.97385,2.800,-1,3
407,4.97665,2.801,-1,3
408,4.97945,2.799,-1,3
409,4.98225,2.804,-1,3
410,4.98506,2.809,-1,3
411,4.98787,2.813,-1,3
412,4.99069,2.820,-1,3
413,4.99351,2.820,-1,3
414,4.99633,2.822,-1,3
415,4.99917,2.832,-1,3
416,5.00200,2.837,-1,3
417,5.00484,2.841,-1,3
418,5.00769,2.846,-1,3
419,5.01054,2.852,-1,3
420,5.01627,2.867,-1,3
421,5.01914,2.873,-1,3
422,5.02203,2.881,-1,3
423,5.02491,2.885,-1,3
424,5.02781,2.898,-1,3
425,5.03071,2.904,-1,3
426,5.03363,2.912,-1,3
427,5.03654,2.919,-1,3
428,5.03948,2.934,-1,3
429,5.04242,2.940,-1,3
430,5.04537,2.948,-1,3
431,5.04833,2.962,-1,3
432,5.05130,2.971,-1,3
433,5.05428,2.983,-1,3
434,5.05728,2.996,-1,3
435,5.06028,3.008,-1,3
436,5.06330,3.018,-1,3
437,5.06634,3.034,-1,3
438,5.06938,3.048,-1,3
439,5.07245,3.063,-1,3
440,5.07552,3.076,-1,3
441,5.07861,3.092,-1,3
442,5.08172,3.107,-1,3
443,5.08485,3.125,-1,3
444,5.08799,3.147,-1,3
445,5.09116,3.162,-1,3
446,5.09434,3.184,-1,3
447,5.09754,3.198,-1,3
448,5.10076,3.226,-1,3
449,5.10401,3.247,-1,3
450,5.10728,3.266,-1,3
451,5.11056,3.285,-1,3
452,5.11721,3.339,-1,3
453,5.12058,3.365,-1,3
454,5.12396,3.388,-1,3
455,5.12738,3.412,-1,3
456,5.13082,3.439,-1,3
457,5.13429,3.471,-1,3
458,5.13778,3.499,-1,3
459,5.14131,3.524,-1,3
460,5.14486,3.553,-1,3
461,5.14845,3.584,-1,3
462,5.15206,3.615,-1,3
463,5.15570,3.642,-1,3
464,5.15937,3.671,-1,3
465,5.16308,3.703,-1,3
466,5.16681,3.734,-1,3
467,5.17058,3.769,-1,3
468,5.17438,3.800,-1,3
469,5.17821,3.827,-1,3
470,5.18207,3.861,-1,3
471,5.18596,3.893,-1,3
472,5.18989,3.929,-1,3
473,5.19385,3.956,-1,3
474,5.19783,3.988,-1,3
475,5.20185,4.019,-1,3
476,5.20591,4.054,-1,3
477,5.20999,4.086,-1,3
478,5.21411,4.120,-1,3
479,5.21826,4.150,-1,3
480,5.22245,4.182,-1,3
481,5.22666,4.217,-1,3
482,5.23091,4.249,-1,3
483,5.23519,4.283,-1,3
484,5.23950,4.309,-1,3
485,5.24384,4.341,-1,3
486,5.24822,4.375,-1,3
487,5.25262,4.404,-1,3
488,5.25706,4.432,-1,3
489,5.26152,4.460,-1,3
490,5.27052,4.516,-1,3
491,5.27506,4.540,-1,3
492,5.27963,4.567,-1,3
493,5.28422,4.592,-1,3
494,5.28884,4.617,-1,3
495,5.29347,4.638,-1,3
496,5.29813,4.659,-1,3
497,5.30281,4.682,-1,3
498,5.30752,4.703,-1,3
499,5.31224,4.721,-1,3
500,5.31697,4.736,-1,3
501,5.32173,4.754,-1,3
502,5.32650,4.774,-1,3
503,5.33129,4.790,-1,3
504,5.33609,4.798,-1,3
505,5.34091,4.814,-1,3
506,5.34573,4.824,-1,3
507,5.35057,4.841,-1,3
508,5.35542,4.847,-1,3
509,5.36027,4.857,-1,3
510,5.36514,4.864,-1,3
511,5.37001,4.875,-1,3
512,5.37489,4.881,-1,3
513,5.37978,4.886,-1,3
514,5.38467,4.891,-1,3
515,5.38956,4.892,-1,3
516,5.39446,4.894,-1,3
517,5.39935,4.893,-1,3
518,5.40425,4.897,-1,3
519,5.40914,4.895,-1,3
520,5.41891,4.878,-1,3
521,5.42378,4.879,-1,3
522,5.42866,4.872,-1,3
523,5.43352,4.869,-1,3
524,5.43838,4.859,-1,3
525,5.44323,4.842,-1,3
526,5.44806,4.838,-1,3
527,5.45289,4.827,-1,3
528,5.45771,4.820,-1,3
529,5.46252,4.806,-1,3
530,5.46731,4.795,-1,3
531,5.47209,4.777,-1,3
532,5.47685,4.761,-1,3
533,5.48160,4.748,-1,3
534,5.48634,4.741,-1,3
535,5.49106,4.724,-1,3
536,5.49577,4.707,-1,3
537,5.50046,4.687,-1,3
538,5.50513,4.675,-1,3
539,5.50980,4.665,-1,3
540,5.51445,4.654,-1,3
541,5.51909,4.639,-1,3
542,5.52371,4.616,-1,3
543,5.52831,4.601,-1,3
544,5.53290,4.594,-1,3
545,5.53748,4.581,-1,3
546,5.54204,4.563,-1,3
547,5.54659,4.547,-1,3
548,5.55112,4.528,-1,3
549,5.55564,4.518,-1,3
550,5.56014,4.508,-1,3
551,5.56464,4.491,-1,3
552,5.56911,4.469,-1,3
553,5.57801,4.445,-1,3
554,5.58244,4.435,-1,3
555,5.58686,4.418,-1,3
556,5.59126,4.402,-1,3
557,5.60002,4.372,-1,3
558,5.60438,4.363,-1,3
559,5.60873,4.349,-1,3
560,5.61306,4.328,-1,3
561,5.61737,4.311,-1,3
562,5.62167,4.300,-1,3
563,5.62596,4.286,-1,3
564,5.63023,4.274,-1,3
565,5.63448,4.255,-1,3
566,5.63872,4.240,-1,3
567,5.64295,4.228,-1,3
568,5.65137,4.200,-1,3
569,5.65556,4.186,-1,3
570,5.65973,4.172,-1,3
571,5.66388,4.157,-1,3
572,5.66803,4.147,-1,3
573,5.67216,4.133,-1,3
574,5.67628,4.114,-1,3
575,5.68038,4.099,-1,3
576,5.68447,4.089,-1,3
577,5.68854,4.076,-1,3
578,5.69261,4.061,-1,3
579,5.70068,4.033,-1,3
580,5.70469,4.013,-1,3
581,5.70870,4.007,-1,3
582,5.71269,3.990,-1,3
583,5.71667,3.980,-1,3
584,5.72063,3.961,-1,3
585,5.72458,3.947,-1,3
586,5.72852,3.936,-1,3
587,5.73244,3.923,-1,3
588,5.73635,3.911,-1,3
589,5.74024,3.895,-1,3
590,5.74412,3.880,-1,3
591,5.74799,3.867,-1,3
592,5.75185,3.855,-1,3
593,5.75569,3.840,-1,3
594,5.75951,3.827,-1,3
595,5.76332,3.812,-1,3
596,5.76712,3.800,-1,3
597,5.77091,3.788,-1,3
598,5.77468,3.773,-1,3
599,5.77844,3.755,-1,3
600,5.78219,3.744,-1,3
601,5.78592,3.732,-1,3
602,5.78964,3.720,-1,3
603,5.79334,3.703,-1,3
604,5.79703,3.692,-1,3
605,5.80071,3.676,-1,3
606,5.80437,3.662,-1,3
607,5.80802,3.652,-1,3
608,5.81529,3.622,-1,3
609,5.81889,3.606,-1,3
610,5.82249,3.596,-1,3
611,5.82607,3.584,-1,3
612,5.82964,3.568,-1,3
613,5.83319,3.552,-1,3
614,5.83673,3.537,-1,3
615,5.84025,3.527,-1,3
616,5.84377,3.515,-1,3
617,5.84727,3.497,-1,3
618,5.85075,3.482,-1,3
619,5.85422,3.470,-1,3
620,5.85768,3.458,-1,3
621,5.86112,3.447,-1,3
622,5.86455,3.428,-1,3
623,5.86797,3.420,-1,3
624,5.87138,3.409,-1,3
625,5.87478,3.399,-1,3
626,5.87817,3.395,-1,3
627,5.88156,3.386,-1,3
628,5.88493,3.373,-1,3
629,5.88830,3.368,-1,3
630,5.89166,3.363,-1,3
631,5.89502,3.360,-1,3
632,5.89838,3.352,-1,3
633,5.90172,3.346,-1,3
634,5.90506,3.342,-1,3
635,5.90841,3.343,-1,3
636,5.91175,3.341,-1,3
637,5.91509,3.338,-1,3
638,5.91842,3.339,-1,3
639,5.92176,3.346,-1,3
640,5.92846,3.349,-1,3
641,5.92846,3.348,-1,3
642,5.93181,3.351,-1,3
643,5.93852,3.358,-1,3
644,5.94188,3.363,-1,3
645,5.94525,3.373,-1,3
646,5.94863,3.381,-1,3
647,5.95202,3.388,-1,3
648,5.95541,3.394,-1,3
649,5.95882,3.409,-1,3
650,5.96224,3.419,-1,3
651,5.96568,3.436,-1,3
652,5.96913,3.449,-1,3
653,5.97259,3.462,-1,3
654,5.97607,3.481,-1,3
655,5.97957,3.500,-1,3
656,5.98309,3.518,-1,3
657,5.98663,3.537,-1,3
658,5.99019,3.564,-1,3
659,5.99377,3.585,-1,3
660,5.99739,3.615,-1,3
661,6.00103,3.642,-1,3
662,6.00470,3.671,-1,3
663,6.00840,3.694,-1,3
664,6.01212,3.727,-1,3
665,6.01588,3.756,-1,3
666,6.01967,3.790,-1,3
667,6.02349,3.821,-1,3
668,6.02734,3.853,-1,3
669,6.03123,3.887,-1,3
670,6.03515,3.919,-1,3
671,6.03911,3.959,-1,3
672,6.04310,3.993,-1,3
673,6.04713,4.025,-1,3
674,6.05119,4.062,-1,3
675,6.05529,4.104,-1,3
676,6.06361,4.180,-1,3
677,6.06783,4.220,-1,3
678,6.07209,4.262,-1,3
679,6.07639,4.301,-1,3
680,6.08074,4.344,-1,3
681,6.08513,4.387,-1,3
682,6.08956,4.430,-1,3
683,6.09403,4.470,-1,3
684,6.09855,4.520,-1,3
685,6.10311,4.560,-1,3
686,6.10772,4.609,-1,3
687,6.11236,4.649,-1,3
688,6.11706,4.691,-1,3
689,6.12179,4.736,-1,3
690,6.12657,4.780,-1,3
691,6.13139,4.821,-1,3
692,6.13625,4.859,-1,3
693,6.14116,4.906,-1,3
694,6.14610,4.942,-1,3
695,6.15108,4.981,-1,3
696,6.15610,5.019,-1,3
697,6.16116,5.055,-1,3
698,6.16625,5.092,-1,3
699,6.17137,5.126,-1,3
700,6.17654,5.163,-1,3
701,6.18173,5.197,-1,3
702,6.18696,5.228,-1,3
703,6.19222,5.259,-1,3
704,6.19751,5.289,-1,3
705,6.20283,5.317,-1,3
706,6.20817,5.349,-1,3
707,6.21355,5.373,-1,3
708,6.21895,5.399,-1,3
709,6.22437,5.422,-1,3
710,6.22982,5.453,-1,3
711,6.23529,5.472,-1,3
712,6.24079,5.494,-1,3
713,6.24630,5.511,-1,3
714,6.25183,5.535,-1,3
715,6.25739,5.553,-1,3
716,6.26296,5.571,-1,3
717,6.26854,5.583,-1,3
718,6.27414,5.601,-1,3
719,6.27976,5.617,-1,3
720,6.28540,5.638,-1,3
721,6.29105,5.652,-1,3
722,6.29670,5.657,-1,3
723,6.30238,5.674,-1,3
724,6.30807,5.687,-1,3
725,6.31377,5.699,-1,3
726,6.31947,5.706,-1,3
727,6.33090,5.715,-1,3
728,6.33662,5.725,-1,3
729,6.34235,5.732,-1,3
730,6.34809,5.737,-1,3
731,6.35382,5.734,-1,3
732,6.35956,5.738,-1,3
733,6.36531,5.745,-1,3
734,6.37105,5.749,-1,3
735,6.37680,5.745,-1,3
736,6.38254,5.738,-1,3
737,6.38828,5.739,-1,3
738,6.39402,5.743,-1,3
739,6.39975,5.736,-1,3
740,6.40548,5.729,-1,3
741,6.41121,5.724,-1,3
742,6.41692,5.718,-1,3
743,6.42264,5.714,-1,3
744,6.42835,5.709,-1,3
745,6.43405,5.702,-1,3
746,6.43974,5.688,-1,3
747,6.44542,5.683,-1,3
748,6.45109,5.673,-1,3
749,6.45676,5.667,-1,3
750,6.46241,5.652,-1,3
751,6.46805,5.640,-1,3
752,6.47367,5.623,-1,3
753,6.47929,5.612,-1,3
754,6.48489,5.604,-1,3
755,6.49048,5.591,-1,3
756,6.49606,5.573,-1,3
757,6.50161,5.559,-1,3
758,6.51270,5.536,-1,3
759,6.51822,5.523,-1,3
760,6.52373,5.505,-1,3
761,6.52922,5.491,-1,3
762,6.53469,5.475,-1,3
763,6.54016,5.464,-1,3
764,6.54561,5.446,-1,3
765,6.55103,5.429,-1,3
766,6.55644,5.410,-1,3
767,6.56184,5.400,-1,3
768,6.56723,5.385,-1,3
769,6.57260,5.368,-1,3
770,6.57796,5.358,-1,3
771,6.58330,5.341,-1,3
772,6.58862,5.325,-1,3
773,6.59393,5.309,-1,3
774,6.59923,5.296,-1,3
775,6.60451,5.280,-1,3
776,6.60977,5.263,-1,3
777,6.61502,5.246,-1,3
778,6.62025,5.236,-1,3
779,6.62547,5.219,-1,3
780,6.63068,5.207,-1,3
781,6.63587,5.189,-1,3
782,6.64104,5.174,-1,3
783,6.64620,5.164,-1,3
784,6.65135,5.151,-1,3
785,6.65649,5.132,-1,3
786,6.66161,5.121,-1,3
787,6.66671,5.102,-1,3
788,6.67180,5.091,-1,3
789,6.67688,5.077,-1,3
790,6.68194,5.065,-1,3
791,6.68699,5.044,-1,3
792,6.69202,5.029,-1,3
793,6.69704,5.018,-1,3
794,6.70204,5.002,-1,3
795,6.70703,4.991,-1,3
796,6.71200,4.975,-1,3
797,6.71697,4.962,-1,3
798,6.72191,4.947,-1,3
799,6.72685,4.936,-1,3
800,6.73177,4.920,-1,3
801,6.73668,4.908,-1,3
802,6.74157,4.890,-1,3
803,6.74644,4.875,-1,3
804,6.75131,4.865,-1,3
805,6.75616,4.850,-1,3
806,6.76099,4.836,-1,3
807,6.76581,4.817,-1,3
808,6.77062,4.809,-1,3
809,6.77541,4.793,-1,3
810,6.78019,4.779,-1,3
811,6.78496,4.766,-1,3
812,6.78971,4.753,-1,3
813,6.79445,4.738,-1,3
814,6.79918,4.727,-1,3
815,6.80858,4.698,-1,3
816,6.81327,4.683,-1,3
817,6.81794,4.673,-1,3
818,6.82260,4.658,-1,3
819,6.82724,4.641,-1,3
820,6.83187,4.629,-1,3
821,6.83648,4.614,-1,3
822,6.84109,4.603,-1,3
823,6.84568,4.589,-1,3
824,6.85026,4.580,-1,3
825,6.85482,4.565,-1,3
826,6.86391,4.538,-1,3
827,6.86844,4.531,-1,3
828,6.87296,4.518,-1,3
829,6.87747,4.510,-1,3
830,6.88196,4.493,-1,3
831,6.88644,4.480,-1,3
832,6.89091,4.466,-1,3
833,6.89537,4.458,-1,3
834,6.89981,4.446,-1,3
835,6.90425,4.433,-1,3
836,6.91307,4.408,-1,3
837,6.91747,4.394,-1,3
838,6.92185,4.384,-1,3
839,6.92623,4.377,-1,3
840,6.93059,4.364,-1,3
841,6.93494,4.351,-1,3
842,6.93928,4.337,-1,3
843,6.94361,4.329,-1,3
844,6.94793,4.323,-1,3
845,6.95224,4.309,-1,3
846,6.95654,4.297,-1,3
847,6.96082,4.286,-1,3
848,6.96510,4.275,-1,3
849,6.96937,4.267,-1,3
850,6.97363,4.259,-1,3
851,6.97787,4.244,-1,3
852,6.98211,4.238,-1,3
853,6.98634,4.229,-1,3
854,6.99055,4.217,-1,3
855,6.99477,4.212,-1,3
856,6.99897,4.208,-1,3
857,7.00317,4.200,-1,3
858,7.00736,4.191,-1,3
859,7.01155,4.181,-1,3
860,7.01572,4.178,-1,3
861,7.01990,4.175,-1,3
862,7.02407,4.170,-1,3
863,7.02823,4.163,-1,3
864,7.03239,4.156,-1,3
865,7.03654,4.149,-1,3
866,7.04069,4.150,-1,3
867,7.04483,4.147,-1,3
868,7.04898,4.147,-1,3
869,7.05312,4.139,-1,3
870,7.05726,4.136,-1,3
871,7.06139,4.137,-1,3
872,7.06553,4.140,-1,3
873,7.06967,4.138,-1,3
