cnt,pos,speed,Dir,Force,
1,3.99950,1.012,-1,6
2,4.00051,1.013,-1,6
3,4.00154,1.024,-1,6
4,4.00259,1.050,-1,6
5,4.00366,1.073,-1,6
6,4.00474,1.080,-1,6
7,4.00582,1.078,-1,6
8,4.00691,1.092,-1,6
9,4.00804,1.128,-1,6
10,4.00918,1.146,-1,6
11,4.01032,1.140,-1,6
12,4.01146,1.135,-1,6
13,4.01263,1.165,-1,6
14,4.01383,1.203,-1,6
15,4.01503,1.205,-1,6
16,4.01622,1.189,-1,6
17,4.01743,1.206,-1,6
18,4.01867,1.257,-1,6
19,4.02117,1.244,-1,6
20,4.02242,1.247,-1,6
21,4.02370,1.277,-1,6
22,4.02499,1.298,-1,6
23,4.02629,1.291,-1,6
24,4.02757,1.288,-1,6
25,4.02888,1.308,-1,6
26,4.03021,1.326,-1,6
27,4.03154,1.331,-1,6
28,4.03287,1.330,-1,6
29,4.03420,1.329,-1,6
30,4.03554,1.341,-1,6
31,4.03690,1.365,-1,6
32,4.03827,1.369,-1,6
33,4.03963,1.354,-1,6
34,4.04098,1.356,-1,6
35,4.04236,1.378,-1,6
36,4.04375,1.390,-1,6
37,4.04513,1.381,-1,6
38,4.04651,1.378,-1,6
39,4.04790,1.389,-1,6
40,4.04929,1.395,-1,6
41,4.05069,1.395,-1,6
42,4.05208,1.394,-1,6
43,4.05348,1.396,-1,6
44,4.05488,1.399,-1,6
45,4.05629,1.408,-1,6
46,4.05769,1.400,-1,6
47,4.06047,1.397,-1,6
48,4.06188,1.412,-1,6
49,4.06328,1.399,-1,6
50,4.06467,1.385,-1,6
51,4.06605,1.387,-1,6
52,4.06745,1.394,-1,6
53,4.06884,1.391,-1,6
54,4.07023,1.386,-1,6
55,4.07160,1.379,-1,6
56,4.07298,1.373,-1,6
57,4.07435,1.374,-1,6
58,4.07573,1.377,-1,6
59,4.07709,1.356,-1,6
60,4.07981,1.360,-1,6
61,4.08117,1.357,-1,6
62,4.08251,1.340,-1,6
63,4.08385,1.340,-1,6
64,4.08519,1.345,-1,6
65,4.08653,1.336,-1,6
66,4.08784,1.317,-1,6
67,4.08916,1.314,-1,6
68,4.09048,1.318,-1,6
69,4.09179,1.313,-1,6
70,4.09309,1.304,-1,6
71,4.09439,1.297,-1,6
72,4.09696,1.280,-1,6
73,4.09824,1.283,-1,6
74,4.09953,1.285,-1,6
75,4.10080,1.268,-1,6
76,4.10206,1.262,-1,6
77,4.10332,1.267,-1,6
78,4.10459,1.261,-1,6
79,4.10584,1.250,-1,6
80,4.10708,1.246,-1,6
81,4.10834,1.259,-1,6
82,4.10959,1.252,-1,6
83,4.11083,1.236,-1,6
84,4.11206,1.231,-1,6
85,4.11330,1.245,-1,6
86,4.11454,1.240,-1,6
87,4.11577,1.231,-1,6
88,4.11700,1.230,-1,6
89,4.11825,1.240,-1,6
90,4.11948,1.234,-1,6
91,4.12070,1.226,-1,6
92,4.12194,1.231,-1,6
93,4.12318,1.242,-1,6
94,4.12442,1.237,-1,6
95,4.12565,1.233,-1,6
96,4.12689,1.240,-1,6
97,4.12813,1.246,-1,6
98,4.12938,1.242,-1,6
99,4.13062,1.247,-1,6
100,4.13315,1.263,-1,6
101,4.13440,1.255,-1,6
102,4.13567,1.265,-1,6
103,4.13694,1.277,-1,6
104,4.13822,1.280,-1,6
105,4.13951,1.281,-1,6
106,4.14080,1.291,-1,6
107,4.14210,1.304,-1,6
108,4.14340,1.301,-1,6
109,4.14470,1.303,-1,6
110,4.14602,1.321,-1,6
111,4.14736,1.332,-1,6
112,4.14869,1.333,-1,6
113,4.15003,1.339,-1,6
114,4.15138,1.349,-1,6
115,4.15273,1.356,-1,6
116,4.15410,1.367,-1,6
117,4.15549,1.383,-1,6
118,4.15687,1.389,-1,6
119,4.15826,1.389,-1,6
120,4.15967,1.404,-1,6
121,4.16109,1.424,-1,6
122,4.16252,1.427,-1,6
123,4.16395,1.433,-1,6
124,4.16540,1.450,-1,6
125,4.16686,1.457,-1,6
126,4.16833,1.467,-1,6
127,4.16981,1.483,-1,6
128,4.17130,1.493,-1,6
129,4.17280,1.496,-1,6
130,4.17431,1.513,-1,6
131,4.17583,1.520,-1,6
132,4.17736,1.533,-1,6
133,4.17891,1.549,-1,6
134,4.18047,1.560,-1,6
135,4.18203,1.559,-1,6
136,4.18360,1.572,-1,6
137,4.18519,1.590,-1,6
138,4.18680,1.605,-1,6
139,4.18841,1.614,-1,6
140,4.19003,1.618,-1,6
141,4.19165,1.623,-1,6
142,4.19330,1.645,-1,6
143,4.19496,1.662,-1,6
144,4.19663,1.666,-1,6
145,4.19830,1.671,-1,6
146,4.19998,1.678,-1,6
147,4.20167,1.697,-1,6
148,4.20339,1.714,-1,6
149,4.20510,1.714,-1,6
150,4.20682,1.718,-1,6
151,4.20856,1.737,-1,6
152,4.21031,1.750,-1,6
153,4.21207,1.759,-1,6
154,4.21383,1.763,-1,6
155,4.21560,1.767,-1,6
156,4.21739,1.793,-1,6
157,4.21919,1.801,-1,6
158,4.22099,1.804,-1,6
159,4.22280,1.806,-1,6
160,4.22462,1.823,-1,6
161,4.22647,1.846,-1,6
162,4.22832,1.847,-1,6
163,4.23016,1.843,-1,6
164,4.23201,1.855,-1,6
165,4.23389,1.877,-1,6
166,4.23579,1.894,-1,6
167,4.23767,1.888,-1,6
168,4.24146,1.905,-1,6
169,4.24340,1.931,-1,6
170,4.24533,1.937,-1,6
171,4.24726,1.927,-1,6
172,4.24919,1.931,-1,6
173,4.25115,1.962,-1,6
174,4.25313,1.977,-1,6
175,4.25510,1.974,-1,6
176,4.25707,1.966,-1,6
177,4.25905,1.985,-1,6
178,4.26106,2.012,-1,6
179,4.26308,2.014,-1,6
180,4.26509,2.013,-1,6
181,4.26710,2.014,-1,6
182,4.26914,2.039,-1,6
183,4.27120,2.056,-1,6
184,4.27326,2.058,-1,6
185,4.27531,2.056,-1,6
186,4.27738,2.066,-1,6
187,4.27947,2.089,-1,6
188,4.28157,2.101,-1,6
189,4.28368,2.109,-1,6
190,4.28578,2.104,-1,6
191,4.28790,2.118,-1,6
192,4.29004,2.140,-1,6
193,4.29220,2.157,-1,6
194,4.29435,2.157,-1,6
195,4.29651,2.156,-1,6
196,4.29869,2.174,-1,6
197,4.30089,2.201,-1,6
198,4.30310,2.214,-1,6
199,4.30531,2.210,-1,6
200,4.30753,2.219,-1,6
201,4.30977,2.242,-1,6
202,4.31204,2.268,-1,6
203,4.31431,2.276,-1,6
204,4.31659,2.276,-1,6
205,4.31888,2.287,-1,6
206,4.32120,2.320,-1,6
207,4.32354,2.340,-1,6
208,4.32589,2.346,-1,6
209,4.32823,2.345,-1,6
210,4.33061,2.381,-1,6
211,4.33302,2.407,-1,6
212,4.33543,2.417,-1,6
213,4.33786,2.422,-1,6
214,4.34030,2.447,-1,6
215,4.34278,2.475,-1,6
216,4.34527,2.494,-1,6
217,4.34777,2.503,-1,6
218,4.35030,2.523,-1,6
219,4.35284,2.545,-1,6
220,4.35542,2.574,-1,6
221,4.35800,2.589,-1,6
222,4.36061,2.606,-1,6
223,4.36324,2.627,-1,6
224,4.36589,2.652,-1,6
225,4.37398,2.714,-1,6
226,4.37672,2.737,-1,6
227,4.37948,2.769,-1,6
228,4.38227,2.788,-1,6
229,4.38508,2.804,-1,6
230,4.38791,2.829,-1,6
231,4.39076,2.857,-1,6
232,4.39365,2.882,-1,6
233,4.39655,2.902,-1,6
234,4.39947,2.920,-1,6
235,4.40242,2.950,-1,6
236,4.40539,2.972,-1,6
237,4.40839,2.998,-1,6
238,4.41141,3.017,-1,6
239,4.41444,3.037,-1,6
240,4.41751,3.065,-1,6
241,4.42059,3.087,-1,6
242,4.42370,3.109,-1,6
243,4.42684,3.133,-1,6
244,4.42999,3.155,-1,6
245,4.43316,3.173,-1,6
246,4.43637,3.203,-1,6
247,4.43959,3.220,-1,6
248,4.44283,3.241,-1,6
249,4.44609,3.264,-1,6
250,4.44938,3.286,-1,6
251,4.45268,3.305,-1,6
252,4.45601,3.328,-1,6
253,4.45935,3.345,-1,6
254,4.46272,3.362,-1,6
255,4.46610,3.386,-1,6
256,4.46951,3.405,-1,6
257,4.47293,3.422,-1,6
258,4.47637,3.440,-1,6
259,4.47982,3.453,-1,6
260,4.48330,3.477,-1,6
261,4.48679,3.490,-1,6
262,4.49030,3.507,-1,6
263,4.49382,3.522,-1,6
264,4.49735,3.535,-1,6
265,4.50091,3.552,-1,6
266,4.50805,3.579,-1,6
267,4.51164,3.593,-1,6
268,4.51525,3.607,-1,6
269,4.51887,3.619,-1,6
270,4.52251,3.636,-1,6
271,4.52615,3.643,-1,6
272,4.52980,3.655,-1,6
273,4.53347,3.670,-1,6
274,4.53716,3.684,-1,6
275,4.54085,3.690,-1,6
276,4.54455,3.701,-1,6
277,4.54826,3.712,-1,6
278,4.55198,3.724,-1,6
279,4.55572,3.735,-1,6
280,4.55946,3.744,-1,6
281,4.56321,3.749,-1,6
282,4.56697,3.760,-1,6
283,4.57074,3.770,-1,6
284,4.57452,3.779,-1,6
285,4.57831,3.789,-1,6
286,4.58210,3.791,-1,6
287,4.58590,3.801,-1,6
288,4.58971,3.809,-1,6
289,4.59353,3.814,-1,6
290,4.59735,3.823,-1,6
291,4.60117,3.826,-1,6
292,4.60500,3.830,-1,6
293,4.60884,3.836,-1,6
294,4.61268,3.843,-1,6
295,4.61653,3.844,-1,6
296,4.62037,3.845,-1,6
297,4.62808,3.855,-1,6
298,4.63193,3.856,-1,6
299,4.63579,3.855,-1,6
300,4.63964,3.853,-1,6
301,4.64350,3.856,-1,6
302,4.64735,3.857,-1,6
303,4.65121,3.856,-1,6
304,4.65506,3.852,-1,6
305,4.65891,3.850,-1,6
306,4.66276,3.852,-1,6
307,4.66661,3.848,-1,6
308,4.67046,3.844,-1,6
309,4.67429,3.838,-1,6
310,4.67813,3.833,-1,6
311,4.68196,3.830,-1,6
312,4.68578,3.827,-1,6
313,4.68960,3.813,-1,6
314,4.69341,3.809,-1,6
315,4.69721,3.800,-1,6
316,4.70100,3.795,-1,6
317,4.70478,3.782,-1,6
318,4.70856,3.773,-1,6
319,4.71232,3.762,-1,6
320,4.71607,3.755,-1,6
321,4.71982,3.740,-1,6
322,4.72355,3.730,-1,6
323,4.72726,3.715,-1,6
324,4.73097,3.704,-1,6
325,4.73466,3.691,-1,6
326,4.73834,3.679,-1,6
327,4.74200,3.663,-1,6
328,4.74564,3.644,-1,6
329,4.74928,3.635,-1,6
330,4.75289,3.614,-1,6
331,4.75649,3.602,-1,6
332,4.76008,3.582,-1,6
333,4.76364,3.567,-1,6
334,4.77072,3.533,-1,6
335,4.77424,3.514,-1,6
336,4.77773,3.496,-1,6
337,4.78121,3.477,-1,6
338,4.78467,3.457,-1,6
339,4.78811,3.444,-1,6
340,4.79153,3.421,-1,6
341,4.79494,3.404,-1,6
342,4.79832,3.384,-1,6
343,4.80169,3.367,-1,6
344,4.80504,3.349,-1,6
345,4.80836,3.328,-1,6
346,4.81167,3.309,-1,6
347,4.81496,3.290,-1,6
348,4.81823,3.271,-1,6
349,4.82149,3.254,-1,6
350,4.82472,3.229,-1,6
351,4.82793,3.213,-1,6
352,4.83112,3.192,-1,6
353,4.83430,3.176,-1,6
354,4.83745,3.153,-1,6
355,4.84058,3.134,-1,6
356,4.84370,3.114,-1,6
357,4.84679,3.091,-1,6
358,4.84987,3.080,-1,6
359,4.85293,3.058,-1,6
360,4.85596,3.036,-1,6
361,4.85898,3.017,-1,6
362,4.86198,3.001,-1,6
363,4.86497,2.984,-1,6
364,4.86793,2.966,-1,6
365,4.87381,2.929,-1,6
366,4.87672,2.915,-1,6
367,4.87962,2.900,-1,6
368,4.88250,2.879,-1,6
369,4.88536,2.860,-1,6
370,4.88821,2.848,-1,6
371,4.89104,2.838,-1,6
372,4.89386,2.816,-1,6
373,4.89667,2.805,-1,6
374,4.89945,2.787,-1,6
375,4.90223,2.772,-1,6
376,4.90499,2.764,-1,6
377,4.90774,2.749,-1,6
378,4.91047,2.734,-1,6
379,4.91319,2.720,-1,6
380,4.91591,2.714,-1,6
381,4.91861,2.699,-1,6
382,4.92129,2.687,-1,6
383,4.92397,2.676,-1,6
384,4.92664,2.667,-1,6
385,4.92930,2.660,-1,6
386,4.93194,2.645,-1,6
387,4.93458,2.636,-1,6
388,4.93721,2.631,-1,6
389,4.93983,2.619,-1,6
390,4.94244,2.613,-1,6
391,4.94505,2.607,-1,6
392,4.94764,2.596,-1,6
393,4.95023,2.589,-1,6
394,4.95282,2.585,-1,6
395,4.95540,2.573,-1,6
396,4.96054,2.565,-1,6
397,4.96310,2.565,-1,6
398,4.96566,2.559,-1,6
399,4.96821,2.553,-1,6
400,4.97076,2.551,-1,6
401,4.97331,2.549,-1,6
402,4.97586,2.548,-1,6
403,4.97840,2.540,-1,6
404,4.98094,2.539,-1,6
405,4.98348,2.541,-1,6
406,4.98602,2.539,-1,6
407,4.99110,2.543,-1,6
408,4.99364,2.540,-1,6
409,4.99617,2.537,-1,6
410,4.99871,2.541,-1,6
411,5.00126,2.547,-1,6
412,5.00381,2.548,-1,6
413,5.00636,2.548,-1,6
414,5.00891,2.555,-1,6
415,5.01147,2.559,-1,6
416,5.01404,2.565,-1,6
417,5.01660,2.566,-1,6
418,5.01918,2.578,-1,6
419,5.02176,2.584,-1,6
420,5.02435,2.588,-1,6
421,5.02695,2.596,-1,6
422,5.03217,2.617,-1,6
423,5.03480,2.621,-1,6
424,5.03743,2.637,-1,6
425,5.04008,2.647,-1,6
426,5.04274,2.659,-1,6
427,5.04541,2.668,-1,6
428,5.04809,2.686,-1,6
429,5.05079,2.698,-1,6
430,5.05350,2.711,-1,6
431,5.05623,2.726,-1,6
432,5.05897,2.742,-1,6
433,5.06173,2.759,-1,6
434,5.06450,2.774,-1,6
435,5.06730,2.795,-1,6
436,5.07011,2.811,-1,6
437,5.07294,2.829,-1,6
438,5.07579,2.856,-1,6
439,5.07867,2.874,-1,6
440,5.08156,2.893,-1,6
441,5.08448,2.921,-1,6
442,5.08743,2.944,-1,6
443,5.09040,2.969,-1,6
444,5.09339,2.993,-1,6
445,5.09946,3.052,-1,6
446,5.10254,3.081,-1,6
447,5.10565,3.108,-1,6
448,5.10879,3.142,-1,6
449,5.11197,3.172,-1,6
450,5.11517,3.207,-1,6
451,5.11842,3.246,-1,6
452,5.12170,3.278,-1,6
453,5.12501,3.318,-1,6
454,5.12837,3.359,-1,6
455,5.13177,3.399,-1,6
456,5.13522,3.444,-1,6
457,5.13870,3.482,-1,6
458,5.14223,3.528,-1,6
459,5.14580,3.577,-1,6
460,5.14942,3.620,-1,6
461,5.15309,3.667,-1,6
462,5.15680,3.708,-1,6
463,5.16056,3.759,-1,6
464,5.16437,3.808,-1,6
465,5.16822,3.854,-1,6
466,5.17212,3.899,-1,6
467,5.17607,3.947,-1,6
468,5.18006,3.993,-1,6
469,5.18410,4.042,-1,6
470,5.18819,4.084,-1,6
471,5.19232,4.131,-1,6
472,5.19649,4.175,-1,6
473,5.20071,4.220,-1,6
474,5.20498,4.266,-1,6
475,5.20928,4.307,-1,6
476,5.21363,4.351,-1,6
477,5.21803,4.392,-1,6
478,5.22246,4.437,-1,6
479,5.22694,4.475,-1,6
480,5.23145,4.516,-1,6
481,5.23601,4.554,-1,6
482,5.24060,4.589,-1,6
483,5.24522,4.661,-1,6
484,5.25457,4.691,-1,6
485,5.25929,4.721,-1,6
486,5.26405,4.754,-1,6
487,5.26883,4.783,-1,6
488,5.27363,4.804,-1,6
489,5.27846,4.830,-1,6
490,5.28332,4.857,-1,6
491,5.28820,4.881,-1,6
492,5.29310,4.902,-1,6
493,5.29802,4.918,-1,6
494,5.30296,4.938,-1,6
495,5.30792,4.957,-1,6
496,5.31289,4.974,-1,6
497,5.31788,4.985,-1,6
498,5.32288,4.999,-1,6
499,5.32788,5.008,-1,6
500,5.33290,5.021,-1,6
501,5.33793,5.026,-1,6
502,5.34296,5.033,-1,6
503,5.34801,5.042,-1,6
504,5.35306,5.050,-1,6
505,5.35811,5.049,-1,6
506,5.36316,5.052,-1,6
507,5.36822,5.061,-1,6
508,5.37328,5.060,-1,6
509,5.37834,5.061,-1,6
510,5.38340,5.061,-1,6
511,5.38846,5.058,-1,6
512,5.39351,5.055,-1,6
513,5.39857,5.055,-1,6
514,5.40866,5.046,-1,6
515,5.41370,5.033,-1,6
516,5.41873,5.029,-1,6
517,5.42374,5.019,-1,6
518,5.42876,5.011,-1,6
519,5.43376,5.006,-1,6
520,5.43876,4.994,-1,6
521,5.44373,4.976,-1,6
522,5.44870,4.964,-1,6
523,5.45365,4.957,-1,6
524,5.45860,4.942,-1,6
525,5.46352,4.930,-1,6
526,5.46843,4.905,-1,6
527,5.47332,4.887,-1,6
528,5.47819,4.873,-1,6
529,5.48305,4.858,-1,6
530,5.48788,4.836,-1,6
531,5.49270,4.815,-1,6
532,5.49749,4.788,-1,6
533,5.50225,4.768,-1,6
534,5.50700,4.747,-1,6
535,5.51173,4.729,-1,6
536,5.51644,4.706,-1,6
537,5.52112,4.679,-1,6
538,5.52577,4.650,-1,6
539,5.53040,4.629,-1,6
540,5.53500,4.607,-1,6
541,5.53958,4.577,-1,6
542,5.54413,4.553,-1,6
543,5.54866,4.525,-1,6
544,5.55316,4.500,-1,6
545,5.55763,4.475,-1,6
546,5.56208,4.447,-1,6
547,5.56650,4.419,-1,6
548,5.57089,4.396,-1,6
549,5.57526,4.370,-1,6
550,5.57960,4.341,-1,6
551,5.58392,4.288,-1,6
552,5.59248,4.267,-1,6
553,5.59671,4.240,-1,6
554,5.60093,4.212,-1,6
555,5.60511,4.185,-1,6
556,5.60927,4.161,-1,6
557,5.61341,4.134,-1,6
558,5.61752,4.108,-1,6
559,5.62159,4.079,-1,6
560,5.62565,4.057,-1,6
561,5.62968,4.028,-1,6
562,5.63368,4.004,-1,6
563,5.63766,3.975,-1,6
564,5.64161,3.952,-1,6
565,5.64553,3.923,-1,6
566,5.64943,3.899,-1,6
567,5.65331,3.874,-1,6
568,5.65715,3.847,-1,6
569,5.66098,3.824,-1,6
570,5.66477,3.797,-1,6
571,5.66855,3.773,-1,6
572,5.67230,3.749,-1,6
573,5.67602,3.724,-1,6
574,5.67972,3.700,-1,6
575,5.68340,3.677,-1,6
576,5.68705,3.653,-1,6
577,5.69068,3.632,-1,6
578,5.69429,3.604,-1,6
579,5.69787,3.585,-1,6
580,5.70144,3.565,-1,6
581,5.70498,3.544,-1,6
582,5.71201,3.504,-1,6
583,5.71549,3.481,-1,6
584,5.71896,3.466,-1,6
585,5.72241,3.448,-1,6
586,5.72584,3.433,-1,6
587,5.72925,3.411,-1,6
588,5.73264,3.393,-1,6
589,5.73602,3.381,-1,6
590,5.73939,3.364,-1,6
591,5.74273,3.346,-1,6
592,5.74607,3.334,-1,6
593,5.74938,3.318,-1,6
594,5.75269,3.304,-1,6
595,5.75598,3.295,-1,6
596,5.75926,3.280,-1,6
597,5.76253,3.269,-1,6
598,5.76579,3.258,-1,6
599,5.76904,3.248,-1,6
600,5.77228,3.240,-1,6
601,5.77551,3.228,-1,6
602,5.77873,3.221,-1,6
603,5.78194,3.215,-1,6
604,5.78515,3.208,-1,6
605,5.78835,3.196,-1,6
606,5.79154,3.197,-1,6
607,5.79473,3.188,-1,6
608,5.79792,3.186,-1,6
609,5.80110,3.181,-1,6
610,5.80428,3.177,-1,6
611,5.80745,3.172,-1,6
612,5.81062,3.175,-1,6
613,5.81696,3.169,-1,6
614,5.82013,3.167,-1,6
615,5.82013,3.174,-1,6
616,5.82647,3.169,-1,6
617,5.82964,3.172,-1,6
618,5.83282,3.175,-1,6
619,5.83600,3.183,-1,6
620,5.83600,3.185,-1,6
621,5.84237,3.190,-1,6
622,5.84557,3.191,-1,6
623,5.84877,3.201,-1,6
624,5.85198,3.210,-1,6
625,5.85519,3.214,-1,6
626,5.85842,3.227,-1,6
627,5.86165,3.233,-1,6
628,5.86489,3.244,-1,6
629,5.86815,3.255,-1,6
630,5.87142,3.269,-1,6
631,5.87469,3.273,-1,6
632,5.87798,3.290,-1,6
633,5.88129,3.304,-1,6
634,5.88460,3.315,-1,6
635,5.88793,3.332,-1,6
636,5.89128,3.345,-1,6
637,5.89464,3.361,-1,6
638,5.89802,3.379,-1,6
639,5.90141,3.396,-1,6
640,5.90482,3.408,-1,6
641,5.90825,3.429,-1,6
642,5.91170,3.448,-1,6
643,5.91517,3.468,-1,6
644,5.91865,3.484,-1,6
645,5.92215,3.503,-1,6
646,5.92568,3.526,-1,6
647,5.92923,3.547,-1,6
648,5.93279,3.568,-1,6
649,5.93638,3.589,-1,6
650,5.94000,3.615,-1,6
651,5.94730,3.661,-1,6
652,5.95098,3.682,-1,6
653,5.95469,3.709,-1,6
654,5.95842,3.731,-1,6
655,5.96218,3.760,-1,6
656,5.96597,3.783,-1,6
657,5.96977,3.808,-1,6
658,5.97361,3.834,-1,6
659,5.97747,3.860,-1,6
660,5.98136,3.887,-1,6
661,5.98527,3.918,-1,6
662,5.98922,3.942,-1,6
663,5.99319,3.970,-1,6
664,5.99719,4.000,-1,6
665,6.00121,4.028,-1,6
666,6.00527,4.057,-1,6
667,6.00935,4.083,-1,6
668,6.01347,4.114,-1,6
669,6.01761,4.144,-1,6
670,6.02179,4.175,-1,6
671,6.02599,4.199,-1,6
672,6.03021,4.229,-1,6
673,6.03448,4.262,-1,6
674,6.03877,4.294,-1,6
675,6.04309,4.323,-1,6
676,6.04744,4.351,-1,6
677,6.05183,4.382,-1,6
678,6.05624,4.416,-1,6
679,6.06069,4.446,-1,6
680,6.06516,4.506,-1,6
681,6.07421,4.541,-1,6
682,6.07878,4.574,-1,6
683,6.08339,4.603,-1,6
684,6.08802,4.632,-1,6
685,6.09737,4.695,-1,6
686,6.10210,4.722,-1,6
687,6.10685,4.751,-1,6
688,6.11162,4.774,-1,6
689,6.11642,4.802,-1,6
690,6.12125,4.825,-1,6
691,6.12610,4.850,-1,6
692,6.13097,4.872,-1,6
693,6.13587,4.895,-1,6
694,6.14078,4.914,-1,6
695,6.14571,4.934,-1,6
696,6.15066,4.951,-1,6
697,6.15564,4.972,-1,6
698,6.16062,4.984,-1,6
699,6.16562,4.995,-1,6
700,6.17063,5.014,-1,6
701,6.17566,5.028,-1,6
702,6.18069,5.035,-1,6
703,6.18574,5.042,-1,6
704,6.19079,5.055,-1,6
705,6.19585,5.074,-1,6
706,6.20600,5.077,-1,6
707,6.21109,5.082,-1,6
708,6.21618,5.091,-1,6
709,6.22128,5.100,-1,6
710,6.22638,5.106,-1,6
711,6.23149,5.107,-1,6
712,6.23660,5.107,-1,6
713,6.24171,5.112,-1,6
714,6.24683,5.119,-1,6
715,6.25195,5.119,-1,6
716,6.25707,5.123,-1,6
717,6.26219,5.117,-1,6
718,6.26731,5.124,-1,6
719,6.27757,5.133,-1,6
720,6.28269,5.129,-1,6
721,6.28782,5.128,-1,6
722,6.29295,5.129,-1,6
723,6.29809,5.134,-1,6
724,6.30323,5.142,-1,6
725,6.30837,5.143,-1,6
726,6.31351,5.139,-1,6
727,6.31865,5.143,-1,6
728,6.32380,5.144,-1,6
729,6.32895,5.149,-1,6
730,6.33410,5.153,-1,6
731,6.33925,5.152,-1,6
732,6.34440,5.151,-1,6
733,6.34956,5.154,-1,6
734,6.35471,5.158,-1,6
735,6.35987,5.161,-1,6
736,6.36504,5.164,-1,6
737,6.37020,5.162,-1,6
738,6.37536,5.163,-1,6
739,6.38053,5.166,-1,6
740,6.38570,5.168,-1,6
741,6.39087,5.168,-1,6
742,6.39604,5.171,-1,6
743,6.40120,5.167,-1,6
744,6.40637,5.169,-1,6
745,6.41154,5.169,-1,6
746,6.41671,5.171,-1,6
747,6.42189,5.176,-1,6
748,6.42706,5.174,-1,6
749,6.43224,5.172,-1,6
750,6.43741,5.175,-1,6
751,6.44259,5.178,-1,6
752,6.44776,5.174,-1,6
753,6.45294,5.176,-1,6
754,6.45811,5.172,-1,6
755,6.46329,5.175,-1,6
756,6.46845,5.168,-1,6
757,6.47362,5.170,-1,6
758,6.47879,5.167,-1,6
759,6.48396,5.161,-1,6
760,6.49428,5.161,-1,6
761,6.49943,5.156,-1,6
762,6.50459,5.152,-1,6
763,6.50974,5.155,-1,6
764,6.51489,5.147,-1,6
765,6.52003,5.139,-1,6
766,6.52516,5.134,-1,6
767,6.53029,5.130,-1,6
768,6.53542,5.126,-1,6
769,6.54053,5.116,-1,6
770,6.54564,5.106,-1,6
771,6.55074,5.098,-1,6
772,6.55583,5.093,-1,6
773,6.56091,5.084,-1,6
774,6.56599,5.074,-1,6
775,6.57105,5.062,-1,6
776,6.57610,5.051,-1,6
777,6.58115,5.046,-1,6
778,6.58618,5.034,-1,6
779,6.59120,5.020,-1,6
780,6.59621,5.007,-1,6
781,6.60120,4.994,-1,6
782,6.60618,4.984,-1,6
783,6.61116,4.972,-1,6
784,6.61611,4.956,-1,6
785,6.62105,4.941,-1,6
786,6.62598,4.931,-1,6
787,6.63090,4.912,-1,6
788,6.63580,4.900,-1,6
789,6.64068,4.885,-1,6
790,6.64556,4.874,-1,6
791,6.65041,4.855,-1,6
792,6.65525,4.841,-1,6
793,6.66007,4.820,-1,6
794,6.66488,4.811,-1,6
795,6.66967,4.792,-1,6
796,6.67445,4.776,-1,6
797,6.67921,4.755,-1,6
798,6.68394,4.735,-1,6
799,6.68866,4.722,-1,6
800,6.69337,4.706,-1,6
801,6.69805,4.687,-1,6
802,6.70272,4.666,-1,6
803,6.70737,4.651,-1,6
804,6.71200,4.632,-1,6
805,6.71662,4.617,-1,6
806,6.72122,4.599,-1,6
807,6.72580,4.580,-1,6
808,6.73036,4.563,-1,6
809,6.73491,4.545,-1,6
810,6.73944,4.528,-1,6
811,6.74395,4.510,-1,6
812,6.74843,4.489,-1,6
813,6.75291,4.473,-1,6
814,6.75737,4.458,-1,6
815,6.76181,4.442,-1,6
816,6.76623,4.420,-1,6
817,6.77502,4.388,-1,6
818,6.77939,4.369,-1,6
819,6.78374,4.357,-1,6
820,6.78808,4.340,-1,6
821,6.79241,4.324,-1,6
822,6.79671,4.305,-1,6
823,6.80101,4.295,-1,6
824,6.80528,4.276,-1,6
825,6.80954,4.263,-1,6
826,6.81379,4.247,-1,6
827,6.81803,4.234,-1,6
828,6.82225,4.221,-1,6
829,6.82645,4.204,-1,6
830,6.83064,4.191,-1,6
831,6.83482,4.177,-1,6
832,6.83898,4.166,-1,6
833,6.84313,4.152,-1,6
834,6.84728,4.142,-1,6
835,6.85140,4.127,-1,6
836,6.85552,4.115,-1,6
837,6.85962,4.105,-1,6
838,6.86372,4.099,-1,6
839,6.86781,4.086,-1,6
840,6.87188,4.076,-1,6
841,6.87595,4.065,-1,6
842,6.88001,4.061,-1,6
843,6.88406,4.049,-1,6
844,6.88810,4.043,-1,6
845,6.89214,4.034,-1,6
846,6.89616,4.025,-1,6
847,6.90018,4.025,-1,6
848,6.90420,4.019,-1,6
849,6.90821,4.011,-1,6
850,6.91222,4.003,-1,6
851,6.91622,4.005,-1,6
852,6.92022,4.000,-1,6
853,6.92422,4.002,-1,6
854,6.93222,3.998,-1,6
855,6.93622,3.995,-1,6
856,6.94022,3.998,-1,6
857,6.94421,3.998,-1,6
858,6.94822,4.003,-1,6
859,6.95222,4.001,-1,6
860,6.95623,4.010,-1,6
861,6.96024,4.009,-1,6
862,6.96425,4.018,-1,6
863,6.96827,4.017,-1,6
864,6.97230,4.026,-1,6
865,6.97633,4.036,-1,6
866,6.98038,4.045,-1,6
867,6.98443,4.052,-1,6
868,6.98849,4.062,-1,6
869,6.99256,4.073,-1,6
870,6.99665,4.083,-1,6
871,7.00075,4.102,-1,6
872,7.00486,4.112,-1,6
873,7.00899,4.127,-1,6
