cnt,pos,speed,Dir,Force,
1,4.03021,1.008,-1,5
2,4.03124,1.030,-1,5
3,4.03228,1.044,-1,5
4,4.03332,1.043,-1,5
5,4.03437,1.046,-1,5
6,4.03544,1.072,-1,5
7,4.03654,1.101,-1,5
8,4.03765,1.112,-1,5
9,4.03876,1.106,-1,5
10,4.03987,1.116,-1,5
11,4.04102,1.150,-1,5
12,4.04220,1.178,-1,5
13,4.04338,1.177,-1,5
14,4.04456,1.177,-1,5
15,4.04576,1.205,-1,5
16,4.04701,1.247,-1,5
17,4.04826,1.253,-1,5
18,4.04951,1.248,-1,5
19,4.05078,1.266,-1,5
20,4.05209,1.309,-1,5
21,4.05342,1.334,-1,5
22,4.05475,1.333,-1,5
23,4.05610,1.343,-1,5
24,4.05747,1.372,-1,5
25,4.05887,1.400,-1,5
26,4.06029,1.418,-1,5
27,4.06172,1.431,-1,5
28,4.06316,1.446,-1,5
29,4.06464,1.476,-1,5
30,4.06614,1.502,-1,5
31,4.06765,1.513,-1,5
32,4.06918,1.526,-1,5
33,4.07074,1.586,-1,5
34,4.07392,1.598,-1,5
35,4.07554,1.615,-1,5
36,4.07718,1.640,-1,5
37,4.07885,1.672,-1,5
38,4.08054,1.692,-1,5
39,4.08224,1.698,-1,5
40,4.08396,1.720,-1,5
41,4.08572,1.760,-1,5
42,4.08750,1.780,-1,5
43,4.08929,1.788,-1,5
44,4.09109,1.800,-1,5
45,4.09293,1.838,-1,5
46,4.09480,1.876,-1,5
47,4.09668,1.878,-1,5
48,4.09856,1.880,-1,5
49,4.10047,1.911,-1,5
50,4.10242,1.955,-1,5
51,4.10440,1.974,-1,5
52,4.10637,1.968,-1,5
53,4.10835,1.983,-1,5
54,4.11038,2.026,-1,5
55,4.11243,2.058,-1,5
56,4.11449,2.058,-1,5
57,4.11655,2.057,-1,5
58,4.11864,2.094,-1,5
59,4.12077,2.130,-1,5
60,4.12291,2.141,-1,5
61,4.12505,2.139,-1,5
62,4.13162,2.215,-1,5
63,4.13606,2.223,-1,5
64,4.13831,2.252,-1,5
65,4.14059,2.279,-1,5
66,4.14289,2.295,-1,5
67,4.14518,2.289,-1,5
68,4.14748,2.301,-1,5
69,4.14981,2.330,-1,5
70,4.15216,2.357,-1,5
71,4.15452,2.351,-1,5
72,4.15687,2.351,-1,5
73,4.15924,2.373,-1,5
74,4.16405,2.406,-1,5
75,4.16645,2.400,-1,5
76,4.16886,2.410,-1,5
77,4.17129,2.436,-1,5
78,4.17375,2.452,-1,5
79,4.17619,2.443,-1,5
80,4.17863,2.438,-1,5
81,4.18109,2.461,-1,5
82,4.18357,2.480,-1,5
83,4.18604,2.476,-1,5
84,4.18851,2.471,-1,5
85,4.19099,2.480,-1,5
86,4.19348,2.491,-1,5
87,4.19598,2.496,-1,5
88,4.19848,2.496,-1,5
89,4.20096,2.489,-1,5
90,4.20346,2.493,-1,5
91,4.20596,2.505,-1,5
92,4.20847,2.506,-1,5
93,4.21096,2.495,-1,5
94,4.21345,2.489,-1,5
95,4.21595,2.495,-1,5
96,4.21845,2.502,-1,5
97,4.22094,2.494,-1,5
98,4.22342,2.481,-1,5
99,4.22590,2.479,-1,5
100,4.22839,2.486,-1,5
101,4.23334,2.466,-1,5
102,4.23580,2.459,-1,5
103,4.23826,2.461,-1,5
104,4.24072,2.457,-1,5
105,4.24316,2.446,-1,5
106,4.24560,2.437,-1,5
107,4.24803,2.429,-1,5
108,4.25045,2.425,-1,5
109,4.25287,2.416,-1,5
110,4.25528,2.407,-1,5
111,4.26005,2.383,-1,5
112,4.26243,2.378,-1,5
113,4.26480,2.368,-1,5
114,4.26716,2.358,-1,5
115,4.26950,2.344,-1,5
116,4.27183,2.330,-1,5
117,4.27415,2.323,-1,5
118,4.27647,2.317,-1,5
119,4.28106,2.283,-1,5
120,4.28333,2.277,-1,5
121,4.28333,2.277,-1,5
122,4.28560,2.266,-1,5
123,4.28785,2.252,-1,5
124,4.29009,2.236,-1,5
125,4.29231,2.227,-1,5
126,4.29453,2.215,-1,5
127,4.29673,2.202,-1,5
128,4.29892,2.187,-1,5
129,4.30110,2.177,-1,5
130,4.30326,2.164,-1,5
131,4.30541,2.150,-1,5
132,4.30755,2.138,-1,5
133,4.30967,2.123,-1,5
134,4.31178,2.112,-1,5
135,4.31388,2.098,-1,5
136,4.31597,2.086,-1,5
137,4.31804,2.069,-1,5
138,4.32009,2.057,-1,5
139,4.32214,2.049,-1,5
140,4.32619,2.019,-1,5
141,4.32819,1.998,-1,5
142,4.33019,1.994,-1,5
143,4.33217,1.987,-1,5
144,4.33414,1.966,-1,5
145,4.33609,1.948,-1,5
146,4.33802,1.936,-1,5
147,4.33996,1.935,-1,5
148,4.34188,1.919,-1,5
149,4.34377,1.898,-1,5
150,4.34566,1.884,-1,5
151,4.34754,1.878,-1,5
152,4.34941,1.875,-1,5
153,4.35127,1.837,-1,5
154,4.35493,1.829,-1,5
155,4.35675,1.821,-1,5
156,4.35857,1.817,-1,5
157,4.36037,1.802,-1,5
158,4.36216,1.787,-1,5
159,4.36394,1.769,-1,5
160,4.36571,1.769,-1,5
161,4.36747,1.767,-1,5
162,4.36924,1.762,-1,5
163,4.37098,1.741,-1,5
164,4.37270,1.728,-1,5
165,4.37443,1.725,-1,5
166,4.37616,1.730,-1,5
167,4.37788,1.725,-1,5
168,4.37959,1.701,-1,5
169,4.38127,1.685,-1,5
170,4.38296,1.692,-1,5
171,4.38466,1.701,-1,5
172,4.38636,1.695,-1,5
173,4.38803,1.672,-1,5
174,4.38969,1.655,-1,5
175,4.39135,1.668,-1,5
176,4.39303,1.681,-1,5
177,4.39470,1.668,-1,5
178,4.39799,1.636,-1,5
179,4.39964,1.652,-1,5
180,4.40130,1.666,-1,5
181,4.40295,1.647,-1,5
182,4.40458,1.625,-1,5
183,4.40621,1.630,-1,5
184,4.40785,1.648,-1,5
185,4.40951,1.654,-1,5
186,4.41114,1.635,-1,5
187,4.41276,1.614,-1,5
188,4.41439,1.631,-1,5
189,4.41604,1.655,-1,5
190,4.41769,1.648,-1,5
191,4.41932,1.627,-1,5
192,4.42094,1.620,-1,5
193,4.42258,1.640,-1,5
194,4.42424,1.663,-1,5
195,4.42752,1.628,-1,5
196,4.42915,1.629,-1,5
197,4.43081,1.656,-1,5
198,4.43248,1.675,-1,5
199,4.43415,1.668,-1,5
200,4.43579,1.642,-1,5
201,4.43744,1.646,-1,5
202,4.43912,1.679,-1,5
203,4.44082,1.696,-1,5
204,4.44250,1.687,-1,5
205,4.44417,1.668,-1,5
206,4.44584,1.673,-1,5
207,4.44755,1.709,-1,5
208,4.44928,1.728,-1,5
209,4.45099,1.710,-1,5
210,4.45269,1.697,-1,5
211,4.45440,1.713,-1,5
212,4.45615,1.744,-1,5
213,4.45790,1.757,-1,5
214,4.45964,1.738,-1,5
215,4.46137,1.733,-1,5
216,4.46492,1.784,-1,5
217,4.46848,1.775,-1,5
218,4.47027,1.783,-1,5
219,4.47208,1.817,-1,5
220,4.47392,1.833,-1,5
221,4.47574,1.825,-1,5
222,4.47757,1.822,-1,5
223,4.47941,1.844,-1,5
224,4.48129,1.876,-1,5
225,4.48317,1.884,-1,5
226,4.48504,1.876,-1,5
227,4.48693,1.884,-1,5
228,4.48884,1.911,-1,5
229,4.49078,1.940,-1,5
230,4.49272,1.941,-1,5
231,4.49466,1.941,-1,5
232,4.49662,1.954,-1,5
233,4.49860,1.985,-1,5
234,4.50061,2.015,-1,5
235,4.50465,2.019,-1,5
236,4.50668,2.035,-1,5
237,4.50875,2.068,-1,5
238,4.51085,2.096,-1,5
239,4.51295,2.100,-1,5
240,4.51505,2.104,-1,5
241,4.51718,2.126,-1,5
242,4.51934,2.167,-1,5
243,4.52153,2.190,-1,5
244,4.52373,2.192,-1,5
245,4.52593,2.203,-1,5
246,4.52816,2.236,-1,5
247,4.53044,2.273,-1,5
248,4.53273,2.291,-1,5
249,4.53503,2.299,-1,5
250,4.53735,2.318,-1,5
251,4.53969,2.348,-1,5
252,4.54208,2.383,-1,5
253,4.54448,2.402,-1,5
254,4.54690,2.418,-1,5
255,4.54934,2.440,-1,5
256,4.55181,2.472,-1,5
257,4.55683,2.526,-1,5
258,4.55938,2.543,-1,5
259,4.56194,2.567,-1,5
260,4.56454,2.594,-1,5
261,4.56717,2.632,-1,5
262,4.56982,2.654,-1,5
263,4.57250,2.674,-1,5
264,4.57519,2.697,-1,5
265,4.57792,2.730,-1,5
266,4.58069,2.761,-1,5
267,4.58347,2.809,-1,5
268,4.58912,2.835,-1,5
269,4.59198,2.863,-1,5
270,4.59487,2.895,-1,5
271,4.59780,2.922,-1,5
272,4.60074,2.943,-1,5
273,4.60371,2.968,-1,5
274,4.60671,3.031,-1,5
275,4.61279,3.055,-1,5
276,4.61587,3.080,-1,5
277,4.61587,3.080,-1,5
278,4.61897,3.102,-1,5
279,4.62211,3.133,-1,5
280,4.62527,3.163,-1,5
281,4.62846,3.187,-1,5
282,4.63167,3.209,-1,5
283,4.63490,3.233,-1,5
284,4.63816,3.262,-1,5
285,4.64145,3.290,-1,5
286,4.64476,3.312,-1,5
287,4.64810,3.332,-1,5
288,4.65145,3.359,-1,5
289,4.65484,3.386,-1,5
290,4.65825,3.409,-1,5
291,4.66169,3.436,-1,5
292,4.66514,3.455,-1,5
293,4.66862,3.480,-1,5
294,4.67213,3.507,-1,5
295,4.67566,3.528,-1,5
296,4.68278,3.576,-1,5
297,4.68638,3.599,-1,5
298,4.69001,3.624,-1,5
299,4.69366,3.650,-1,5
300,4.69733,3.673,-1,5
301,4.70103,3.697,-1,5
302,4.70475,3.721,-1,5
303,4.70849,3.745,-1,5
304,4.71227,3.776,-1,5
305,4.71606,3.796,-1,5
306,4.71989,3.823,-1,5
307,4.72373,3.847,-1,5
308,4.72761,3.877,-1,5
309,4.73151,3.901,-1,5
310,4.73544,3.924,-1,5
311,4.73939,3.949,-1,5
312,4.74336,3.979,-1,5
313,4.74737,4.001,-1,5
314,4.75139,4.047,-1,5
315,4.75951,4.072,-1,5
316,4.76361,4.099,-1,5
317,4.76773,4.122,-1,5
318,4.77187,4.140,-1,5
319,4.77604,4.162,-1,5
320,4.78022,4.188,-1,5
321,4.78443,4.208,-1,5
322,4.78866,4.229,-1,5
323,4.79291,4.247,-1,5
324,4.79718,4.269,-1,5
325,4.80146,4.287,-1,5
326,4.80577,4.308,-1,5
327,4.81010,4.323,-1,5
328,4.81444,4.343,-1,5
329,4.81880,4.359,-1,5
330,4.82317,4.375,-1,5
331,4.82756,4.389,-1,5
332,4.83196,4.400,-1,5
333,4.83638,4.418,-1,5
334,4.84081,4.432,-1,5
335,4.84525,4.440,-1,5
336,4.85416,4.462,-1,5
337,4.85863,4.469,-1,5
338,4.86311,4.480,-1,5
339,4.86760,4.487,-1,5
340,4.87209,4.493,-1,5
341,4.87659,4.496,-1,5
342,4.88109,4.507,-1,5
343,4.88560,4.509,-1,5
344,4.89011,4.512,-1,5
345,4.89462,4.509,-1,5
346,4.89914,4.515,-1,5
347,4.90365,4.511,-1,5
348,4.90816,4.505,-1,5
349,4.91717,4.501,-1,5
350,4.92167,4.499,-1,5
351,4.92616,4.495,-1,5
352,4.93065,4.485,-1,5
353,4.93512,4.476,-1,5
354,4.93959,4.472,-1,5
355,4.94406,4.455,-1,5
356,4.94851,4.455,-1,5
357,4.95295,4.442,-1,5
358,4.95739,4.433,-1,5
359,4.96181,4.419,-1,5
360,4.96621,4.409,-1,5
361,4.97061,4.394,-1,5
362,4.97499,4.383,-1,5
363,4.97936,4.367,-1,5
364,4.98371,4.351,-1,5
365,4.98804,4.335,-1,5
366,4.99236,4.321,-1,5
367,4.99667,4.304,-1,5
368,5.00095,4.285,-1,5
369,5.00522,4.270,-1,5
370,5.00948,4.252,-1,5
371,5.01371,4.238,-1,5
372,5.01793,4.215,-1,5
373,5.02213,4.200,-1,5
374,5.02631,4.180,-1,5
375,5.03047,4.165,-1,5
376,5.03462,4.143,-1,5
377,5.03874,4.104,-1,5
378,5.04285,4.104,-1,5
379,5.05100,4.065,-1,5
380,5.05504,4.042,-1,5
381,5.05906,4.026,-1,5
382,5.06307,4.007,-1,5
383,5.06706,3.985,-1,5
384,5.07102,3.962,-1,5
385,5.07496,3.945,-1,5
386,5.07889,3.925,-1,5
387,5.08279,3.903,-1,5
388,5.08668,3.886,-1,5
389,5.09054,3.868,-1,5
390,5.09439,3.847,-1,5
391,5.09822,3.827,-1,5
392,5.10202,3.804,-1,5
393,5.10581,3.767,-1,5
394,5.11332,3.747,-1,5
395,5.11705,3.728,-1,5
396,5.12076,3.706,-1,5
397,5.12445,3.691,-1,5
398,5.12812,3.668,-1,5
399,5.13176,3.644,-1,5
400,5.13539,3.627,-1,5
401,5.13900,3.609,-1,5
402,5.14259,3.589,-1,5
403,5.14615,3.568,-1,5
404,5.14970,3.548,-1,5
405,5.15323,3.531,-1,5
406,5.15674,3.509,-1,5
407,5.16023,3.489,-1,5
408,5.16370,3.471,-1,5
409,5.16716,3.453,-1,5
410,5.17059,3.433,-1,5
411,5.17400,3.413,-1,5
412,5.17740,3.393,-1,5
413,5.18077,3.376,-1,5
414,5.18413,3.356,-1,5
415,5.18746,3.338,-1,5
416,5.19078,3.317,-1,5
417,5.19408,3.296,-1,5
418,5.19736,3.281,-1,5
419,5.20062,3.261,-1,5
420,5.20386,3.224,-1,5
421,5.20709,3.204,-1,5
422,5.21347,3.183,-1,5
423,5.21664,3.171,-1,5
424,5.21980,3.152,-1,5
425,5.22293,3.130,-1,5
426,5.22604,3.113,-1,5
427,5.22914,3.097,-1,5
428,5.23222,3.080,-1,5
429,5.23832,3.040,-1,5
430,5.24134,3.024,-1,5
431,5.24435,3.010,-1,5
432,5.24734,2.972,-1,5
433,5.25326,2.950,-1,5
434,5.25620,2.939,-1,5
435,5.25913,2.923,-1,5
436,5.26203,2.902,-1,5
437,5.26491,2.885,-1,5
438,5.26778,2.869,-1,5
439,5.27063,2.846,-1,5
440,5.27347,2.840,-1,5
441,5.27629,2.820,-1,5
442,5.27909,2.800,-1,5
443,5.28187,2.782,-1,5
444,5.28464,2.768,-1,5
445,5.28739,2.755,-1,5
446,5.29013,2.739,-1,5
447,5.29285,2.720,-1,5
448,5.29555,2.703,-1,5
449,5.29825,2.693,-1,5
450,5.30093,2.680,-1,5
451,5.30359,2.664,-1,5
452,5.30624,2.645,-1,5
453,5.30887,2.630,-1,5
454,5.31149,2.620,-1,5
455,5.31410,2.612,-1,5
456,5.31669,2.591,-1,5
457,5.31927,2.577,-1,5
458,5.32183,2.569,-1,5
459,5.32439,2.557,-1,5
460,5.32946,2.532,-1,5
461,5.33199,2.522,-1,5
462,5.33450,2.512,-1,5
463,5.33700,2.501,-1,5
464,5.33949,2.493,-1,5
465,5.34197,2.483,-1,5
466,5.34445,2.474,-1,5
467,5.34692,2.468,-1,5
468,5.34938,2.463,-1,5
469,5.35184,2.457,-1,5
470,5.35428,2.448,-1,5
471,5.35673,2.445,-1,5
472,5.35918,2.446,-1,5
473,5.36162,2.445,-1,5
474,5.36650,2.439,-1,5
475,5.36894,2.443,-1,5
476,5.37139,2.445,-1,5
477,5.37383,2.448,-1,5
478,5.37629,2.456,-1,5
479,5.37875,2.461,-1,5
480,5.38122,2.466,-1,5
481,5.38369,2.478,-1,5
482,5.38618,2.489,-1,5
483,5.38868,2.499,-1,5
484,5.39119,2.512,-1,5
485,5.39372,2.527,-1,5
486,5.39627,2.545,-1,5
487,5.39883,2.565,-1,5
488,5.40141,2.582,-1,5
489,5.40401,2.599,-1,5
490,5.40664,2.626,-1,5
491,5.40929,2.650,-1,5
492,5.41196,2.674,-1,5
493,5.41466,2.702,-1,5
494,5.41739,2.730,-1,5
495,5.42015,2.760,-1,5
496,5.42295,2.791,-1,5
497,5.42577,2.827,-1,5
498,5.42864,2.863,-1,5
499,5.43153,2.897,-1,5
500,5.43447,2.939,-1,5
501,5.44047,3.019,-1,5
502,5.44353,3.065,-1,5
503,5.44664,3.110,-1,5
504,5.44980,3.152,-1,5
505,5.45300,3.202,-1,5
506,5.45625,3.251,-1,5
507,5.45955,3.299,-1,5
508,5.46290,3.352,-1,5
509,5.46630,3.399,-1,5
510,5.46975,3.450,-1,5
511,5.47326,3.509,-1,5
512,5.47681,3.613,-1,5
513,5.48409,3.667,-1,5
514,5.48782,3.723,-1,5
515,5.49160,3.779,-1,5
516,5.49543,3.836,-1,5
517,5.49932,3.891,-1,5
518,5.50327,3.948,-1,5
519,5.50727,4.002,-1,5
520,5.51134,4.065,-1,5
521,5.51546,4.121,-1,5
522,5.51963,4.174,-1,5
523,5.52386,4.228,-1,5
524,5.52815,4.287,-1,5
525,5.53249,4.344,-1,5
526,5.53689,4.396,-1,5
527,5.54133,4.448,-1,5
528,5.54584,4.502,-1,5
529,5.55040,4.559,-1,5
530,5.55500,4.607,-1,5
531,5.55966,4.657,-1,5
532,5.56437,4.707,-1,5
533,5.56912,4.755,-1,5
534,5.57393,4.809,-1,5
535,5.58368,4.899,-1,5
536,5.58862,4.943,-1,5
537,5.59361,4.988,-1,5
538,5.59864,5.030,-1,5
539,5.60882,5.106,-1,5
540,5.61396,5.144,-1,5
541,5.61914,5.180,-1,5
542,5.62436,5.216,-1,5
543,5.62960,5.246,-1,5
544,5.63488,5.275,-1,5
545,5.64019,5.308,-1,5
546,5.64552,5.333,-1,5
547,5.65088,5.362,-1,5
548,5.65627,5.388,-1,5
549,5.66168,5.414,-1,5
550,5.66712,5.452,-1,5
551,5.67804,5.469,-1,5
552,5.68353,5.489,-1,5
553,5.68903,5.503,-1,5
554,5.69455,5.517,-1,5
555,5.70007,5.524,-1,5
556,5.70561,5.534,-1,5
557,5.71116,5.551,-1,5
558,5.71672,5.561,-1,5
559,5.72228,5.561,-1,5
560,5.72784,5.564,-1,5
561,5.73341,5.572,-1,5
562,5.73899,5.577,-1,5
563,5.74457,5.581,-1,5
564,5.75015,5.575,-1,5
565,5.75572,5.572,-1,5
566,5.76129,5.568,-1,5
567,5.76686,5.571,-1,5
568,5.77243,5.566,-1,5
569,5.77799,5.560,-1,5
570,5.78353,5.547,-1,5
571,5.78908,5.544,-1,5
572,5.79461,5.537,-1,5
573,5.80014,5.529,-1,5
574,5.80566,5.519,-1,5
575,5.81117,5.507,-1,5
576,5.81666,5.494,-1,5
577,5.82214,5.483,-1,5
578,5.82762,5.474,-1,5
579,5.83851,5.439,-1,5
580,5.84394,5.425,-1,5
581,5.84935,5.415,-1,5
582,5.85475,5.400,-1,5
583,5.86013,5.380,-1,5
584,5.86550,5.363,-1,5
585,5.87084,5.349,-1,5
586,5.87618,5.335,-1,5
587,5.88150,5.322,-1,5
588,5.88680,5.298,-1,5
589,5.89208,5.277,-1,5
590,5.89734,5.264,-1,5
591,5.90782,5.229,-1,5
592,5.91302,5.205,-1,5
593,5.91821,5.186,-1,5
594,5.92337,5.165,-1,5
595,5.92852,5.151,-1,5
596,5.93365,5.129,-1,5
597,5.93876,5.110,-1,5
598,5.94385,5.087,-1,5
599,5.94892,5.071,-1,5
600,5.95397,5.046,-1,5
601,5.95899,5.026,-1,5
602,5.96400,5.004,-1,5
603,5.96898,4.984,-1,5
604,5.97395,4.967,-1,5
605,5.97889,4.943,-1,5
606,5.98381,4.919,-1,5
607,5.98871,4.894,-1,5
608,5.99358,4.877,-1,5
609,5.99844,4.858,-1,5
610,6.00328,4.838,-1,5
611,6.00809,4.811,-1,5
612,6.01288,4.791,-1,5
613,6.01765,4.771,-1,5
614,6.02241,4.757,-1,5
615,6.02715,4.736,-1,5
616,6.03186,4.714,-1,5
617,6.03655,4.688,-1,5
618,6.04121,4.667,-1,5
619,6.04586,4.650,-1,5
620,6.05511,4.611,-1,5
621,6.05969,4.585,-1,5
622,6.06426,4.563,-1,5
623,6.06881,4.548,-1,5
624,6.07333,4.529,-1,5
625,6.07785,4.512,-1,5
626,6.08233,4.488,-1,5
627,6.08680,4.464,-1,5
628,6.09124,4.445,-1,5
629,6.09567,4.429,-1,5
630,6.10008,4.412,-1,5
631,6.10447,4.366,-1,5
632,6.11318,4.346,-1,5
633,6.11752,4.331,-1,5
634,6.12183,4.310,-1,5
635,6.12612,4.291,-1,5
636,6.13038,4.269,-1,5
637,6.13464,4.252,-1,5
638,6.13888,4.240,-1,5
639,6.14310,4.220,-1,5
640,6.14729,4.195,-1,5
641,6.15147,4.180,-1,5
642,6.15564,4.169,-1,5
643,6.15979,4.150,-1,5
644,6.16392,4.132,-1,5
645,6.16803,4.111,-1,5
646,6.17214,4.101,-1,5
647,6.17622,4.086,-1,5
648,6.18029,4.071,-1,5
649,6.18434,4.050,-1,5
650,6.18838,4.038,-1,5
651,6.19241,4.024,-1,5
652,6.19642,4.012,-1,5
653,6.20042,3.998,-1,5
654,6.20439,3.978,-1,5
655,6.20836,3.969,-1,5
656,6.21232,3.959,-1,5
657,6.21627,3.945,-1,5
658,6.22020,3.931,-1,5
659,6.22803,3.907,-1,5
660,6.23193,3.899,-1,5
661,6.23581,3.887,-1,5
662,6.23969,3.877,-1,5
663,6.24355,3.861,-1,5
664,6.24740,3.853,-1,5
665,6.25125,3.843,-1,5
666,6.25508,3.836,-1,5
667,6.25890,3.821,-1,5
668,6.26271,3.809,-1,5
669,6.26651,3.802,-1,5
670,6.27031,3.794,-1,5
671,6.27410,3.789,-1,5
672,6.27788,3.781,-1,5
673,6.28165,3.768,-1,5
674,6.28540,3.757,-1,5
675,6.28916,3.755,-1,5
676,6.29291,3.751,-1,5
677,6.30039,3.736,-1,5
678,6.30412,3.732,-1,5
679,6.30785,3.729,-1,5
680,6.31158,3.727,-1,5
681,6.31530,3.722,-1,5
682,6.31902,3.715,-1,5
683,6.32273,3.711,-1,5
684,6.32644,3.711,-1,5
685,6.33015,3.711,-1,5
686,6.33386,3.708,-1,5
687,6.33756,3.702,-1,5
688,6.34126,3.704,-1,5
689,6.34497,3.701,-1,5
690,6.34867,3.703,-1,5
691,6.35237,3.703,-1,5
692,6.35607,3.698,-1,5
693,6.35978,3.706,-1,5
694,6.36348,3.705,-1,5
695,6.36719,3.709,-1,5
696,6.37089,3.705,-1,5
697,6.37460,3.708,-1,5
698,6.37832,3.714,-1,5
699,6.38203,3.718,-1,5
700,6.38576,3.720,-1,5
701,6.38948,3.723,-1,5
702,6.39321,3.730,-1,5
703,6.39694,3.735,-1,5
704,6.40069,3.743,-1,5
705,6.40444,3.749,-1,5
706,6.40819,3.765,-1,5
707,6.41573,3.776,-1,5
708,6.41952,3.786,-1,5
709,6.42332,3.799,-1,5
710,6.42713,3.807,-1,5
711,6.43095,3.822,-1,5
712,6.43478,3.836,-1,5
713,6.43863,3.850,-1,5
714,6.44250,3.863,-1,5
715,6.44638,3.882,-1,5
716,6.45027,3.893,-1,5
717,6.45419,3.915,-1,5
718,6.45811,3.928,-1,5
719,6.46206,3.964,-1,5
720,6.47001,3.985,-1,5
721,6.47401,4.001,-1,5
722,6.47803,4.018,-1,5
723,6.48207,4.040,-1,5
724,6.48612,4.057,-1,5
725,6.49021,4.082,-1,5
726,6.49431,4.102,-1,5
727,6.49843,4.123,-1,5
728,6.50258,4.145,-1,5
729,6.50674,4.168,-1,5
730,6.51093,4.189,-1,5
731,6.51515,4.214,-1,5
732,6.51938,4.237,-1,5
733,6.52364,4.259,-1,5
734,6.52793,4.284,-1,5
735,6.53223,4.306,-1,5
736,6.53657,4.334,-1,5
737,6.54093,4.360,-1,5
738,6.54531,4.378,-1,5
739,6.54971,4.406,-1,5
740,6.55414,4.432,-1,5
741,6.55860,4.458,-1,5
742,6.56308,4.480,-1,5
743,6.56759,4.504,-1,5
744,6.57212,4.532,-1,5
745,6.57667,4.556,-1,5
746,6.58126,4.584,-1,5
747,6.58586,4.628,-1,5
748,6.59515,4.655,-1,5
749,6.59983,4.681,-1,5
750,6.60453,4.701,-1,5
751,6.60925,4.721,-1,5
752,6.61400,4.751,-1,5
753,6.61878,4.778,-1,5
754,6.62357,4.796,-1,5
755,6.62839,4.816,-1,5
756,6.63323,4.843,-1,5
757,6.63810,4.869,-1,5
758,6.64300,4.896,-1,5
759,6.65285,4.940,-1,5
760,6.65782,4.963,-1,5
761,6.66281,4.991,-1,5
762,6.66782,5.012,-1,5
763,6.67286,5.037,-1,5
764,6.67791,5.057,-1,5
765,6.68299,5.082,-1,5
766,6.68810,5.107,-1,5
767,6.69323,5.126,-1,5
768,6.69838,5.155,-1,5
769,6.70356,5.181,-1,5
770,6.70877,5.204,-1,5
771,6.71399,5.227,-1,5
772,6.71925,5.253,-1,5
773,6.72452,5.276,-1,5
774,6.72983,5.302,-1,5
775,6.73515,5.325,-1,5
776,6.74050,5.350,-1,5
777,6.74587,5.367,-1,5
778,6.75126,5.393,-1,5
779,6.75668,5.416,-1,5
780,6.76212,5.441,-1,5
781,6.76757,5.457,-1,5
782,6.77305,5.479,-1,5
783,6.77856,5.502,-1,5
784,6.78408,5.528,-1,5
785,6.78963,5.550,-1,5
786,6.79520,5.570,-1,5
787,6.80079,5.590,-1,5
788,6.80641,5.614,-1,5
789,6.81769,5.653,-1,5
790,6.82337,5.676,-1,5
791,6.83477,5.712,-1,5
792,6.84050,5.733,-1,5
793,6.84626,5.753,-1,5
794,6.85203,5.769,-1,5
795,6.85781,5.784,-1,5
796,6.86361,5.801,-1,5
797,6.86943,5.826,-1,5
798,6.87528,5.843,-1,5
799,6.88113,5.856,-1,5
800,6.89288,5.881,-1,5
801,6.89878,5.904,-1,5
802,6.91063,5.926,-1,5
803,6.91656,5.931,-1,5
804,6.92251,5.953,-1,5
805,6.92848,5.966,-1,5
806,6.93446,5.982,-1,5
807,6.94044,5.984,-1,5
808,6.94643,5.991,-1,5
809,6.95244,6.001,-1,5
810,6.95845,6.016,-1,5
811,6.96447,6.020,-1,5
812,6.97049,6.020,-1,5
813,6.97651,6.022,-1,5
814,6.98254,6.028,-1,5
815,6.98858,6.041,-1,5
816,6.99462,6.040,-1,5
817,7.00066,6.035,-1,5
818,7.00669,6.032,-1,5
819,7.01273,6.041,-1,5
820,7.01877,6.038,-1,5
821,7.02480,6.031,-1,5
822,7.03082,6.022,-1,5
823,7.03684,6.020,-1,5
824,7.04286,6.016,-1,5
825,7.04887,6.013,-1,5
826,7.05487,5.998,-1,5
827,7.06684,5.978,-1,5
828,7.07282,5.980,-1,5
829,7.07879,5.971,-1,5
830,7.08474,5.949,-1,5
831,7.09067,5.937,-1,5
832,7.09660,5.926,-1,5
833,7.10252,5.921,-1,5
834,7.10843,5.905,-1,5
835,7.11431,5.885,-1,5
836,7.12017,5.860,-1,5
837,7.12602,5.852,-1,5
838,7.13186,5.842,-1,5
839,7.13769,5.830,-1,5
840,7.14350,5.803,-1,5
841,7.14928,5.765,-1,5
842,7.15504,5.761,-1,5
843,7.16654,5.740,-1,5
844,7.17226,5.714,-1,5
845,7.17794,5.686,-1,5
846,7.18361,5.667,-1,5
847,7.18927,5.663,-1,5
848,7.19492,5.646,-1,5
849,7.20053,5.615,-1,5
850,7.20612,5.584,-1,5
851,7.21169,5.575,-1,5
852,7.21726,5.564,-1,5
853,7.22280,5.544,-1,5
854,7.22831,5.510,-1,5
855,7.23380,5.487,-1,5
856,7.23927,5.474,-1,5
857,7.24473,5.464,-1,5
858,7.25017,5.432,-1,5
859,7.25557,5.404,-1,5
860,7.26095,5.382,-1,5
861,7.26633,5.375,-1,5
862,7.27169,5.359,-1,5
863,7.27702,5.329,-1,5
864,7.28232,5.301,-1,5
865,7.28760,5.286,-1,5
866,7.29288,5.277,-1,5
867,7.29813,5.254,-1,5
868,7.30336,5.229,-1,5
869,7.30856,5.198,-1,5
870,7.31892,5.173,-1,5
871,7.32408,5.154,-1,5
872,7.32920,5.123,-1,5
873,7.33430,5.101,-1,5
