cnt,pos,speed,Dir,Force,
1,0,1.002,1,7
2,0.000976562,0.986,1,7
3,0.00196838,0.981,1,7
4,0.00296783,0.999,1,7
5,0.00398254,1.013,1,7
6,0.00498962,1.011,1,7
7,0.00598907,0.997,1,7
8,0.0069809,0.994,1,7
9,0.00800323,1.017,1,7
10,0.0090332,1.033,1,7
11,0.0100632,1.02,1,7
12,0.0110626,1.002,1,7
13,0.0120621,1.008,1,7
14,0.0130997,1.033,1,7
15,0.0141525,1.048,1,7
16,0.0151825,1.034,1,7
17,0.0161896,1.014,1,7
18,0.0172195,1.024,1,7
19,0.0182724,1.051,1,7
20,0.0193329,1.061,1,7
21,0.0203629,1.038,1,7
22,0.0213928,1.023,1,7
23,0.022438,1.048,1,7
24,0.0235062,1.077,1,7
25,0.0245895,1.073,1,7
26,0.0256271,1.041,1,7
27,0.0266724,1.039,1,7
28,0.0277405,1.07,1,7
29,0.0288315,1.094,1,7
30,0.0299072,1.075,1,7
31,0.0309525,1.049,1,7
32,0.0320206,1.063,1,7
33,0.0331116,1.096,1,7
34,0.0342178,1.1,1,7
35,0.0352859,1.071,1,7
36,0.0363388,1.057,1,7
37,0.0374298,1.087,1,7
38,0.0385361,1.116,1,7
39,0.03965,1.103,1,7
40,0.0407181,1.074,1,7
41,0.0418015,1.079,1,7
42,0.042923,1.11,1,7
43,0.0440292,1.12,1,7
44,0.0451279,1.101,1,7
45,0.0462189,1.09,1,7
46,0.0473328,1.111,1,7
47,0.0484619,1.132,1,7
48,0.0495911,1.123,1,7
49,0.0506897,1.104,1,7
50,0.051796,1.111,1,7
51,0.0529404,1.135,1,7
52,0.0540771,1.139,1,7
53,0.0552063,1.127,1,7
54,0.0563278,1.124,1,7
55,0.057457,1.137,1,7
56,0.058609,1.143,1,7
57,0.0597534,1.142,1,7
58,0.0608902,1.14,1,7
59,0.062027,1.147,1,7
60,0.0631866,1.15,1,7
61,0.0643387,1.15,1,7
62,0.0654907,1.152,1,7
63,0.0666428,1.158,1,7
64,0.0678101,1.158,1,7
65,0.0689621,1.158,1,7
66,0.0701294,1.162,1,7
67,0.0712967,1.173,1,7
68,0.0724716,1.17,1,7
69,0.0736313,1.163,1,7
70,0.0747986,1.169,1,7
71,0.0759888,1.187,1,7
72,0.0771713,1.186,1,7
73,0.0783463,1.176,1,7
74,0.0795288,1.177,1,7
75,0.0807266,1.195,1,7
76,0.0819168,1.199,1,7
77,0.083107,1.186,1,7
78,0.0842972,1.187,1,7
79,0.0855026,1.206,1,7
80,0.0867233,1.211,1,7
81,0.0891113,1.197,1,7
82,0.0903168,1.203,1,7
83,0.0915298,1.217,1,7
84,0.0927505,1.215,1,7
85,0.093956,1.216,1,7
86,0.0951767,1.221,1,7
87,0.0964127,1.216,1,7
88,0.0976181,1.218,1,7
89,0.0988464,1.225,1,7
90,0.100082,1.233,1,7
91,0.102531,1.228,1,7
92,0.103767,1.239,1,7
93,0.105011,1.242,1,7
94,0.106247,1.237,1,7
95,0.107483,1.235,1,7
96,0.108727,1.249,1,7
97,0.109993,1.257,1,7
98,0.111237,1.254,1,7
99,0.112503,1.248,1,7
100,0.113747,1.254,1,7
101,0.115013,1.261,1,7
102,0.116272,1.262,1,7
103,0.117538,1.267,1,7
104,0.118813,1.27,1,7
105,0.120071,1.266,1,7
106,0.121338,1.265,1,7
107,0.122612,1.273,1,7
108,0.123886,1.283,1,7
109,0.125183,1.279,1,7
110,0.12645,1.277,1,7
111,0.127739,1.284,1,7
112,0.130302,1.284,1,7
113,0.131592,1.291,1,7
114,0.132896,1.3,1,7
115,0.134193,1.3,1,7
116,0.13549,1.293,1,7
117,0.136787,1.297,1,7
118,0.138092,1.306,1,7
119,0.139397,1.311,1,7
120,0.140717,1.31,1,7
121,0.142029,1.314,1,7
122,0.143341,1.314,1,7
123,0.144653,1.313,1,7
124,0.145973,1.319,1,7
125,0.147301,1.326,1,7
126,0.148621,1.326,1,7
127,0.149948,1.324,1,7
128,0.151283,1.329,1,7
129,0.152611,1.333,1,7
130,0.153938,1.329,1,7
131,0.155273,1.336,1,7
132,0.156616,1.345,1,7
133,0.157959,1.342,1,7
134,0.159302,1.34,1,7
135,0.160637,1.346,1,7
136,0.162003,1.354,1,7
137,0.163353,1.353,1,7
138,0.164711,1.355,1,7
139,0.166069,1.361,1,7
140,0.167427,1.358,1,7
141,0.168793,1.36,1,7
142,0.170158,1.373,1,7
143,0.171539,1.377,1,7
144,0.172913,1.37,1,7
145,0.174278,1.371,1,7
146,0.175659,1.378,1,7
147,0.17704,1.382,1,7
148,0.178421,1.383,1,7
149,0.17981,1.39,1,7
150,0.181198,1.39,1,7
151,0.182587,1.387,1,7
152,0.183983,1.392,1,7
153,0.185379,1.402,1,7
154,0.186783,1.401,1,7
155,0.188187,1.404,1,7
156,0.189598,1.412,1,7
157,0.19101,1.411,1,7
158,0.192421,1.408,1,7
159,0.19384,1.418,1,7
160,0.195259,1.424,1,7
161,0.196693,1.426,1,7
162,0.19812,1.431,1,7
163,0.199547,1.431,1,7
164,0.200966,1.428,1,7
165,0.202408,1.437,1,7
166,0.203857,1.449,1,7
167,0.205307,1.447,1,7
168,0.206749,1.443,1,7
169,0.208191,1.448,1,7
170,0.209663,1.457,1,7
171,0.211113,1.461,1,7
172,0.212578,1.464,1,7
173,0.214043,1.463,1,7
174,0.2155,1.463,1,7
175,0.21698,1.476,1,7
176,0.218468,1.486,1,7
177,0.219948,1.484,1,7
178,0.221428,1.481,1,7
179,0.222923,1.49,1,7
180,0.224419,1.495,1,7
181,0.225922,1.5,1,7
182,0.227417,1.506,1,7
183,0.228943,1.506,1,7
184,0.231956,1.514,1,7
185,0.233482,1.521,1,7
186,0.235001,1.527,1,7
187,0.236526,1.535,1,7
188,0.238068,1.53,1,7
189,0.239586,1.529,1,7
190,0.241142,1.538,1,7
191,0.242683,1.551,1,7
192,0.24424,1.555,1,7
193,0.245796,1.556,1,7
194,0.247353,1.554,1,7
195,0.248901,1.554,1,7
196,0.250481,1.573,1,7
197,0.25206,1.585,1,7
198,0.253639,1.578,1,7
199,0.255211,1.574,1,7
200,0.256798,1.581,1,7
201,0.258392,1.597,1,7
202,0.260002,1.607,1,7
203,0.261597,1.599,1,7
204,0.263191,1.589,1,7
205,0.264793,1.607,1,7
206,0.266418,1.624,1,7
207,0.268036,1.626,1,7
208,0.269661,1.618,1,7
209,0.271271,1.614,1,7
210,0.272903,1.628,1,7
211,0.274559,1.652,1,7
212,0.276207,1.651,1,7
213,0.277847,1.637,1,7
214,0.279488,1.64,1,7
215,0.281143,1.656,1,7
216,0.282806,1.676,1,7
217,0.286148,1.659,1,7
218,0.287819,1.662,1,7
219,0.289497,1.685,1,7
220,0.291199,1.698,1,7
221,0.292892,1.697,1,7
222,0.294579,1.683,1,7
223,0.296272,1.685,1,7
224,0.297966,1.708,1,7
225,0.301407,1.717,1,7
226,0.303116,1.704,1,7
227,0.304832,1.712,1,7
228,0.306557,1.737,1,7
229,0.308311,1.752,1,7
230,0.310043,1.731,1,7
231,0.311783,1.727,1,7
232,0.313522,1.744,1,7
233,0.315292,1.767,1,7
234,0.317047,1.768,1,7
235,0.318787,1.748,1,7
236,0.320541,1.747,1,7
237,0.322319,1.777,1,7
238,0.32412,1.793,1,7
239,0.325897,1.781,1,7
240,0.32766,1.766,1,7
241,0.329437,1.778,1,7
242,0.331253,1.813,1,7
243,0.333061,1.813,1,7
244,0.334862,1.795,1,7
245,0.336647,1.788,1,7
246,0.338463,1.817,1,7
247,0.340309,1.842,1,7
248,0.34214,1.831,1,7
249,0.343948,1.811,1,7
250,0.345772,1.822,1,7
251,0.347633,1.852,1,7
252,0.349487,1.864,1,7
253,0.351326,1.844,1,7
254,0.353172,1.838,1,7
255,0.355026,1.863,1,7
256,0.356911,1.881,1,7
257,0.358803,1.88,1,7
258,0.360657,1.871,1,7
259,0.362541,1.876,1,7
260,0.364441,1.896,1,7
261,0.366348,1.907,1,7
262,0.368248,1.905,1,7
263,0.372063,1.912,1,7
264,0.373993,1.925,1,7
265,0.375923,1.932,1,7
266,0.377861,1.941,1,7
267,0.379807,1.942,1,7
268,0.381737,1.943,1,7
269,0.383698,1.97,1,7
270,0.385666,1.97,1,7
271,0.38765,1.978,1,7
272,0.391602,1.978,1,7
273,0.3936,1.997,1,7
274,0.395607,2.012,1,7
275,0.397621,2.012,1,7
276,0.399643,2.011,1,7
277,0.401657,2.022,1,7
278,0.403687,2.037,1,7
279,0.405746,2.05,1,7
280,0.407799,2.053,1,7
281,0.409851,2.056,1,7
282,0.411919,2.069,1,7
283,0.414001,2.078,1,7
284,0.4161,2.096,1,7
285,0.418198,2.105,1,7
286,0.422417,2.111,1,7
287,0.424553,2.13,1,7
288,0.426697,2.151,1,7
289,0.428848,2.152,1,7
290,0.431,2.151,1,7
291,0.433167,2.165,1,7
292,0.435356,2.191,1,7
293,0.437553,2.199,1,7
294,0.439751,2.201,1,7
295,0.441963,2.206,1,7
296,0.444191,2.229,1,7
297,0.446426,2.246,1,7
298,0.448692,2.254,1,7
299,0.450943,2.254,1,7
300,0.453217,2.273,1,7
301,0.455513,2.293,1,7
302,0.457817,2.306,1,7
303,0.460129,2.311,1,7
304,0.462448,2.318,1,7
305,0.464783,2.337,1,7
306,0.46714,2.359,1,7
307,0.469513,2.365,1,7
308,0.471878,2.37,1,7
309,0.474266,2.39,1,7
310,0.476677,2.407,1,7
311,0.479103,2.42,1,7
312,0.481522,2.43,1,7
313,0.483971,2.446,1,7
314,0.486427,2.46,1,7
315,0.488907,2.477,1,7
316,0.491402,2.491,1,7
317,0.493896,2.502,1,7
318,0.496407,2.515,1,7
319,0.498947,2.533,1,7
320,0.501503,2.551,1,7
321,0.504066,2.567,1,7
322,0.506653,2.578,1,7
323,0.509232,2.59,1,7
324,0.511848,2.615,1,7
325,0.514481,2.63,1,7
326,0.51712,2.641,1,7
327,0.519783,2.654,1,7
328,0.522453,2.676,1,7
329,0.525146,2.693,1,7
330,0.527863,2.707,1,7
331,0.530571,2.721,1,7
332,0.53331,2.739,1,7
333,0.536057,2.755,1,7
334,0.538841,2.775,1,7
335,0.541626,2.788,1,7
336,0.544426,2.804,1,7
337,0.547256,2.841,1,7
338,0.550087,2.859,1,7
339,0.555817,2.869,1,7
340,0.558708,2.889,1,7
341,0.561623,2.909,1,7
342,0.564552,2.925,1,7
343,0.567482,2.941,1,7
344,0.57045,2.96,1,7
345,0.573418,2.975,1,7
346,0.576416,2.996,1,7
347,0.57943,3.013,1,7
348,0.582458,3.029,1,7
349,0.585503,3.046,1,7
350,0.58857,3.065,1,7
351,0.591652,3.084,1,7
352,0.594749,3.098,1,7
353,0.59787,3.117,1,7
354,0.601013,3.139,1,7
355,0.604156,3.151,1,7
356,0.607323,3.169,1,7
357,0.610512,3.188,1,7
358,0.613716,3.205,1,7
359,0.616943,3.225,1,7
360,0.620186,3.239,1,7
361,0.623436,3.259,1,7
362,0.626717,3.277,1,7
363,0.630013,3.296,1,7
364,0.633331,3.312,1,7
365,0.636658,3.329,1,7
366,0.639999,3.347,1,7
367,0.643372,3.367,1,7
368,0.646751,3.384,1,7
369,0.650146,3.402,1,7
370,0.653572,3.417,1,7
371,0.657013,3.436,1,7
372,0.660461,3.455,1,7
373,0.66394,3.487,1,7
374,0.670929,3.506,1,7
375,0.674461,3.527,1,7
376,0.678001,3.541,1,7
377,0.681557,3.56,1,7
378,0.685143,3.576,1,7
379,0.688728,3.592,1,7
380,0.692337,3.611,1,7
381,0.695969,3.631,1,7
382,0.699623,3.662,1,7
383,0.706963,3.674,1,7
384,0.710648,3.695,1,7
385,0.714363,3.712,1,7
386,0.718086,3.732,1,7
387,0.721832,3.74,1,7
388,0.725586,3.758,1,7
389,0.729362,3.777,1,7
390,0.733147,3.791,1,7
391,0.736961,3.807,1,7
392,0.740776,3.819,1,7
393,0.744606,3.836,1,7
394,0.748466,3.848,1,7
395,0.752327,3.865,1,7
396,0.75621,3.876,1,7
397,0.760101,3.891,1,7
398,0.764,3.9,1,7
399,0.767906,3.916,1,7
400,0.771843,3.93,1,7
401,0.775787,3.943,1,7
402,0.779739,3.954,1,7
403,0.783707,3.967,1,7
404,0.787689,3.979,1,7
405,0.791679,3.987,1,7
406,0.795677,4.004,1,7
407,0.79969,4.008,1,7
408,0.803711,4.025,1,7
409,0.807739,4.032,1,7
410,0.811783,4.042,1,7
411,0.815826,4.051,1,7
412,0.819893,4.059,1,7
413,0.823959,4.066,1,7
414,0.828041,4.079,1,7
415,0.83213,4.085,1,7
416,0.83622,4.092,1,7
417,0.840317,4.1,1,7
418,0.844421,4.106,1,7
419,0.848541,4.114,1,7
420,0.852661,4.123,1,7
421,0.856789,4.134,1,7
422,0.865067,4.142,1,7
423,0.869209,4.145,1,7
424,0.87336,4.151,1,7
425,0.877518,4.153,1,7
426,0.881683,4.16,1,7
427,0.885826,4.164,1,7
428,0.890007,4.168,1,7
429,0.894173,4.17,1,7
430,0.898346,4.177,1,7
431,0.906708,4.178,1,7
432,0.910889,4.177,1,7
433,0.91507,4.18,1,7
434,0.91925,4.187,1,7
435,0.923439,4.188,1,7
436,0.92762,4.184,1,7
437,0.931808,4.185,1,7
438,0.935997,4.186,1,7
439,0.940178,4.187,1,7
440,0.944366,4.184,1,7
441,0.948547,4.184,1,7
442,0.952728,4.182,1,7
443,0.956909,4.179,1,7
444,0.96109,4.178,1,7
445,0.965263,4.171,1,7
446,0.969429,4.17,1,7
447,0.973602,4.165,1,7
448,0.981918,4.16,1,7
449,0.986069,4.155,1,7
450,0.990219,4.145,1,7
451,0.994362,4.142,1,7
452,0.998497,4.141,1,7
453,1.00264,4.137,1,7
454,1.00676,4.125,1,7
455,1.01088,4.119,1,7
456,1.01499,4.114,1,7
457,1.0191,4.106,1,7
458,1.02319,4.097,1,7
459,1.02728,4.086,1,7
460,1.03136,4.081,1,7
461,1.03544,4.071,1,7
462,1.0395,4.064,1,7
463,1.04355,4.049,1,7
464,1.04759,4.04,1,7
465,1.05162,4.031,1,7
466,1.05564,4.021,1,7
467,1.05965,4.011,1,7
468,1.06364,3.995,1,7
469,1.06763,3.989,1,7
470,1.07162,3.978,1,7
471,1.07558,3.962,1,7
472,1.07953,3.952,1,7
473,1.08347,3.937,1,7
474,1.0874,3.928,1,7
475,1.09131,3.917,1,7
476,1.09521,3.902,1,7
477,1.0991,3.887,1,7
478,1.10297,3.873,1,7
479,1.10683,3.862,1,7
480,1.11068,3.846,1,7
481,1.11451,3.829,1,7
482,1.11832,3.816,1,7
483,1.12212,3.802,1,7
484,1.12592,3.792,1,7
485,1.12969,3.772,1,7
486,1.13345,3.755,1,7
487,1.13719,3.74,1,7
488,1.14092,3.728,1,7
489,1.14832,3.696,1,7
490,1.152,3.679,1,7
491,1.15567,3.666,1,7
492,1.15932,3.649,1,7
493,1.16295,3.632,1,7
494,1.16657,3.614,1,7
495,1.17017,3.597,1,7
496,1.17374,3.582,1,7
497,1.17731,3.565,1,7
498,1.18086,3.549,1,7
499,1.18439,3.528,1,7
500,1.1879,3.511,1,7
501,1.19139,3.499,1,7
502,1.19488,3.479,1,7
503,1.19833,3.462,1,7
504,1.20178,3.445,1,7
505,1.20521,3.427,1,7
506,1.20862,3.41,1,7
507,1.21201,3.396,1,7
508,1.21539,3.377,1,7
509,1.21875,3.356,1,7
510,1.22209,3.342,1,7
511,1.22541,3.322,1,7
512,1.22871,3.308,1,7
513,1.232,3.287,1,7
514,1.23528,3.27,1,7
515,1.23853,3.252,1,7
516,1.24176,3.232,1,7
517,1.24498,3.219,1,7
518,1.24818,3.199,1,7
519,1.25136,3.18,1,7
520,1.25452,3.161,1,7
521,1.25767,3.147,1,7
522,1.2608,3.112,1,7
523,1.267,3.092,1,7
524,1.267,3.076,1,7
525,1.27313,3.057,1,7
526,1.27618,3.044,1,7
527,1.2792,3.025,1,7
528,1.2822,3.005,1,7
529,1.28519,2.99,1,7
530,1.28817,2.975,1,7
531,1.29407,2.941,1,7
532,1.29699,2.919,1,7
533,1.2999,2.908,1,7
534,1.30279,2.892,1,7
535,1.30566,2.877,1,7
536,1.30852,2.856,1,7
537,1.31136,2.838,1,7
538,1.31419,2.827,1,7
539,1.31699,2.813,1,7
540,1.31979,2.791,1,7
541,1.32256,2.778,1,7
542,1.32533,2.766,1,7
543,1.32808,2.746,1,7
544,1.33082,2.737,1,7
545,1.33353,2.719,1,7
546,1.33624,2.704,1,7
547,1.33893,2.69,1,7
548,1.34161,2.68,1,7
549,1.34427,2.664,1,7
550,1.34692,2.648,1,7
551,1.34956,2.641,1,7
552,1.35219,2.626,1,7
553,1.35481,2.617,1,7
554,1.3574,2.597,1,7
555,1.35999,2.591,1,7
556,1.36258,2.584,1,7
557,1.36514,2.566,1,7
558,1.3677,2.557,1,7
559,1.37025,2.554,1,7
560,1.3728,2.541,1,7
561,1.37532,2.526,1,7
562,1.37785,2.524,1,7
563,1.38036,2.518,1,7
564,1.38287,2.506,1,7
565,1.38537,2.498,1,7
566,1.38786,2.496,1,7
567,1.39035,2.488,1,7
568,1.39284,2.482,1,7
569,1.39531,2.477,1,7
570,1.39778,2.473,1,7
571,1.40025,2.47,1,7
572,1.40271,2.463,1,7
573,1.40517,2.459,1,7
574,1.40764,2.463,1,7
575,1.4101,2.462,1,7
576,1.41255,2.454,1,7
577,1.41501,2.455,1,7
578,1.41747,2.46,1,7
579,1.42238,2.454,1,7
580,1.42484,2.46,1,7
581,1.4273,2.461,1,7
582,1.42976,2.465,1,7
583,1.43224,2.469,1,7
584,1.43471,2.471,1,7
585,1.43718,2.474,1,7
586,1.43966,2.481,1,7
587,1.44215,2.484,1,7
588,1.44463,2.49,1,7
589,1.44714,2.504,1,7
590,1.45214,2.507,1,7
591,1.45467,2.519,1,7
592,1.45719,2.529,1,7
593,1.45972,2.533,1,7
594,1.46227,2.542,1,7
595,1.46482,2.556,1,7
596,1.46738,2.562,1,7
597,1.46996,2.572,1,7
598,1.47254,2.587,1,7
599,1.47514,2.598,1,7
600,1.47775,2.62,1,7
601,1.48037,2.635,1,7
602,1.48301,2.649,1,7
603,1.48831,2.661,1,7
604,1.49099,2.673,1,7
605,1.49368,2.694,1,7
606,1.49639,2.709,1,7
607,1.49912,2.72,1,7
608,1.50185,2.739,1,7
609,1.50461,2.759,1,7
610,1.50738,2.771,1,7
611,1.51018,2.794,1,7
612,1.51299,2.81,1,7
613,1.51581,2.826,1,7
614,1.51865,2.846,1,7
615,1.52152,2.868,1,7
616,1.52441,2.886,1,7
617,1.52731,2.904,1,7
618,1.53024,2.926,1,7
619,1.53319,2.948,1,7
620,1.53615,2.966,1,7
621,1.53914,2.986,1,7
622,1.54215,3.012,1,7
623,1.54518,3.031,1,7
624,1.54824,3.057,1,7
625,1.55132,3.079,1,7
626,1.55442,3.1,1,7
627,1.55755,3.125,1,7
628,1.56069,3.15,1,7
629,1.56387,3.171,1,7
630,1.56706,3.197,1,7
631,1.57028,3.221,1,7
632,1.57353,3.246,1,7
633,1.5768,3.272,1,7
634,1.58009,3.296,1,7
635,1.58342,3.319,1,7
636,1.58676,3.345,1,7
637,1.59013,3.374,1,7
638,1.59353,3.391,1,7
639,1.59695,3.42,1,7
640,1.6004,3.444,1,7
641,1.60387,3.473,1,7
642,1.60736,3.496,1,7
643,1.61088,3.518,1,7
644,1.61442,3.543,1,7
645,1.618,3.572,1,7
646,1.62159,3.599,1,7
647,1.62886,3.644,1,7
648,1.63253,3.669,1,7
649,1.63622,3.7,1,7
650,1.63995,3.725,1,7
651,1.64369,3.745,1,7
652,1.64747,3.769,1,7
653,1.65126,3.797,1,7
654,1.65508,3.823,1,7
655,1.65893,3.844,1,7
656,1.6628,3.866,1,7
657,1.66669,3.891,1,7
658,1.6706,3.917,1,7
659,1.67455,3.941,1,7
660,1.67851,3.959,1,7
661,1.68249,3.985,1,7
662,1.68649,4.009,1,7
663,1.69053,4.035,1,7
664,1.69458,4.053,1,7
665,1.69865,4.073,1,7
666,1.70276,4.101,1,7
667,1.70688,4.126,1,7
668,1.71103,4.146,1,7
669,1.7152,4.163,1,7
670,1.71938,4.19,1,7
671,1.7236,4.211,1,7
672,1.72783,4.236,1,7
673,1.73209,4.256,1,7
674,1.73636,4.277,1,7
675,1.74066,4.298,1,7
676,1.74499,4.325,1,7
677,1.74933,4.341,1,7
678,1.75369,4.36,1,7
679,1.75806,4.378,1,7
680,1.76247,4.403,1,7
681,1.76689,4.428,1,7
682,1.77135,4.451,1,7
683,1.7803,4.487,1,7
684,1.78481,4.511,1,7
685,1.78935,4.536,1,7
686,1.79391,4.561,1,7
687,1.79849,4.58,1,7
688,1.80309,4.623,1,7
689,1.81236,4.648,1,7
690,1.81703,4.67,1,7
691,1.82173,4.696,1,7
692,1.82645,4.719,1,7
693,1.83118,4.741,1,7
694,1.83595,4.764,1,7
695,1.84074,4.786,1,7
696,1.84555,4.812,1,7
697,1.85039,4.84,1,7
698,1.85526,4.862,1,7
699,1.86014,4.889,1,7
700,1.86505,4.911,1,7
701,1.86998,4.93,1,7
702,1.87494,4.958,1,7
703,1.87993,4.984,1,7
704,1.88493,5.01,1,7
705,1.88996,5.028,1,7
706,1.895,5.047,1,7
707,1.90008,5.071,1,7
708,1.90518,5.099,1,7
709,1.9103,5.124,1,7
710,1.91545,5.145,1,7
711,1.92062,5.164,1,7
712,1.9258,5.187,1,7
713,1.93101,5.21,1,7
714,1.93624,5.234,1,7
715,1.94151,5.258,1,7
716,1.94678,5.277,1,7
717,1.95207,5.294,1,7
718,1.95739,5.315,1,7
719,1.96272,5.339,1,7
720,1.96809,5.358,1,7
721,1.97346,5.375,1,7
722,1.97886,5.398,1,7
723,1.98428,5.417,1,7
724,1.98971,5.436,1,7
725,1.99516,5.455,1,7
726,2.00064,5.475,1,7
727,2.00613,5.494,1,7
728,2.01164,5.507,1,7
729,2.01717,5.524,1,7
730,2.02271,5.543,1,7
731,2.02827,5.561,1,7
732,2.03384,5.577,1,7
733,2.03944,5.591,1,7
734,2.04504,5.601,1,7
735,2.05631,5.642,1,7
736,2.06196,5.654,1,7
737,2.06761,5.66,1,7
738,2.07329,5.674,1,7
739,2.07899,5.693,1,7
740,2.08469,5.707,1,7
741,2.09041,5.716,1,7
742,2.09612,5.716,1,7
743,2.10185,5.729,1,7
744,2.11336,5.762,1,7
745,2.11913,5.766,1,7
746,2.12489,5.76,1,7
747,2.13065,5.768,1,7
748,2.13644,5.786,1,7
749,2.14224,5.796,1,7
750,2.14803,5.793,1,7
751,2.15382,5.79,1,7
752,2.15961,5.794,1,7
753,2.16542,5.81,1,7
754,2.17124,5.817,1,7
755,2.17705,5.811,1,7
756,2.18285,5.802,1,7
757,2.18866,5.812,1,7
758,2.19449,5.826,1,7
759,2.20032,5.827,1,7
760,2.20612,5.811,1,7
761,2.21194,5.816,1,7
762,2.21775,5.821,1,7
763,2.22939,5.812,1,7
764,2.23518,5.799,1,7
765,2.24097,5.793,1,7
766,2.24677,5.796,1,7
767,2.25256,5.794,1,7
768,2.25835,5.778,1,7
769,2.26411,5.766,1,7
770,2.26987,5.764,1,7
771,2.27564,5.761,1,7
772,2.28139,5.749,1,7
773,2.28712,5.735,1,7
774,2.29284,5.721,1,7
775,2.29856,5.718,1,7
776,2.30427,5.706,1,7
777,2.30996,5.693,1,7
778,2.31564,5.676,1,7
779,2.3213,5.662,1,7
780,2.32695,5.655,1,7
781,2.3326,5.644,1,7
782,2.33822,5.626,1,7
783,2.34383,5.609,1,7
784,2.34943,5.595,1,7
785,2.355,5.578,1,7
786,2.36057,5.564,1,7
787,2.36611,5.546,1,7
788,2.37164,5.529,1,7
789,2.37715,5.508,1,7
790,2.38264,5.489,1,7
791,2.38811,5.468,1,7
792,2.39356,5.455,1,7
793,2.39899,5.431,1,7
794,2.4044,5.411,1,7
795,2.40979,5.387,1,7
796,2.41515,5.366,1,7
797,2.42051,5.352,1,7
798,2.42584,5.334,1,7
799,2.43115,5.305,1,7
800,2.43642,5.276,1,7
801,2.44168,5.24,1,7
802,2.45215,5.219,1,7
803,2.45734,5.192,1,7
804,2.4625,5.162,1,7
805,2.46764,5.142,1,7
806,2.47276,5.123,1,7
807,2.47787,5.099,1,7
808,2.48293,5.073,1,7
809,2.48798,5.044,1,7
810,2.493,5.02,1,7
811,2.49799,4.997,1,7
812,2.50297,4.974,1,7
813,2.50792,4.949,1,7
814,2.51284,4.92,1,7
815,2.51773,4.89,1,7
816,2.5226,4.866,1,7
817,2.52744,4.843,1,7
818,2.53226,4.815,1,7
819,2.53704,4.788,1,7
820,2.5418,4.761,1,7
821,2.54654,4.735,1,7
822,2.55125,4.708,1,7
823,2.55593,4.683,1,7
824,2.56059,4.656,1,7
825,2.56522,4.631,1,7
826,2.56982,4.602,1,7
827,2.57439,4.575,1,7
828,2.57894,4.546,1,7
829,2.58346,4.52,1,7
830,2.58796,4.496,1,7
831,2.59242,4.467,1,7
832,2.59686,4.439,1,7
833,2.60565,4.385,1,7
834,2.61001,4.355,1,7
835,2.61434,4.331,1,7
836,2.61865,4.303,1,7
837,2.62292,4.274,1,7
838,2.62717,4.249,1,7
839,2.63139,4.22,1,7
840,2.63558,4.193,1,7
841,2.63975,4.166,1,7
842,2.64388,4.112,1,7
843,2.65208,4.086,1,7
844,2.65614,4.056,1,7
845,2.66016,4.03,1,7
846,2.66418,4.008,1,7
847,2.66816,3.978,1,7
848,2.6721,3.953,1,7
849,2.67604,3.93,1,7
850,2.67994,3.902,1,7
851,2.68382,3.879,1,7
852,2.68768,3.855,1,7
853,2.69151,3.834,1,7
854,2.69531,3.806,1,7
855,2.6991,3.787,1,7
856,2.70287,3.765,1,7
857,2.70661,3.745,1,7
858,2.71033,3.72,1,7
859,2.71403,3.699,1,7
860,2.71771,3.68,1,7
861,2.72137,3.66,1,7
862,-142.04,3.643,1,7
863,-142.036,3.622,1,7
864,-142.032,3.602,1,7
865,-142.029,3.586,1,7
866,-142.025,3.573,1,7
867,-142.022,3.554,1,7
868,-142.018,3.539,1,7
869,-142.015,3.524,1,7
870,-142.011,3.511,1,7
871,-142.008,3.501,1,7
872,-142.004,3.489,1,7
873,-142.001,3.472,1,7
874,-141.997,3.469,1,7
875,-141.994,3.454,1,7
876,-141.99,3.452,1,7
877,-141.987,3.439,1,7
878,-141.983,3.433,1,7
879,-141.98,3.429,1,7
880,-141.977,3.424,1,7
881,-141.973,3.417,1,7
882,-141.97,3.413,1,7
883,-141.966,3.414,1,7
884,-141.963,3.411,1,7
885,-141.959,3.41,1,7
886,-141.953,3.408,1,7
887,-141.949,3.411,1,7
888,-141.946,3.417,1,7
889,-141.942,3.419,1,7
890,-141.939,3.423,1,7
891,-141.936,3.424,1,7
892,-141.932,3.434,1,7
893,-141.929,3.441,1,7
894,-141.925,3.448,1,7
895,-141.922,3.46,1,7
