cnt,pos,speed,Dir,Force,
1,0,1.008,1,8
2,0.000999451,1.009,1,8
3,0.00198364,0.984,1,8
4,0.00296783,0.979,1,8
5,0.00396729,1.003,1,8
6,0.00498962,1.025,1,8
7,0.00601959,1.016,1,8
8,0.00699615,0.989,1,8
9,0.00798798,0.986,1,8
10,0.00900269,1.019,1,8
11,0.0100327,1.037,1,8
12,0.0110626,1.021,1,8
13,0.0120544,0.993,1,8
14,0.0130539,0.999,1,8
15,0.0140839,1.031,1,8
16,0.0151291,1.048,1,8
17,0.0161591,1.021,1,8
18,0.0171432,0.995,1,8
19,0.018158,1.013,1,8
20,0.0192032,1.051,1,8
21,0.0202637,1.053,1,8
22,0.021286,1.019,1,8
23,0.0222855,1.002,1,8
24,0.0233154,1.03,1,8
25,0.0243835,1.066,1,8
26,0.0254364,1.057,1,8
27,0.0264587,1.017,1,8
28,0.0274734,1.015,1,8
29,0.0285263,1.054,1,8
30,0.0296097,1.081,1,8
31,0.0306549,1.051,1,8
32,0.0316696,1.016,1,8
33,0.0327072,1.031,1,8
34,0.0337753,1.077,1,8
35,0.0348663,1.089,1,8
36,0.0359192,1.047,1,8
37,0.0369339,1.021,1,8
38,0.0379868,1.051,1,8
39,0.0390778,1.089,1,8
40,0.0401535,1.081,1,8
41,0.0411987,1.034,1,8
42,0.0433197,1.075,1,8
43,0.0444031,1.101,1,8
44,0.0454865,1.073,1,8
45,0.0465164,1.036,1,8
46,0.0475693,1.051,1,8
47,0.0486526,1.092,1,8
48,0.0497589,1.1,1,8
49,0.050827,1.066,1,8
50,0.0518799,1.052,1,8
51,0.0529556,1.077,1,8
52,0.0540695,1.104,1,8
53,0.0551453,1.089,1,8
54,0.0562134,1.065,1,8
55,0.0572891,1.072,1,8
56,0.0583878,1.101,1,8
57,0.059494,1.108,1,8
58,0.0605774,1.085,1,8
59,0.0616531,1.075,1,8
60,0.0627594,1.093,1,8
61,0.063858,1.109,1,8
62,0.0649567,1.101,1,8
63,0.0660477,1.09,1,8
64,0.0671463,1.097,1,8
65,0.0682602,1.108,1,8
66,0.0693588,1.106,1,8
67,0.0704575,1.099,1,8
68,0.0715637,1.104,1,8
69,0.0726776,1.112,1,8
70,0.0737839,1.109,1,8
71,0.0748901,1.106,1,8
72,0.076004,1.113,1,8
73,0.0771179,1.12,1,8
74,0.0782394,1.114,1,8
75,0.0793381,1.107,1,8
76,0.0804596,1.117,1,8
77,0.0815964,1.134,1,8
78,0.0827255,1.131,1,8
79,0.0838394,1.112,1,8
80,0.0849533,1.114,1,8
81,0.0860901,1.136,1,8
82,0.0872345,1.144,1,8
83,0.088356,1.127,1,8
84,0.0894775,1.12,1,8
85,0.0906143,1.14,1,8
86,0.091774,1.153,1,8
87,0.0929031,1.139,1,8
88,0.0940399,1.124,1,8
89,0.0951691,1.137,1,8
90,0.0963287,1.156,1,8
91,0.0974731,1.152,1,8
92,0.0986099,1.136,1,8
93,0.0997543,1.138,1,8
94,0.100906,1.154,1,8
95,0.102058,1.156,1,8
96,0.103203,1.143,1,8
97,0.104355,1.159,1,8
98,0.106667,1.16,1,8
99,0.107819,1.151,1,8
100,0.108963,1.153,1,8
101,0.110138,1.163,1,8
102,0.111305,1.164,1,8
103,0.112457,1.159,1,8
104,0.113625,1.163,1,8
105,0.114799,1.173,1,8
106,0.115959,1.168,1,8
107,0.117119,1.16,1,8
108,0.118294,1.167,1,8
109,0.119476,1.183,1,8
110,0.120644,1.177,1,8
111,0.122986,1.169,1,8
112,0.124168,1.184,1,8
113,0.125343,1.179,1,8
114,0.126503,1.168,1,8
115,0.127686,1.172,1,8
116,0.128876,1.188,1,8
117,0.130058,1.171,1,8
118,0.132393,1.17,1,8
119,0.133583,1.186,1,8
120,0.134773,1.191,1,8
121,0.135956,1.178,1,8
122,0.137138,1.179,1,8
123,0.139519,1.193,1,8
124,0.139519,1.182,1,8
125,0.140694,1.181,1,8
126,0.141884,1.181,1,8
127,0.143074,1.194,1,8
128,0.144279,1.197,1,8
129,0.14547,1.188,1,8
130,0.14666,1.188,1,8
131,0.14785,1.197,1,8
132,0.149033,1.194,1,8
133,0.150223,1.186,1,8
134,0.151413,1.192,1,8
135,0.152618,1.204,1,8
136,0.153816,1.198,1,8
137,0.154999,1.185,1,8
138,0.156189,1.19,1,8
139,0.157394,1.203,1,8
140,0.1586,1.201,1,8
141,0.15979,1.19,1,8
142,0.160973,1.193,1,8
143,0.162186,1.206,1,8
144,0.163383,1.2,1,8
145,0.164574,1.189,1,8
146,0.165779,1.198,1,8
147,0.166985,1.209,1,8
148,0.16819,1.206,1,8
149,0.169388,1.195,1,8
150,0.170586,1.201,1,8
151,0.171783,1.209,1,8
152,0.173004,1.205,1,8
153,0.17421,1.199,1,8
154,0.175407,1.208,1,8
155,0.176628,1.216,1,8
156,0.177826,1.204,1,8
157,0.179024,1.2,1,8
158,0.180237,1.207,1,8
159,0.18145,1.214,1,8
160,0.182655,1.207,1,8
161,0.183853,1.213,1,8
162,0.186287,1.217,1,8
163,0.1875,1.202,1,8
164,0.18869,1.202,1,8
165,0.189903,1.213,1,8
166,0.191124,1.218,1,8
167,0.192337,1.21,1,8
168,0.193535,1.207,1,8
169,0.194756,1.217,1,8
170,0.195969,1.216,1,8
171,0.197189,1.206,1,8
172,0.198387,1.21,1,8
173,0.199615,1.223,1,8
174,0.200836,1.221,1,8
175,0.202049,1.209,1,8
176,0.203255,1.211,1,8
177,0.204475,1.222,1,8
178,0.205688,1.218,1,8
179,0.206909,1.212,1,8
180,0.20813,1.215,1,8
181,0.209343,1.224,1,8
182,0.210564,1.218,1,8
183,0.211769,1.206,1,8
184,0.21299,1.215,1,8
185,0.214203,1.225,1,8
186,0.215424,1.218,1,8
187,0.216644,1.213,1,8
188,0.21785,1.213,1,8
189,0.219063,1.224,1,8
190,0.220284,1.213,1,8
191,0.221497,1.211,1,8
192,0.222725,1.226,1,8
193,0.225166,1.215,1,8
194,0.226379,1.211,1,8
195,0.2276,1.223,1,8
196,0.228828,1.227,1,8
197,0.230049,1.217,1,8
198,0.23127,1.216,1,8
199,0.232483,1.227,1,8
200,0.233719,1.228,1,8
201,0.23494,1.214,1,8
202,0.236145,1.214,1,8
203,0.237373,1.227,1,8
204,0.238594,1.225,1,8
205,0.239815,1.217,1,8
206,0.241035,1.218,1,8
207,0.242256,1.227,1,8
208,0.243477,1.219,1,8
209,0.24469,1.211,1,8
210,0.247139,1.228,1,8
211,0.248367,1.224,1,8
212,0.249573,1.212,1,8
213,0.250793,1.218,1,8
214,0.252029,1.228,1,8
215,0.25325,1.222,1,8
216,0.254463,1.217,1,8
217,0.255684,1.223,1,8
218,0.25692,1.23,1,8
219,0.258133,1.218,1,8
220,0.260567,1.225,1,8
221,0.261795,1.23,1,8
222,0.263016,1.22,1,8
223,0.264236,1.215,1,8
224,0.265465,1.226,1,8
225,0.266685,1.222,1,8
226,0.267883,1.212,1,8
227,0.269119,1.217,1,8
228,0.27034,1.225,1,8
229,0.271553,1.225,1,8
230,0.272774,1.211,1,8
231,0.273979,1.211,1,8
232,0.2752,1.221,1,8
233,0.276413,1.219,1,8
234,0.277634,1.212,1,8
235,0.278854,1.218,1,8
236,0.280083,1.227,1,8
237,0.281296,1.216,1,8
238,0.282494,1.206,1,8
239,0.28373,1.216,1,8
240,0.284943,1.223,1,8
241,0.286163,1.22,1,8
242,0.287376,1.211,1,8
243,0.288589,1.218,1,8
244,0.289818,1.222,1,8
245,0.291023,1.207,1,8
246,0.292229,1.209,1,8
247,0.293449,1.218,1,8
248,0.29467,1.223,1,8
249,0.295883,1.21,1,8
250,0.297073,1.201,1,8
251,0.298294,1.214,1,8
252,0.299515,1.218,1,8
253,0.300713,1.207,1,8
254,0.301926,1.205,1,8
255,0.303139,1.214,1,8
256,0.304359,1.213,1,8
257,0.305557,1.203,1,8
258,0.306755,1.2,1,8
259,0.307976,1.219,1,8
260,0.309189,1.215,1,8
261,0.310394,1.202,1,8
262,0.3116,1.203,1,8
263,0.312813,1.215,1,8
264,0.314018,1.209,1,8
265,0.315224,1.202,1,8
266,0.316429,1.204,1,8
267,0.31765,1.22,1,8
268,0.318848,1.208,1,8
269,0.320045,1.196,1,8
270,0.322464,1.214,1,8
271,0.323669,1.206,1,8
272,0.324867,1.196,1,8
273,0.326073,1.204,1,8
274,0.327278,1.212,1,8
275,0.328484,1.202,1,8
276,0.329674,1.188,1,8
277,0.330879,1.202,1,8
278,0.332085,1.212,1,8
279,0.33329,1.201,1,8
280,0.334473,1.194,1,8
281,0.335678,1.202,1,8
282,0.336884,1.209,1,8
283,0.338089,1.199,1,8
284,0.339287,1.193,1,8
285,0.3405,1.206,1,8
286,0.341705,1.213,1,8
287,0.342903,1.2,1,8
288,0.344093,1.193,1,8
289,0.345299,1.206,1,8
290,0.346519,1.21,1,8
291,0.34771,1.201,1,8
292,0.348907,1.197,1,8
293,0.350113,1.205,1,8
294,0.351326,1.212,1,8
295,0.352524,1.198,1,8
296,0.353729,1.195,1,8
297,0.354927,1.209,1,8
298,0.35614,1.212,1,8
299,0.357346,1.202,1,8
300,0.358543,1.201,1,8
301,0.359749,1.209,1,8
302,0.36097,1.209,1,8
303,0.362167,1.203,1,8
304,0.363373,1.204,1,8
305,0.364586,1.22,1,8
306,0.365807,1.215,1,8
307,0.367004,1.203,1,8
308,0.368217,1.208,1,8
309,0.369438,1.222,1,8
310,0.37188,1.21,1,8
311,0.373085,1.217,1,8
312,0.374313,1.23,1,8
313,0.375534,1.219,1,8
314,0.376747,1.214,1,8
315,0.377968,1.223,1,8
316,0.379204,1.233,1,8
317,0.38044,1.227,1,8
318,0.381653,1.221,1,8
319,0.382874,1.232,1,8
320,0.384125,1.237,1,8
321,0.386574,1.225,1,8
322,0.387817,1.242,1,8
323,0.389053,1.244,1,8
324,0.390297,1.238,1,8
325,0.391533,1.234,1,8
326,0.392784,1.251,1,8
327,0.394035,1.251,1,8
328,0.395287,1.247,1,8
329,0.39653,1.249,1,8
330,0.397797,1.259,1,8
331,0.400307,1.254,1,8
332,0.401573,1.263,1,8
333,0.402847,1.276,1,8
334,0.404129,1.27,1,8
335,0.405373,1.266,1,8
336,0.40667,1.277,1,8
337,0.407944,1.283,1,8
338,0.409218,1.274,1,8
339,0.4105,1.293,1,8
340,0.411797,1.293,1,8
341,0.413086,1.294,1,8
342,0.414375,1.287,1,8
343,0.41568,1.292,1,8
344,0.416969,1.304,1,8
345,0.418274,1.304,1,8
346,0.419579,1.306,1,8
347,0.420883,1.314,1,8
348,0.422203,1.319,1,8
349,0.423523,1.313,1,8
350,0.424843,1.322,1,8
351,0.426178,1.332,1,8
352,0.427513,1.333,1,8
353,0.428848,1.329,1,8
354,0.430183,1.341,1,8
355,0.431534,1.349,1,8
356,0.432877,1.342,1,8
357,0.434227,1.348,1,8
358,0.435585,1.361,1,8
359,0.436943,1.361,1,8
360,0.438293,1.359,1,8
361,0.439674,1.368,1,8
362,0.441048,1.374,1,8
363,0.442413,1.374,1,8
364,0.44381,1.381,1,8
365,0.445183,1.39,1,8
366,0.446579,1.387,1,8
367,0.447968,1.39,1,8
368,0.449364,1.403,1,8
369,0.450775,1.41,1,8
370,0.452187,1.405,1,8
371,0.453598,1.413,1,8
372,0.455017,1.423,1,8
373,0.456444,1.421,1,8
374,0.457863,1.426,1,8
375,0.459305,1.44,1,8
376,0.460747,1.442,1,8
377,0.462189,1.437,1,8
378,0.463623,1.452,1,8
379,0.466545,1.457,1,8
380,0.46801,1.465,1,8
381,0.469475,1.468,1,8
382,0.47094,1.463,1,8
383,0.47242,1.472,1,8
384,0.4739,1.484,1,8
385,0.47538,1.487,1,8
386,0.476868,1.487,1,8
387,0.478363,1.498,1,8
388,0.479858,1.493,1,8
389,0.481354,1.499,1,8
390,0.48288,1.515,1,8
391,0.484383,1.517,1,8
392,0.485909,1.515,1,8
393,0.487427,1.521,1,8
394,0.488953,1.524,1,8
395,0.490479,1.53,1,8
396,0.49202,1.541,1,8
397,0.493553,1.54,1,8
398,0.495094,1.535,1,8
399,0.496643,1.549,1,8
400,0.498199,1.554,1,8
401,0.499756,1.555,1,8
402,0.50132,1.562,1,8
403,0.502876,1.558,1,8
404,0.504433,1.563,1,8
405,0.50602,1.58,1,8
406,0.507599,1.582,1,8
407,0.509163,1.575,1,8
408,0.51075,1.581,1,8
409,0.512344,1.598,1,8
410,0.515549,1.605,1,8
411,0.517143,1.597,1,8
412,0.518745,1.596,1,8
413,0.520355,1.612,1,8
414,0.521973,1.621,1,8
415,0.52359,1.617,1,8
416,0.525208,1.616,1,8
417,0.526825,1.617,1,8
418,0.52845,1.63,1,8
419,0.530098,1.642,1,8
420,0.531723,1.636,1,8
421,0.533363,1.632,1,8
422,0.535004,1.644,1,8
423,0.536659,1.653,1,8
424,0.53833,1.659,1,8
425,0.539978,1.656,1,8
426,0.543297,1.666,1,8
427,0.544975,1.678,1,8
428,0.546646,1.676,1,8
429,0.548325,1.673,1,8
430,0.549995,1.674,1,8
431,0.553375,1.699,1,8
432,0.553375,1.697,1,8
433,0.556763,1.689,1,8
434,0.560165,1.707,1,8
435,0.56189,1.721,1,8
436,0.563606,1.72,1,8
437,0.565315,1.709,1,8
438,0.567039,1.719,1,8
439,0.568764,1.738,1,8
440,0.570503,1.745,1,8
441,0.572258,1.744,1,8
442,0.57399,1.732,1,8
443,0.575737,1.746,1,8
444,0.577507,1.772,1,8
445,0.579277,1.769,1,8
446,0.581039,1.759,1,8
447,0.582809,1.766,1,8
448,0.584587,1.784,1,8
449,0.586388,1.803,1,8
450,0.588173,1.791,1,8
451,0.589966,1.787,1,8
452,0.591789,1.809,1,8
453,0.593605,1.829,1,8
454,0.595436,1.831,1,8
455,0.59726,1.818,1,8
456,0.599083,1.829,1,8
457,0.600945,1.861,1,8
458,0.602814,1.872,1,8
459,0.604675,1.856,1,8
460,0.606537,1.857,1,8
461,0.608414,1.88,1,8
462,0.610329,1.916,1,8
463,0.612236,1.908,1,8
464,0.614128,1.892,1,8
465,0.616035,1.905,1,8
466,0.617973,1.945,1,8
467,0.619949,1.967,1,8
468,0.621895,1.947,1,8
469,0.623833,1.944,1,8
470,0.625809,1.976,1,8
471,0.627823,2.009,1,8
472,0.629837,2.014,1,8
473,0.631836,1.998,1,8
474,0.63385,2.014,1,8
475,0.635895,2.045,1,8
476,0.63797,2.067,1,8
477,0.64003,2.065,1,8
478,0.64209,2.067,1,8
479,0.644173,2.088,1,8
480,0.646294,2.116,1,8
481,0.64843,2.135,1,8
482,0.650558,2.132,1,8
483,0.65271,2.139,1,8
484,0.654869,2.164,1,8
485,0.657066,2.2,1,8
486,0.659264,2.208,1,8
487,0.661476,2.201,1,8
488,0.663696,2.217,1,8
489,0.665947,2.256,1,8
490,0.668228,2.281,1,8
491,0.670509,2.277,1,8
492,0.672783,2.283,1,8
493,0.675095,2.309,1,8
494,0.677444,2.348,1,8
495,0.67981,2.356,1,8
496,0.682167,2.363,1,8
497,0.68454,2.371,1,8
498,0.686943,2.41,1,8
499,0.689384,2.439,1,8
500,0.691826,2.442,1,8
501,0.694267,2.44,1,8
502,0.696739,2.473,1,8
503,0.699249,2.51,1,8
504,0.701775,2.522,1,8
505,0.7043,2.524,1,8
506,0.706833,2.546,1,8
507,0.709419,2.579,1,8
508,0.712013,2.6,1,8
509,0.714638,2.614,1,8
510,0.717255,2.622,1,8
511,0.71991,2.647,1,8
512,0.72258,2.68,1,8
513,0.725273,2.698,1,8
514,0.727989,2.721,1,8
515,0.733459,2.754,1,8
516,0.736244,2.784,1,8
517,0.739037,2.795,1,8
518,0.741837,2.802,1,8
519,0.744667,2.83,1,8
520,0.747536,2.863,1,8
521,0.75042,2.878,1,8
522,0.753304,2.893,1,8
523,0.756218,2.909,1,8
524,0.759148,2.934,1,8
525,0.762115,2.966,1,8
526,0.765083,2.978,1,8
527,0.768089,2.989,1,8
528,0.771095,3.015,1,8
529,0.774139,3.043,1,8
530,0.777199,3.063,1,8
531,0.780273,3.075,1,8
532,0.783363,3.09,1,8
533,0.786499,3.122,1,8
534,0.789635,3.143,1,8
535,0.792793,3.162,1,8
536,0.795959,3.172,1,8
537,0.799164,3.194,1,8
538,0.802383,3.225,1,8
539,0.805626,3.245,1,8
540,0.808884,3.256,1,8
541,0.812157,3.272,1,8
542,0.815453,3.301,1,8
543,0.818787,3.326,1,8
544,0.822128,3.34,1,8
545,0.82547,3.35,1,8
546,0.82885,3.374,1,8
547,0.83226,3.401,1,8
548,0.835663,3.421,1,8
549,0.839104,3.429,1,8
550,0.84256,3.45,1,8
551,0.846024,3.472,1,8
552,0.849518,3.499,1,8
553,0.853027,3.507,1,8
554,0.85656,3.519,1,8
555,0.8601,3.545,1,8
556,0.863663,3.57,1,8
557,0.867249,3.585,1,8
558,0.87085,3.596,1,8
559,0.874443,3.612,1,8
560,0.87809,3.634,1,8
561,0.881744,3.657,1,8
562,0.885414,3.669,1,8
563,0.889099,3.68,1,8
564,0.892799,3.697,1,8
565,0.896515,3.723,1,8
566,0.900246,3.736,1,8
567,0.903999,3.747,1,8
568,0.907753,3.758,1,8
569,0.91153,3.774,1,8
570,0.915314,3.794,1,8
571,0.919136,3.809,1,8
572,0.922943,3.82,1,8
573,0.926788,3.832,1,8
574,0.930634,3.845,1,8
575,0.934494,3.863,1,8
576,0.93837,3.874,1,8
577,0.942245,3.883,1,8
578,0.946144,3.894,1,8
579,0.950043,3.907,1,8
580,0.953979,3.923,1,8
581,0.957909,3.932,1,8
582,0.961845,3.938,1,8
583,0.96579,3.944,1,8
584,0.973717,3.969,1,8
585,0.977684,3.973,1,8
586,0.981667,3.977,1,8
587,0.985649,3.982,1,8
588,0.989639,3.993,1,8
589,0.993645,4.003,1,8
590,0.99765,3.999,1,8
591,1.00165,4.004,1,8
592,1.00565,4.01,1,8
593,1.00967,4.019,1,8
594,1.01369,4.021,1,8
595,1.01772,4.018,1,8
596,1.02174,4.024,1,8
597,1.02576,4.026,1,8
598,1.03381,4.024,1,8
599,1.03785,4.03,1,8
600,1.04188,4.025,1,8
601,1.04591,4.028,1,8
602,1.04993,4.018,1,8
603,1.05395,4.021,1,8
604,1.06197,4.014,1,8
605,1.06599,4.011,1,8
606,1.07,4.003,1,8
607,1.074,4.004,1,8
608,1.07799,3.993,1,8
609,1.08198,3.989,1,8
610,1.08595,3.979,1,8
611,1.08994,3.974,1,8
612,1.0939,3.957,1,8
613,1.09785,3.949,1,8
614,1.10181,3.949,1,8
615,1.10574,3.939,1,8
616,1.10968,3.926,1,8
617,1.11359,3.917,1,8
618,1.11749,3.906,1,8
619,1.12138,3.891,1,8
620,1.12527,3.881,1,8
621,1.12914,3.869,1,8
622,1.13299,3.855,1,8
623,1.13683,3.836,1,8
624,1.14065,3.824,1,8
625,1.14446,3.81,1,8
626,1.14825,3.798,1,8
627,1.15204,3.779,1,8
628,1.1558,3.764,1,8
629,1.15955,3.746,1,8
630,1.16328,3.73,1,8
631,1.167,3.713,1,8
632,1.17068,3.697,1,8
633,1.17437,3.674,1,8
634,1.17802,3.661,1,8
635,1.18166,3.641,1,8
636,1.18528,3.618,1,8
637,1.18887,3.601,1,8
638,1.19247,3.583,1,8
639,1.19603,3.561,1,8
640,1.19957,3.539,1,8
641,1.20309,3.518,1,8
642,1.20657,3.5,1,8
643,1.21007,3.482,1,8
644,1.21352,3.456,1,8
645,1.21696,3.437,1,8
646,1.22038,3.412,1,8
647,1.22377,3.395,1,8
648,1.22715,3.376,1,8
649,1.2305,3.351,1,8
650,1.23382,3.329,1,8
651,1.23713,3.308,1,8
652,1.24042,3.287,1,8
653,1.24368,3.263,1,8
654,1.24693,3.242,1,8
655,1.25014,3.222,1,8
656,1.25335,3.197,1,8
657,1.25652,3.179,1,8
658,1.25967,3.15,1,8
659,1.26281,3.131,1,8
660,1.26591,3.112,1,8
661,1.269,3.085,1,8
662,1.27206,3.065,1,8
663,1.27509,3.041,1,8
664,1.27813,3.019,1,8
665,1.28111,3,1,8
666,1.2841,2.979,1,8
667,1.28706,2.953,1,8
668,1.28999,2.934,1,8
669,1.2929,2.911,1,8
670,1.29578,2.889,1,8
671,1.29865,2.849,1,8
672,1.30433,2.825,1,8
673,1.30713,2.8,1,8
674,1.30991,2.786,1,8
675,1.31268,2.765,1,8
676,1.31543,2.738,1,8
677,1.31815,2.723,1,8
678,1.32085,2.706,1,8
679,1.32352,2.677,1,8
680,1.32619,2.661,1,8
681,1.32883,2.646,1,8
682,1.33146,2.622,1,8
683,1.33405,2.602,1,8
684,1.33664,2.587,1,8
685,1.3392,2.565,1,8
686,1.34176,2.547,1,8
687,1.34428,2.53,1,8
688,1.34681,2.513,1,8
689,1.34929,2.494,1,8
690,1.35177,2.475,1,8
691,1.35423,2.457,1,8
692,1.35667,2.444,1,8
693,1.35909,2.429,1,8
694,1.3615,2.406,1,8
695,1.3639,2.397,1,8
696,1.36628,2.383,1,8
697,1.36866,2.366,1,8
698,1.37099,2.346,1,8
699,1.37334,2.34,1,8
700,1.37566,2.326,1,8
701,1.37798,2.31,1,8
702,1.38026,2.294,1,8
703,1.38255,2.288,1,8
704,1.38483,2.277,1,8
705,1.38709,2.263,1,8
706,1.38934,2.25,1,8
707,1.39159,2.241,1,8
708,1.39383,2.235,1,8
709,1.39605,2.213,1,8
710,1.40046,2.199,1,8
711,1.40266,2.201,1,8
712,1.40485,2.196,1,8
713,1.40704,2.18,1,8
714,1.4092,2.167,1,8
715,1.41138,2.177,1,8
716,1.41354,2.176,1,8
717,1.4157,2.157,1,8
718,1.41785,2.145,1,8
719,1.42001,2.158,1,8
720,1.42218,2.165,1,8
721,1.42432,2.136,1,8
722,1.4286,2.143,1,8
723,1.43076,2.157,1,8
724,1.43291,2.147,1,8
725,1.43504,2.14,1,8
726,1.43719,2.138,1,8
727,1.43934,2.154,1,8
728,1.4415,2.16,1,8
729,1.44365,2.155,1,8
730,1.44579,2.146,1,8
731,1.44796,2.156,1,8
732,1.45232,2.178,1,8
733,1.45448,2.166,1,8
734,1.45665,2.169,1,8
735,1.45885,2.201,1,8
736,1.46106,2.209,1,8
737,1.46326,2.197,1,8
738,1.46545,2.195,1,8
739,1.46767,2.226,1,8
740,1.46992,2.244,1,8
741,1.47215,2.241,1,8
742,1.4744,2.236,1,8
743,1.47665,2.258,1,8
744,1.47894,2.285,1,8
745,1.48124,2.295,1,8
746,1.48351,2.287,1,8
747,1.48582,2.296,1,8
748,1.48816,2.328,1,8
749,1.49049,2.348,1,8
750,1.49284,2.352,1,8
751,1.49519,2.348,1,8
752,1.49757,2.38,1,8
753,1.49998,2.408,1,8
754,1.5024,2.415,1,8
755,1.50481,2.419,1,8
756,1.50726,2.441,1,8
757,1.50973,2.467,1,8
758,1.51221,2.486,1,8
759,1.51471,2.494,1,8
760,1.51722,2.509,1,8
761,1.51974,2.532,1,8
762,1.52231,2.561,1,8
763,1.52489,2.578,1,8
764,1.52747,2.583,1,8
765,1.53008,2.61,1,8
766,1.53271,2.636,1,8
767,1.53537,2.66,1,8
768,1.53804,2.671,1,8
769,1.54073,2.686,1,8
770,1.54345,2.715,1,8
771,1.54619,2.743,1,8
772,1.54895,2.762,1,8
773,1.55173,2.774,1,8
774,1.55453,2.799,1,8
775,1.55736,2.832,1,8
776,1.5602,2.851,1,8
777,1.56308,2.871,1,8
778,1.56596,2.891,1,8
779,1.56889,2.917,1,8
780,1.57182,2.949,1,8
781,1.5748,2.967,1,8
782,1.57779,2.987,1,8
783,1.5808,3.011,1,8
784,1.58385,3.043,1,8
785,1.58691,3.069,1,8
786,1.59,3.086,1,8
787,1.59311,3.112,1,8
788,1.59624,3.138,1,8
789,1.59942,3.167,1,8
790,1.6026,3.191,1,8
791,1.60582,3.209,1,8
792,1.60905,3.237,1,8
793,1.61232,3.267,1,8
794,1.61561,3.293,1,8
795,1.61893,3.313,1,8
796,1.62225,3.337,1,8
797,1.62563,3.368,1,8
798,1.62901,3.395,1,8
799,1.63245,3.418,1,8
800,1.63589,3.442,1,8
801,1.63934,3.465,1,8
802,1.64285,3.498,1,8
803,1.64637,3.524,1,8
804,1.64993,3.549,1,8
805,1.65349,3.569,1,8
806,1.6571,3.6,1,8
807,1.66071,3.631,1,8
808,1.66438,3.652,1,8
809,1.66805,3.679,1,8
810,1.67175,3.703,1,8
811,1.67548,3.759,1,8
812,1.68303,3.783,1,8
813,1.68684,3.806,1,8
814,1.69067,3.835,1,8
815,1.69453,3.862,1,8
816,1.69842,3.889,1,8
817,1.70234,3.908,1,8
818,1.70627,3.937,1,8
819,1.71023,3.962,1,8
820,1.71422,3.991,1,8
821,1.71824,4.017,1,8
822,1.72227,4.039,1,8
823,1.72633,4.061,1,8
824,1.73042,4.089,1,8
825,1.73454,4.117,1,8
826,1.73868,4.138,1,8
827,1.74284,4.162,1,8
828,1.74704,4.189,1,8
829,1.75124,4.217,1,8
830,1.75549,4.237,1,8
831,1.75974,4.259,1,8
832,1.76402,4.282,1,8
833,1.76833,4.308,1,8
834,1.77267,4.333,1,8
835,1.77702,4.36,1,8
836,1.7814,4.379,1,8
837,1.7858,4.397,1,8
838,1.79023,4.425,1,8
839,1.79468,4.452,1,8
840,1.79916,4.474,1,8
841,1.80365,4.493,1,8
842,1.80817,4.518,1,8
843,1.81271,4.538,1,8
844,1.81727,4.565,1,8
845,1.82185,4.583,1,8
846,1.82647,4.606,1,8
847,1.83109,4.628,1,8
848,1.83574,4.649,1,8
849,1.84039,4.67,1,8
850,1.84509,4.689,1,8
851,1.84981,4.709,1,8
852,1.85454,4.733,1,8
853,1.85928,4.754,1,8
854,1.86407,4.772,1,8
855,1.86886,4.794,1,8
856,1.87368,4.813,1,8
857,1.87851,4.835,1,8
858,1.88335,4.854,1,8
859,1.88823,4.876,1,8
860,1.89313,4.889,1,8
861,1.89803,4.909,1,8
862,1.90297,4.93,1,8
863,1.90791,4.95,1,8
864,1.91288,4.961,1,8
865,1.91785,4.982,1,8
866,1.92286,5.001,1,8
867,1.92788,5.021,1,8
868,1.93291,5.035,1,8
869,1.93796,5.047,1,8
870,1.94812,5.092,1,8
871,1.95322,5.103,1,8
872,1.95834,5.111,1,8
873,1.96346,5.126,1,8
874,1.96861,5.145,1,8
875,1.97377,5.163,1,8
876,1.97894,5.174,1,8
877,1.98412,5.183,1,8
878,1.98932,5.194,1,8
879,1.99453,5.213,1,8
880,1.99976,5.228,1,8
881,2.005,5.24,1,8
882,2.0155,5.258,1,8
883,2.02077,5.269,1,8
884,2.02605,5.279,1,8
885,2.03135,5.291,1,8
886,2.03664,5.297,1,8
887,2.04195,5.301,1,8
888,2.04725,5.308,1,8
889,2.05257,5.317,1,8
890,2.0579,5.325,1,8
891,2.06856,5.334,1,8
