cnt,pos,speed,Dir,Force,
1,0,1.007,1,5
2,0.00102234,1.019,1,5
3,0.00203705,1.016,1,5
4,0.0030365,1.002,1,5
5,0.00403595,1.003,1,5
6,0.00506592,1.024,1,5
7,0.00609589,1.033,1,5
8,0.00712585,1.027,1,5
9,0.00814056,1.016,1,5
10,0.00917053,1.027,1,5
11,0.0102158,1.044,1,5
12,0.011261,1.049,1,5
13,0.012291,1.037,1,5
14,0.0133209,1.028,1,5
15,0.0143661,1.042,1,5
16,0.0154343,1.067,1,5
17,0.0165024,1.068,1,5
18,0.0175552,1.052,1,5
19,0.0186005,1.045,1,5
20,0.0196609,1.063,1,5
21,0.0207443,1.082,1,5
22,0.0218201,1.077,1,5
23,0.0228806,1.062,1,5
24,0.023941,1.066,1,5
25,0.0250473,1.09,1,5
26,0.0261307,1.1,1,5
27,0.0272369,1.085,1,5
28,0.0282974,1.072,1,5
29,0.0293808,1.087,1,5
30,0.0304947,1.111,1,5
31,0.031601,1.112,1,5
32,0.0327072,1.097,1,5
33,0.0337906,1.094,1,5
34,0.0349121,1.112,1,5
35,0.0360336,1.123,1,5
36,0.0371475,1.115,1,5
37,0.0382538,1.109,1,5
38,0.0393753,1.121,1,5
39,0.0405273,1.138,1,5
40,0.0416565,1.136,1,5
41,0.0439072,1.129,1,5
42,0.0450516,1.143,1,5
43,0.0462036,1.153,1,5
44,0.0473404,1.148,1,5
45,0.0485001,1.148,1,5
46,0.0496521,1.153,1,5
47,0.0508118,1.158,1,5
48,0.0519714,1.161,1,5
49,0.0531311,1.163,1,5
50,0.054306,1.168,1,5
51,0.0554733,1.172,1,5
52,0.0578308,1.179,1,5
53,0.0590134,1.182,1,5
54,0.0601807,1.18,1,5
55,0.0613708,1.184,1,5
56,0.062561,1.194,1,5
57,0.0637741,1.199,1,5
58,0.0661621,1.191,1,5
59,0.0673676,1.204,1,5
60,0.0685806,1.216,1,5
61,0.0698013,1.215,1,5
62,0.0722275,1.219,1,5
63,0.0734558,1.229,1,5
64,0.0746841,1.23,1,5
65,0.0759125,1.226,1,5
66,0.0771408,1.231,1,5
67,0.0783844,1.241,1,5
68,0.0796204,1.247,1,5
69,0.0808868,1.247,1,5
70,0.0821304,1.249,1,5
71,0.0846329,1.252,1,5
72,0.0858917,1.261,1,5
73,0.0871506,1.272,1,5
74,0.0884323,1.267,1,5
75,0.0896912,1.267,1,5
76,0.0909729,1.271,1,5
77,0.0922546,1.281,1,5
78,0.0935364,1.285,1,5
79,0.0948257,1.289,1,5
80,0.0961227,1.296,1,5
81,0.0974274,1.299,1,5
82,0.0987244,1.298,1,5
83,0.100021,1.303,1,5
84,0.101334,1.31,1,5
85,0.102646,1.317,1,5
86,0.103966,1.32,1,5
87,0.105293,1.326,1,5
88,0.106621,1.327,1,5
89,0.107941,1.327,1,5
90,0.109283,1.333,1,5
91,0.110626,1.345,1,5
92,0.111977,1.35,1,5
93,0.113327,1.349,1,5
94,0.114677,1.352,1,5
95,0.116035,1.357,1,5
96,0.117393,1.361,1,5
97,0.118767,1.369,1,5
98,0.12014,1.377,1,5
99,0.121521,1.378,1,5
100,0.122902,1.377,1,5
101,0.124283,1.386,1,5
102,0.125687,1.395,1,5
103,0.127083,1.4,1,5
104,0.128487,1.405,1,5
105,0.12989,1.406,1,5
106,0.131302,1.408,1,5
107,0.13414,1.427,1,5
108,0.135574,1.434,1,5
109,0.137001,1.434,1,5
110,0.138443,1.432,1,5
111,0.139877,1.437,1,5
112,0.141327,1.444,1,5
113,0.142784,1.461,1,5
114,0.144257,1.468,1,5
115,0.145714,1.462,1,5
116,0.147163,1.457,1,5
117,0.148636,1.467,1,5
118,0.150116,1.48,1,5
119,0.151611,1.499,1,5
120,0.153114,1.499,1,5
121,0.154602,1.486,1,5
122,0.156082,1.484,1,5
123,0.157585,1.502,1,5
124,0.159111,1.529,1,5
125,0.160645,1.53,1,5
126,0.16217,1.523,1,5
127,0.163681,1.51,1,5
128,0.165207,1.522,1,5
129,0.16674,1.548,1,5
130,0.168312,1.566,1,5
131,0.169861,1.556,1,5
132,0.171417,1.539,1,5
133,0.172951,1.548,1,5
134,0.174522,1.569,1,5
135,0.176117,1.594,1,5
136,0.177711,1.593,1,5
137,0.179291,1.574,1,5
138,0.180855,1.572,1,5
139,0.182457,1.598,1,5
140,0.184074,1.622,1,5
141,0.187317,1.61,1,5
142,0.188927,1.603,1,5
143,0.190544,1.626,1,5
144,0.192192,1.654,1,5
145,0.193855,1.656,1,5
146,0.195496,1.645,1,5
147,0.197136,1.638,1,5
148,0.198792,1.656,1,5
149,0.202164,1.69,1,5
150,0.203842,1.677,1,5
151,0.205521,1.675,1,5
152,0.207207,1.689,1,5
153,0.208923,1.714,1,5
154,0.210648,1.722,1,5
155,0.212357,1.714,1,5
156,0.214066,1.714,1,5
157,0.215797,1.728,1,5
158,0.217545,1.745,1,5
159,0.219307,1.756,1,5
160,0.221054,1.754,1,5
161,0.222816,1.754,1,5
162,0.224571,1.767,1,5
163,0.226357,1.775,1,5
164,-144.536,1.789,1,5
165,-144.535,1.793,1,5
166,-144.533,1.799,1,5
167,-144.531,1.799,1,5
168,-144.529,1.811,1,5
169,-144.527,1.824,1,5
170,-144.526,1.841,1,5
171,-144.524,1.841,1,5
172,-144.522,1.835,1,5
173,-144.52,1.846,1,5
174,-144.518,1.872,1,5
175,-144.516,1.886,1,5
176,-144.514,1.88,1,5
177,-144.513,1.877,1,5
178,-144.511,1.889,1,5
179,-144.509,1.916,1,5
180,-144.507,1.928,1,5
181,-144.505,1.925,1,5
182,-144.503,1.923,1,5
183,-144.501,1.938,1,5
184,-144.499,1.957,1,5
185,-144.497,1.971,1,5
186,-144.495,1.974,1,5
187,-144.493,1.977,1,5
188,-144.491,1.986,1,5
189,-144.489,2.004,1,5
190,-144.487,2.027,1,5
191,-144.485,2.026,1,5
192,-144.483,2.031,1,5
193,-144.479,2.059,1,5
194,-144.477,2.074,1,5
195,-144.475,2.079,1,5
196,-144.473,2.071,1,5
197,-144.471,2.09,1,5
198,-144.469,2.114,1,5
199,-144.466,2.126,1,5
200,-144.464,2.129,1,5
201,-144.462,2.134,1,5
202,-144.46,2.148,1,5
203,-144.458,2.165,1,5
204,-144.456,2.182,1,5
205,-144.453,2.187,1,5
206,-144.451,2.19,1,5
207,-144.449,2.204,1,5
208,-144.447,2.226,1,5
209,-144.445,2.24,1,5
210,-144.442,2.243,1,5
211,-144.44,2.252,1,5
212,-144.438,2.271,1,5
213,-144.436,2.285,1,5
214,-144.433,2.298,1,5
215,-144.431,2.309,1,5
216,-144.429,2.317,1,5
217,-144.426,2.328,1,5
218,-144.424,2.347,1,5
219,-144.422,2.366,1,5
220,-144.419,2.37,1,5
221,-144.417,2.382,1,5
222,-144.414,2.395,1,5
223,-144.412,2.429,1,5
224,-144.41,2.439,1,5
225,-144.405,2.449,1,5
226,-144.402,2.466,1,5
227,-144.4,2.485,1,5
228,-144.397,2.498,1,5
229,-144.395,2.504,1,5
230,-144.392,2.519,1,5
231,-144.39,2.539,1,5
232,-144.387,2.553,1,5
233,-144.385,2.568,1,5
234,-144.382,2.579,1,5
235,-144.379,2.592,1,5
236,-144.377,2.61,1,5
237,-144.372,2.64,1,5
238,-144.369,2.655,1,5
239,-144.366,2.669,1,5
240,-144.364,2.685,1,5
241,-144.361,2.705,1,5
242,-144.358,2.718,1,5
243,-144.355,2.73,1,5
244,-144.353,2.748,1,5
245,-144.35,2.762,1,5
246,-144.347,2.78,1,5
247,-144.344,2.797,1,5
248,-144.339,2.823,1,5
249,-144.336,2.844,1,5
250,-144.333,2.86,1,5
251,-144.33,2.874,1,5
252,-144.327,2.891,1,5
253,-144.324,2.905,1,5
254,-144.321,2.922,1,5
255,-144.318,2.94,1,5
256,-144.315,2.955,1,5
257,-144.31,2.986,1,5
258,-144.307,3.002,1,5
259,-144.303,3.021,1,5
260,-144.3,3.035,1,5
261,-144.297,3.054,1,5
262,-144.294,3.069,1,5
263,-144.291,3.083,1,5
264,-144.288,3.101,1,5
265,-144.285,3.118,1,5
266,-144.282,3.136,1,5
267,-144.279,3.152,1,5
268,-144.276,3.167,1,5
269,-144.272,3.183,1,5
270,-144.269,3.2,1,5
271,-144.266,3.215,1,5
272,-144.263,3.232,1,5
273,-144.26,3.247,1,5
274,-144.256,3.265,1,5
275,-144.25,3.294,1,5
276,-144.246,3.309,1,5
277,-144.243,3.327,1,5
278,-144.24,3.343,1,5
279,-144.236,3.357,1,5
280,-144.233,3.37,1,5
281,-144.23,3.387,1,5
282,-144.226,3.403,1,5
283,-144.223,3.422,1,5
284,-144.219,3.431,1,5
285,-144.216,3.448,1,5
286,-144.212,3.462,1,5
287,-144.209,3.483,1,5
288,-144.205,3.492,1,5
289,-144.202,3.505,1,5
290,-144.198,3.521,1,5
291,-144.195,3.537,1,5
292,-144.191,3.553,1,5
293,-144.188,3.564,1,5
294,-144.184,3.578,1,5
295,-144.181,3.59,1,5
296,-144.177,3.607,1,5
297,-144.173,3.622,1,5
298,-144.17,3.635,1,5
299,-144.166,3.647,1,5
300,-144.162,3.663,1,5
301,-144.159,3.678,1,5
302,-144.155,3.692,1,5
303,-144.151,3.706,1,5
304,-144.148,3.723,1,5
305,-144.144,3.734,1,5
306,-144.14,3.749,1,5
307,-144.136,3.765,1,5
308,-144.133,3.777,1,5
309,-144.129,3.795,1,5
310,-144.125,3.807,1,5
311,-144.121,3.821,1,5
312,-144.117,3.833,1,5
313,-144.113,3.851,1,5
314,-144.11,3.864,1,5
315,-144.106,3.878,1,5
316,-144.102,3.891,1,5
317,-144.098,3.907,1,5
318,-144.094,3.917,1,5
319,-144.09,3.947,1,5
320,-144.082,3.961,1,5
321,-144.078,3.972,1,5
322,-144.074,3.987,1,5
323,-144.07,3.998,1,5
324,-144.066,4.01,1,5
325,-144.062,4.02,1,5
326,-144.058,4.036,1,5
327,-144.054,4.048,1,5
328,-144.05,4.059,1,5
329,-144.046,4.07,1,5
330,-144.042,4.079,1,5
331,-144.038,4.088,1,5
332,-144.034,4.1,1,5
333,-144.03,4.11,1,5
334,-144.026,4.116,1,5
335,-144.021,4.124,1,5
336,-144.017,4.137,1,5
337,-144.013,4.147,1,5
338,-144.009,4.151,1,5
339,-144.005,4.156,1,5
340,-144.001,4.166,1,5
341,-143.996,4.175,1,5
342,-143.992,4.185,1,5
343,-143.988,4.19,1,5
344,-143.984,4.19,1,5
345,-143.98,4.195,1,5
346,-143.975,4.205,1,5
347,-143.971,4.211,1,5
348,-143.967,4.213,1,5
349,-143.963,4.21,1,5
350,-143.959,4.219,1,5
351,-143.954,4.224,1,5
352,-143.95,4.223,1,5
353,-143.946,4.226,1,5
354,-143.942,4.23,1,5
355,-143.938,4.237,1,5
356,-143.933,4.24,1,5
357,-143.925,4.237,1,5
358,-143.921,4.238,1,5
359,-143.916,4.241,1,5
360,-143.912,4.244,1,5
361,-143.908,4.242,1,5
362,-143.904,4.241,1,5
363,-143.899,4.233,1,5
364,-143.895,4.239,1,5
365,-143.891,4.236,1,5
366,-143.887,4.229,1,5
367,-143.882,4.223,1,5
368,-143.874,4.222,1,5
369,-143.87,4.219,1,5
370,-143.866,4.21,1,5
371,-143.861,4.207,1,5
372,-143.857,4.203,1,5
373,-143.853,4.199,1,5
374,-143.849,4.2,1,5
375,-143.845,4.19,1,5
376,-143.84,4.186,1,5
377,-143.836,4.177,1,5
378,-143.832,4.174,1,5
379,-143.828,4.167,1,5
380,-143.824,4.16,1,5
381,-143.82,4.151,1,5
382,-143.815,4.146,1,5
383,-143.811,4.137,1,5
384,-143.807,4.13,1,5
385,-143.803,4.12,1,5
386,-143.799,4.111,1,5
387,-143.795,4.107,1,5
388,-143.791,4.096,1,5
389,-143.787,4.083,1,5
390,-143.783,4.071,1,5
391,-143.778,4.064,1,5
392,-143.774,4.053,1,5
393,-143.77,4.047,1,5
394,-143.766,4.036,1,5
395,-143.762,4.022,1,5
396,-143.758,4.008,1,5
397,-143.754,3.998,1,5
398,-143.75,3.988,1,5
399,-143.746,3.978,1,5
400,-143.742,3.964,1,5
401,-143.738,3.949,1,5
402,-143.734,3.938,1,5
403,-143.731,3.93,1,5
404,-143.727,3.901,1,5
405,-143.719,3.888,1,5
406,-143.715,3.875,1,5
407,-143.711,3.865,1,5
408,-143.707,3.852,1,5
409,-143.703,3.837,1,5
410,-143.7,3.82,1,5
411,-143.696,3.807,1,5
412,-143.692,3.796,1,5
413,-143.688,3.786,1,5
414,-143.684,3.767,1,5
415,-143.681,3.754,1,5
416,-143.677,3.738,1,5
417,-143.673,3.726,1,5
418,-143.67,3.714,1,5
419,-143.666,3.699,1,5
420,-143.662,3.681,1,5
421,-143.658,3.668,1,5
422,-143.655,3.66,1,5
423,-143.651,3.643,1,5
424,-143.648,3.629,1,5
425,-143.644,3.613,1,5
426,-143.64,3.601,1,5
427,-143.637,3.589,1,5
428,-143.633,3.574,1,5
429,-143.63,3.561,1,5
430,-143.626,3.546,1,5
431,-143.622,3.532,1,5
432,-143.619,3.518,1,5
433,-143.615,3.503,1,5
434,-143.609,3.476,1,5
435,-143.605,3.466,1,5
436,-143.602,3.448,1,5
437,-143.598,3.437,1,5
438,-143.595,3.422,1,5
439,-143.591,3.413,1,5
440,-143.588,3.399,1,5
441,-143.585,3.382,1,5
442,-143.581,3.371,1,5
443,-143.578,3.357,1,5
444,-143.574,3.345,1,5
445,-143.571,3.331,1,5
446,-143.568,3.304,1,5
447,-143.565,3.291,1,5
448,-143.558,3.276,1,5
449,-143.555,3.261,1,5
450,-143.551,3.253,1,5
451,-143.548,3.239,1,5
452,-143.545,3.222,1,5
453,-143.542,3.21,1,5
454,-143.539,3.197,1,5
455,-143.535,3.185,1,5
456,-143.532,3.176,1,5
457,-143.529,3.155,1,5
458,-143.526,3.147,1,5
459,-143.523,3.133,1,5
460,-143.52,3.109,1,5
461,-143.513,3.096,1,5
462,-143.51,3.084,1,5
463,-143.507,3.072,1,5
464,-143.504,3.062,1,5
465,-143.501,3.047,1,5
466,-143.498,3.035,1,5
467,-143.495,3.025,1,5
468,-143.492,3.014,1,5
469,-143.489,3.005,1,5
470,-143.486,2.991,1,5
471,-143.483,2.978,1,5
472,-143.477,2.961,1,5
473,-143.474,2.95,1,5
474,-143.471,2.939,1,5
475,-143.468,2.931,1,5
476,-143.465,2.92,1,5
477,-143.463,2.912,1,5
478,-143.46,2.903,1,5
479,-143.457,2.899,1,5
480,-143.454,2.887,1,5
481,-143.451,2.879,1,5
482,-143.448,2.872,1,5
483,-143.445,2.868,1,5
484,-143.44,2.855,1,5
485,-143.437,2.848,1,5
486,-143.434,2.842,1,5
487,-143.431,2.839,1,5
488,-143.428,2.836,1,5
489,-143.425,2.834,1,5
490,-143.423,2.826,1,5
491,-143.42,2.821,1,5
492,-143.417,2.822,1,5
493,-143.414,2.822,1,5
494,-143.411,2.818,1,5
495,-143.408,2.817,1,5
496,-143.406,2.813,1,5
497,-143.403,2.813,1,5
498,-143.4,2.817,1,5
499,-143.397,2.817,1,5
500,-143.394,2.816,1,5
501,-143.392,2.815,1,5
502,-143.389,2.819,1,5
503,-143.386,2.822,1,5
504,-143.383,2.827,1,5
505,-143.38,2.828,1,5
506,-143.377,2.835,1,5
507,-143.375,2.837,1,5
508,-143.372,2.843,1,5
509,-143.369,2.849,1,5
510,-143.366,2.856,1,5
511,-143.363,2.862,1,5
512,-143.36,2.87,1,5
513,-143.357,2.877,1,5
514,-143.355,2.886,1,5
515,-143.352,2.898,1,5
516,-143.349,2.904,1,5
517,-143.346,2.917,1,5
518,-143.343,2.924,1,5
519,-143.34,2.935,1,5
520,-143.337,2.949,1,5
521,-143.334,2.958,1,5
522,-143.331,2.968,1,5
523,-143.328,2.987,1,5
524,-143.325,2.995,1,5
525,-143.322,3.011,1,5
526,-143.319,3.022,1,5
527,-143.316,3.039,1,5
528,-143.313,3.053,1,5
529,-143.307,3.084,1,5
530,-143.304,3.097,1,5
531,-143.301,3.119,1,5
532,-143.297,3.135,1,5
533,-143.294,3.149,1,5
534,-143.291,3.167,1,5
535,-143.288,3.183,1,5
536,-143.285,3.202,1,5
537,-143.282,3.221,1,5
538,-143.278,3.233,1,5
539,-143.275,3.253,1,5
540,-143.272,3.268,1,5
541,-143.268,3.289,1,5
542,-143.265,3.305,1,5
543,-143.262,3.319,1,5
544,-143.259,3.335,1,5
545,-143.255,3.355,1,5
546,-143.252,3.373,1,5
547,-143.248,3.388,1,5
548,-143.245,3.403,1,5
549,-143.242,3.422,1,5
550,-143.238,3.442,1,5
551,-143.235,3.456,1,5
552,-143.231,3.475,1,5
553,-143.228,3.489,1,5
554,-143.224,3.508,1,5
555,-143.221,3.528,1,5
556,-143.217,3.545,1,5
557,-143.214,3.558,1,5
558,-143.21,3.576,1,5
559,-143.206,3.594,1,5
560,-143.203,3.616,1,5
561,-143.199,3.629,1,5
562,-143.192,3.66,1,5
563,-143.188,3.683,1,5
564,-143.184,3.698,1,5
565,-143.181,3.715,1,5
566,-143.177,3.729,1,5
567,-143.173,3.745,1,5
568,-143.17,3.761,1,5
569,-143.166,3.779,1,5
570,-143.162,3.797,1,5
571,-143.158,3.808,1,5
572,-143.154,3.843,1,5
573,-143.15,3.863,1,5
574,-143.143,3.879,1,5
575,-143.139,3.893,1,5
576,-143.135,3.904,1,5
577,-143.131,3.924,1,5
578,-143.127,3.939,1,5
579,-143.123,3.954,1,5
580,-143.119,3.968,1,5
581,-143.115,3.981,1,5
582,-143.111,3.999,1,5
583,-143.107,4.015,1,5
584,-143.103,4.031,1,5
585,-143.099,4.039,1,5
586,-143.095,4.06,1,5
587,-143.091,4.078,1,5
588,-143.087,4.094,1,5
589,-143.083,4.106,1,5
590,-143.079,4.121,1,5
591,-143.074,4.134,1,5
592,-143.07,4.155,1,5
593,-143.066,4.168,1,5
594,-143.062,4.184,1,5
595,-143.058,4.193,1,5
596,-143.054,4.209,1,5
597,-143.049,4.229,1,5
598,-143.045,4.245,1,5
599,-143.041,4.251,1,5
600,-143.037,4.267,1,5
601,-143.032,4.284,1,5
602,-143.028,4.303,1,5
603,-143.024,4.315,1,5
604,-143.019,4.326,1,5
605,-143.015,4.345,1,5
606,-143.011,4.359,1,5
607,-143.006,4.38,1,5
608,-143.002,4.391,1,5
609,-142.997,4.407,1,5
610,-142.993,4.421,1,5
611,-142.989,4.455,1,5
612,-142.98,4.468,1,5
613,-142.975,4.483,1,5
614,-142.971,4.501,1,5
615,-142.966,4.519,1,5
616,-142.962,4.529,1,5
617,-142.957,4.545,1,5
618,-142.953,4.56,1,5
619,-142.948,4.581,1,5
620,-142.943,4.598,1,5
621,-142.939,4.614,1,5
622,-142.934,4.623,1,5
623,-142.93,4.637,1,5
624,-142.925,4.655,1,5
625,-142.92,4.676,1,5
626,-142.915,4.689,1,5
627,-142.911,4.701,1,5
628,-142.906,4.711,1,5
629,-142.901,4.726,1,5
630,-142.897,4.749,1,5
631,-142.892,4.766,1,5
632,-142.887,4.777,1,5
633,-142.882,4.788,1,5
634,-142.877,4.801,1,5
635,-142.873,4.819,1,5
636,-142.868,4.84,1,5
637,-142.863,4.856,1,5
638,-142.858,4.87,1,5
639,-142.853,4.895,1,5
640,-142.843,4.912,1,5
641,-142.838,4.931,1,5
642,-142.834,4.945,1,5
643,-142.829,4.959,1,5
644,-142.824,4.97,1,5
645,-142.819,4.984,1,5
646,-142.814,5.006,1,5
647,-142.809,5.026,1,5
648,-142.804,5.036,1,5
649,-142.798,5.046,1,5
650,-142.793,5.065,1,5
651,-142.788,5.084,1,5
652,-142.783,5.1,1,5
653,-142.773,5.129,1,5
654,-142.768,5.142,1,5
655,-142.763,5.161,1,5
656,-142.758,5.177,1,5
657,-142.752,5.193,1,5
658,-142.747,5.205,1,5
659,-142.742,5.218,1,5
660,-142.737,5.235,1,5
661,-142.731,5.25,1,5
662,-142.721,5.281,1,5
663,-142.716,5.295,1,5
664,-142.71,5.309,1,5
665,-142.705,5.327,1,5
666,-142.7,5.337,1,5
667,-142.694,5.352,1,5
668,-142.689,5.363,1,5
669,-142.684,5.38,1,5
670,-142.678,5.39,1,5
671,-142.673,5.401,1,5
672,-142.667,5.41,1,5
673,-142.662,5.437,1,5
674,-142.651,5.449,1,5
675,-142.646,5.455,1,5
676,-142.64,5.464,1,5
677,-142.635,5.478,1,5
678,-142.629,5.49,1,5
679,-142.624,5.495,1,5
680,-142.618,5.496,1,5
681,-142.613,5.503,1,5
682,-142.607,5.512,1,5
683,-142.602,5.525,1,5
684,-142.596,5.528,1,5
685,-142.591,5.53,1,5
686,-142.585,5.531,1,5
687,-142.579,5.542,1,5
688,-142.568,5.56,1,5
689,-142.563,5.556,1,5
690,-142.557,5.558,1,5
691,-142.552,5.564,1,5
692,-142.546,5.575,1,5
693,-142.54,5.581,1,5
694,-142.535,5.577,1,5
695,-142.529,5.573,1,5
696,-142.524,5.578,1,5
697,-142.518,5.591,1,5
698,-142.513,5.587,1,5
699,-142.507,5.581,1,5
700,-142.501,5.576,1,5
701,-142.496,5.584,1,5
702,-142.49,5.585,1,5
703,-142.485,5.577,1,5
704,-142.479,5.565,1,5
705,-142.474,5.562,1,5
706,-142.468,5.561,1,5
707,-142.462,5.563,1,5
708,-142.457,5.548,1,5
709,-142.451,5.534,1,5
710,-142.446,5.536,1,5
711,-142.44,5.54,1,5
712,-142.435,5.53,1,5
713,-142.429,5.513,1,5
714,-142.424,5.502,1,5
715,-142.418,5.495,1,5
716,-142.413,5.494,1,5
717,-142.407,5.478,1,5
718,-142.402,5.465,1,5
719,-142.396,5.445,1,5
720,-142.391,5.442,1,5
721,-142.385,5.433,1,5
722,-142.38,5.415,1,5
723,-142.375,5.397,1,5
724,-142.369,5.385,1,5
725,-142.364,5.371,1,5
726,-142.359,5.355,1,5
727,-142.353,5.342,1,5
728,-142.348,5.322,1,5
729,-142.343,5.302,1,5
730,-142.337,5.285,1,5
731,-142.332,5.27,1,5
732,-142.327,5.248,1,5
733,-142.322,5.231,1,5
734,-142.316,5.21,1,5
735,-142.311,5.193,1,5
736,-142.306,5.171,1,5
737,-142.301,5.149,1,5
738,-142.296,5.129,1,5
739,-142.291,5.111,1,5
740,-142.286,5.088,1,5
741,-142.28,5.064,1,5
742,-142.275,5.039,1,5
743,-142.27,5.014,1,5
744,-142.265,4.995,1,5
745,-142.26,4.973,1,5
746,-142.255,4.943,1,5
747,-142.251,4.916,1,5
748,-142.246,4.897,1,5
749,-142.241,4.877,1,5
750,-142.236,4.853,1,5
751,-142.231,4.827,1,5
752,-142.226,4.8,1,5
753,-142.222,4.776,1,5
754,-142.217,4.756,1,5
755,-142.212,4.73,1,5
756,-142.207,4.704,1,5
757,-142.203,4.676,1,5
758,-142.198,4.654,1,5
759,-142.193,4.631,1,5
760,-142.189,4.606,1,5
761,-142.184,4.586,1,5
762,-142.18,4.558,1,5
763,-142.175,4.536,1,5
764,-142.166,4.489,1,5
765,-142.162,4.464,1,5
766,-142.157,4.446,1,5
767,-142.153,4.423,1,5
768,-142.148,4.405,1,5
769,-142.144,4.382,1,5
770,-142.14,4.363,1,5
771,-142.135,4.346,1,5
772,-142.131,4.33,1,5
773,-142.127,4.311,1,5
774,-142.122,4.294,1,5
775,-142.118,4.271,1,5
776,-142.114,4.255,1,5
777,-142.11,4.24,1,5
778,-142.105,4.23,1,5
779,-142.101,4.212,1,5
780,-142.097,4.196,1,5
781,-142.093,4.181,1,5
782,-142.089,4.167,1,5
783,-142.084,4.157,1,5
784,-142.08,4.144,1,5
785,-142.076,4.131,1,5
786,-142.072,4.121,1,5
787,-142.068,4.113,1,5
788,-142.064,4.104,1,5
789,-142.06,4.091,1,5
790,-142.056,4.084,1,5
791,-142.052,4.077,1,5
792,-142.047,4.075,1,5
793,-142.043,4.068,1,5
794,-142.039,4.065,1,5
795,-142.035,4.061,1,5
796,-142.031,4.056,1,5
797,-142.027,4.051,1,5
798,-142.023,4.053,1,5
799,-142.019,4.055,1,5
800,-142.015,4.052,1,5
801,-142.011,4.054,1,5
802,-142.007,4.057,1,5
803,-142.003,4.053,1,5
804,-141.999,4.055,1,5
805,-141.995,4.058,1,5
806,-141.987,4.07,1,5
807,-141.983,4.074,1,5
808,-141.978,4.079,1,5
809,-141.974,4.083,1,5
810,-141.97,4.089,1,5
811,-141.966,4.099,1,5
812,-141.962,4.112,1,5
813,-141.958,4.123,1,5
814,-141.954,4.128,1,5
815,-141.946,4.151,1,5
816,-141.941,4.163,1,5
817,-141.937,4.177,1,5
818,-141.933,4.19,1,5
819,-141.929,4.205,1,5
820,-141.925,4.215,1,5
821,-141.92,4.229,1,5
822,-141.916,4.242,1,5
823,-141.912,4.257,1,5
824,-141.908,4.273,1,5
825,-141.903,4.287,1,5
826,-141.899,4.302,1,5
827,-141.895,4.316,1,5
828,-141.89,4.335,1,5
829,-141.886,4.353,1,5
830,-141.882,4.364,1,5
831,-141.877,4.381,1,5
832,-141.873,4.401,1,5
833,-141.868,4.417,1,5
834,-141.864,4.434,1,5
835,-141.86,4.447,1,5
836,-141.855,4.465,1,5
837,-141.851,4.478,1,5
838,-141.846,4.496,1,5
839,-141.842,4.514,1,5
840,-141.837,4.531,1,5
841,-141.833,4.542,1,5
842,-141.828,4.557,1,5
843,-141.823,4.572,1,5
844,-141.819,4.587,1,5
845,-141.814,4.61,1,5
846,-141.81,4.625,1,5
847,-141.805,4.638,1,5
848,-141.8,4.649,1,5
849,-141.796,4.668,1,5
850,-141.791,4.684,1,5
851,-141.786,4.704,1,5
852,-141.782,4.718,1,5
853,-141.777,4.731,1,5
854,-141.772,4.741,1,5
855,-141.767,4.758,1,5
856,-141.763,4.775,1,5
857,-141.758,4.796,1,5
858,-141.753,4.81,1,5
859,-141.748,4.816,1,5
860,-141.743,4.835,1,5
861,-141.738,4.851,1,5
862,-141.734,4.871,1,5
863,-141.729,4.887,1,5
864,-141.724,4.901,1,5
865,-141.719,4.91,1,5
866,-141.714,4.926,1,5
867,-141.709,4.943,1,5
868,-141.704,4.964,1,5
869,-141.699,4.977,1,5
870,-141.694,4.989,1,5
871,-141.689,4.999,1,5
872,-141.684,5.018,1,5
873,-141.679,5.038,1,5
874,-141.674,5.055,1,5
875,-141.669,5.065,1,5
876,-141.664,5.078,1,5
877,-141.654,5.112,1,5
