cnt,pos,speed,Dir,Force,
1,0,1.0156,-1,5
2,0.00112009,1.0349,-1,5
3,0.00225997,1.0543,-1,5
4,0.00343013,1.0743,-1,5
5,0.00462008,1.095,-1,5
6,0.00582004,1.1149,-1,5
7,0.00704002,1.1338,-1,5
8,0.00829005,1.1545,-1,5
9,0.00957012,1.1761,-1,5
10,0.01086,1.1966,-1,5
11,0.0121701,1.2166,-1,5
12,0.0135,1.2379,-1,5
13,0.0148602,1.26,-1,5
14,0.0162401,1.2813,-1,5
15,0.0176401,1.3022,-1,5
16,0.0190701,1.3245,-1,5
17,0.02052,1.3478,-1,5
18,0.0219901,1.3699,-1,5
19,0.0234902,1.3919,-1,5
20,0.0250101,1.4149,-1,5
21,0.0265501,1.4388,-1,5
22,0.0281301,1.4628,-1,5
23,0.0297201,1.4859,-1,5
24,0.0313301,1.5094,-1,5
25,0.03298,1.5339,-1,5
26,0.0346501,1.5585,-1,5
27,0.03635,1.583,-1,5
28,0.03807,1.6079,-1,5
29,0.0398102,1.6325,-1,5
30,0.04158,1.6575,-1,5
31,0.04338,1.6823,-1,5
32,0.0451901,1.7064,-1,5
33,0.04705,1.7324,-1,5
34,0.0489302,1.7592,-1,5
35,0.0508301,1.7851,-1,5
36,0.0527601,1.8105,-1,5
37,0.0547101,1.8363,-1,5
38,0.0567,1.863,-1,5
39,0.0587101,1.8902,-1,5
40,0.06075,1.9167,-1,5
41,0.0628102,1.9432,-1,5
42,0.0649002,1.9708,-1,5
43,0.0670202,1.998,-1,5
44,0.06917,2.0242,-1,5
45,0.0713301,2.0504,-1,5
46,0.07353,2.0771,-1,5
47,0.0757601,2.1047,-1,5
48,0.0780101,2.1311,-1,5
49,0.0802801,2.1567,-1,5
50,0.0825801,2.1828,-1,5
51,0.0849102,2.2099,-1,5
52,0.08726,2.2362,-1,5
53,0.0896301,2.2605,-1,5
54,0.09202,2.2855,-1,5
55,0.09445,2.3116,-1,5
56,0.0969,2.3369,-1,5
57,0.09936,2.3604,-1,5
58,0.10184,2.3837,-1,5
59,0.10435,2.4075,-1,5
60,0.10689,2.4311,-1,5
61,0.10944,2.4532,-1,5
62,0.112,2.4744,-1,5
63,0.11459,2.4965,-1,5
64,0.11721,2.5182,-1,5
65,0.11983,2.538,-1,5
66,0.12247,2.5573,-1,5
67,0.12513,2.577,-1,5
68,0.12781,2.5961,-1,5
69,0.1305,2.6141,-1,5
70,0.1332,2.6317,-1,5
71,0.13592,2.6485,-1,5
72,0.13866,2.6652,-1,5
73,0.1414,2.681,-1,5
74,0.14416,2.6959,-1,5
75,0.14693,2.7103,-1,5
76,0.14971,2.7241,-1,5
77,0.1525,2.7368,-1,5
78,0.1553,2.7494,-1,5
79,0.15811,2.7611,-1,5
80,0.16092,2.7726,-1,5
81,0.16658,2.7836,-1,5
82,0.16941,2.7935,-1,5
83,0.16941,2.803,-1,5
84,0.17509,2.8115,-1,5
85,0.17509,2.8191,-1,5
86,0.17794,2.8258,-1,5
87,0.18079,2.8323,-1,5
88,0.18364,2.8374,-1,5
89,0.1865,2.842,-1,5
90,0.18935,2.8453,-1,5
91,0.19221,2.8481,-1,5
92,0.19507,2.8503,-1,5
93,0.19792,2.8516,-1,5
94,0.20077,2.8522,-1,5
95,0.20362,2.8527,-1,5
96,0.20647,2.8527,-1,5
97,0.20931,2.8517,-1,5
98,0.21215,2.8504,-1,5
99,0.21498,2.8481,-1,5
100,0.21781,2.8453,-1,5
101,0.22063,2.842,-1,5
102,0.22625,2.8372,-1,5
103,0.22625,2.8323,-1,5
104,0.22905,2.8273,-1,5
105,0.23184,2.8215,-1,5
106,0.23463,2.8152,-1,5
107,0.2374,2.8082,-1,5
108,0.24016,2.8006,-1,5
109,0.24292,2.7929,-1,5
110,0.24566,2.7841,-1,5
111,0.24839,2.7746,-1,5
112,0.2511,2.7659,-1,5
113,0.25381,2.7548,-1,5
114,0.25651,2.7442,-1,5
115,0.25919,2.7331,-1,5
116,0.26185,2.7213,-1,5
117,0.2645,2.7093,-1,5
118,0.26714,2.697,-1,5
119,0.26977,2.6843,-1,5
120,0.27238,2.6713,-1,5
121,0.27498,2.6581,-1,5
122,0.27756,2.6443,-1,5
123,0.28012,2.6312,-1,5
124,0.28267,2.6167,-1,5
125,0.28521,2.6021,-1,5
126,0.28773,2.588,-1,5
127,0.29023,2.5728,-1,5
128,0.29272,2.5572,-1,5
129,0.29519,2.5418,-1,5
130,0.29764,2.5263,-1,5
131,0.30008,2.51,-1,5
132,0.3025,2.4938,-1,5
133,0.3049,2.4781,-1,5
134,0.30729,2.4616,-1,5
135,0.30965,2.4445,-1,5
136,0.31201,2.4276,-1,5
137,0.31434,2.411,-1,5
138,0.31666,2.3939,-1,5
139,0.31895,2.3764,-1,5
140,0.32124,2.3591,-1,5
141,0.3235,2.342,-1,5
142,0.32574,2.3246,-1,5
143,0.32797,2.3064,-1,5
144,0.33018,2.289,-1,5
145,0.33237,2.2719,-1,5
146,0.33455,2.2539,-1,5
147,0.3367,2.2358,-1,5
148,0.33884,2.2184,-1,5
149,0.34096,2.2011,-1,5
150,0.34307,2.1833,-1,5
151,0.34516,2.1657,-1,5
152,0.34722,2.1478,-1,5
153,0.34927,2.1307,-1,5
154,0.35131,2.1134,-1,5
155,0.35333,2.0958,-1,5
156,0.35533,2.0782,-1,5
157,0.35731,2.0608,-1,5
158,0.35928,2.044,-1,5
159,0.36123,2.0266,-1,5
160,0.36316,2.0093,-1,5
161,0.36507,1.9919,-1,5
162,0.36698,1.9755,-1,5
163,0.36887,1.9591,-1,5
164,0.37073,1.9419,-1,5
165,0.37258,1.925,-1,5
166,0.37442,1.9089,-1,5
167,0.37624,1.8932,-1,5
168,0.37805,1.8769,-1,5
169,0.37983,1.8601,-1,5
170,0.3816,1.8441,-1,5
171,0.38336,1.8289,-1,5
172,0.38511,1.8131,-1,5
173,0.38684,1.7969,-1,5
174,0.38854,1.781,-1,5
175,0.39024,1.7659,-1,5
176,0.39193,1.751,-1,5
177,0.3936,1.7354,-1,5
178,0.39525,1.72,-1,5
179,0.39689,1.7062,-1,5
180,0.39852,1.6918,-1,5
181,0.40014,1.6775,-1,5
182,0.40174,1.6634,-1,5
183,0.40333,1.6492,-1,5
184,0.40491,1.6364,-1,5
185,0.40648,1.6236,-1,5
186,0.40803,1.6099,-1,5
187,0.40957,1.5969,-1,5
188,0.41109,1.5843,-1,5
189,0.41261,1.5718,-1,5
190,0.41412,1.56,-1,5
191,0.41562,1.5479,-1,5
192,0.4171,1.5353,-1,5
193,0.41857,1.524,-1,5
194,0.42004,1.513,-1,5
195,0.42149,1.5016,-1,5
196,0.42294,1.4907,-1,5
197,0.42437,1.4805,-1,5
198,0.4258,1.4702,-1,5
199,0.42721,1.4602,-1,5
200,0.42863,1.4505,-1,5
201,0.43002,1.4405,-1,5
202,0.43141,1.4313,-1,5
203,0.43279,1.4224,-1,5
204,0.43418,1.4138,-1,5
205,0.43554,1.4051,-1,5
206,0.4369,1.3963,-1,5
207,0.43825,1.3875,-1,5
208,0.43959,1.3794,-1,5
209,0.44093,1.3716,-1,5
210,0.44227,1.3642,-1,5
211,0.4436,1.3573,-1,5
212,0.44491,1.3501,-1,5
213,0.44622,1.3428,-1,5
214,0.44754,1.3361,-1,5
215,0.44885,1.3305,-1,5
216,0.45015,1.3252,-1,5
217,0.45145,1.3202,-1,5
218,0.45275,1.3157,-1,5
219,0.45404,1.3111,-1,5
220,0.45533,1.3062,-1,5
221,0.45662,1.3027,-1,5
222,0.45792,1.3008,-1,5
223,0.45921,1.2988,-1,5
224,0.4605,1.2963,-1,5
225,0.4618,1.2946,-1,5
226,0.46309,1.2938,-1,5
227,0.46438,1.2933,-1,5
228,0.46568,1.2937,-1,5
229,0.46699,1.2953,-1,5
230,0.4683,1.2968,-1,5
231,0.46961,1.2983,-1,5
232,0.47093,1.3009,-1,5
233,0.47226,1.3049,-1,5
234,0.47359,1.3089,-1,5
235,0.47493,1.3131,-1,5
236,0.47627,1.3185,-1,5
237,0.47763,1.3247,-1,5
238,0.479,1.331,-1,5
239,0.48038,1.3381,-1,5
240,0.48177,1.3469,-1,5
241,0.48317,1.3559,-1,5
242,0.48458,1.365,-1,5
243,0.486,1.3746,-1,5
244,0.48744,1.3853,-1,5
245,0.4889,1.3973,-1,5
246,0.49038,1.4102,-1,5
247,0.49186,1.4229,-1,5
248,0.49335,1.4359,-1,5
249,0.49487,1.4494,-1,5
250,0.49641,1.4636,-1,5
251,0.49796,1.4795,-1,5
252,0.49954,1.4964,-1,5
253,0.50113,1.5126,-1,5
254,0.50273,1.529,-1,5
255,0.50436,1.5464,-1,5
256,0.50603,1.5649,-1,5
257,0.50771,1.5848,-1,5
258,0.5094,1.6049,-1,5
259,0.51111,1.6241,-1,5
260,0.51285,1.6443,-1,5
261,0.51462,1.6661,-1,5
262,0.51642,1.6876,-1,5
263,0.51823,1.7098,-1,5
264,0.52006,1.7324,-1,5
265,0.52192,1.7552,-1,5
266,0.52381,1.7785,-1,5
267,0.52573,1.8021,-1,5
268,0.52766,1.826,-1,5
269,0.52962,1.851,-1,5
270,0.53161,1.8763,-1,5
271,0.53364,1.9013,-1,5
272,0.53569,1.9267,-1,5
273,0.53776,1.9533,-1,5
274,0.53987,1.9809,-1,5
275,0.542,2.0084,-1,5
276,0.54416,2.0353,-1,5
277,0.54636,2.0634,-1,5
278,0.54859,2.0929,-1,5
279,0.55085,2.1232,-1,5
280,0.55314,2.1531,-1,5
281,0.55547,2.1832,-1,5
282,0.55783,2.2148,-1,5
283,0.56023,2.2469,-1,5
284,0.56266,2.2797,-1,5
285,0.56513,2.3133,-1,5
286,0.56764,2.3478,-1,5
287,0.57019,2.3829,-1,5
288,0.57278,2.4184,-1,5
289,0.5754,2.4548,-1,5
290,0.57806,2.4923,-1,5
291,0.58077,2.5302,-1,5
292,0.58351,2.5682,-1,5
293,0.5863,2.6073,-1,5
294,0.58913,2.6471,-1,5
295,0.592,2.6869,-1,5
296,0.59491,2.7274,-1,5
297,0.59787,2.768,-1,5
298,0.60087,2.809,-1,5
299,0.6039,2.8501,-1,5
300,0.60698,2.8914,-1,5
301,0.61009,2.9324,-1,5
302,0.61326,2.9741,-1,5
303,0.61645,3.0152,-1,5
304,0.6197,3.0562,-1,5
305,0.62297,3.097,-1,5
306,0.62629,3.1371,-1,5
307,0.62963,3.1763,-1,5
308,0.63302,3.2153,-1,5
309,0.63644,3.2537,-1,5
310,0.63989,3.2912,-1,5
311,0.64338,3.3288,-1,5
312,0.6469,3.3645,-1,5
313,0.65045,3.3994,-1,5
314,0.65403,3.4333,-1,5
315,0.65764,3.4666,-1,5
316,0.66128,3.4989,-1,5
317,0.66494,3.5303,-1,5
318,0.66862,3.5601,-1,5
319,0.67234,3.5896,-1,5
320,0.67607,3.6181,-1,5
321,0.67983,3.645,-1,5
322,0.68361,3.671,-1,5
323,0.68741,3.6961,-1,5
324,0.69123,3.7203,-1,5
325,0.69507,3.7432,-1,5
326,0.69893,3.7653,-1,5
327,0.7028,3.7867,-1,5
328,0.70669,3.8071,-1,5
329,0.7106,3.826,-1,5
330,0.71451,3.8441,-1,5
331,0.71845,3.8614,-1,5
332,0.72239,3.8779,-1,5
333,0.72634,3.8931,-1,5
334,0.73031,3.9078,-1,5
335,0.73429,3.9216,-1,5
336,0.73827,3.9343,-1,5
337,0.74226,3.9459,-1,5
338,0.74626,3.9571,-1,5
339,0.75027,3.9678,-1,5
340,0.75429,3.9774,-1,5
341,0.75831,3.9861,-1,5
342,0.76233,3.9942,-1,5
343,0.76636,4.002,-1,5
344,0.7704,4.0089,-1,5
345,0.77443,4.0148,-1,5
346,0.77847,4.0202,-1,5
347,0.78251,4.0252,-1,5
348,0.78656,4.0296,-1,5
349,0.7906,4.0329,-1,5
350,0.79465,4.036,-1,5
351,0.79869,4.0383,-1,5
352,0.80274,4.0402,-1,5
353,0.80677,4.0411,-1,5
354,0.81081,4.0413,-1,5
355,0.81485,4.0415,-1,5
356,0.81888,4.0407,-1,5
357,0.82291,4.0399,-1,5
358,0.82694,4.0381,-1,5
359,0.83096,4.0356,-1,5
360,0.83497,4.0325,-1,5
361,0.83898,4.0294,-1,5
362,0.84299,4.026,-1,5
363,0.84699,4.022,-1,5
364,0.85099,4.0174,-1,5
365,0.85498,4.0127,-1,5
366,0.85896,4.0078,-1,5
367,0.86294,4.0025,-1,5
368,0.86691,3.9967,-1,5
369,0.87087,3.9914,-1,5
370,0.87483,3.9854,-1,5
371,0.87878,3.9792,-1,5
372,0.88272,3.9722,-1,5
373,0.88665,3.9656,-1,5
374,0.89057,3.9585,-1,5
375,0.89449,3.9511,-1,5
376,0.89839,3.9436,-1,5
377,0.90229,3.9356,-1,5
378,0.90619,3.9278,-1,5
379,0.91007,3.9194,-1,5
380,0.91394,3.9109,-1,5
381,0.9178,3.9018,-1,5
382,0.92165,3.893,-1,5
383,0.92549,3.8844,-1,5
384,0.92933,3.8757,-1,5
385,0.93315,3.8662,-1,5
386,0.93697,3.8571,-1,5
387,0.94077,3.8476,-1,5
388,0.94457,3.838,-1,5
389,0.94835,3.8279,-1,5
390,0.95212,3.8182,-1,5
391,0.95588,3.8084,-1,5
392,0.95963,3.7983,-1,5
393,0.96337,3.7874,-1,5
394,0.96709,3.7765,-1,5
395,0.97081,3.7655,-1,5
396,0.97451,3.7539,-1,5
397,0.97819,3.742,-1,5
398,0.98187,3.7303,-1,5
399,0.98553,3.7184,-1,5
400,0.98918,3.7061,-1,5
401,0.99281,3.6934,-1,5
402,0.99644,3.6805,-1,5
403,1.00004,3.6673,-1,5
404,1.00363,3.6539,-1,5
405,1.00721,3.6406,-1,5
406,1.01078,3.6272,-1,5
407,1.01433,3.6136,-1,5
408,1.01786,3.5987,-1,5
409,1.02137,3.5843,-1,5
410,1.02487,3.5693,-1,5
411,1.02836,3.5544,-1,5
412,1.03182,3.5388,-1,5
413,1.03527,3.5231,-1,5
414,1.03871,3.5073,-1,5
415,1.04213,3.4913,-1,5
416,1.04552,3.4745,-1,5
417,1.04891,3.4576,-1,5
418,1.05227,3.4412,-1,5
419,1.05561,3.4239,-1,5
420,1.05894,3.4068,-1,5
421,1.06225,3.3894,-1,5
422,1.06554,3.3719,-1,5
423,1.06882,3.3544,-1,5
424,1.07207,3.3363,-1,5
425,1.07531,3.3164,-1,5
426,1.07853,3.2985,-1,5
427,1.08173,3.28,-1,5
428,1.08491,3.2619,-1,5
429,1.08807,3.2437,-1,5
430,1.09122,3.2253,-1,5
431,1.09434,3.2065,-1,5
432,1.10053,3.1862,-1,5
433,1.1036,3.1657,-1,5
434,1.10665,3.1453,-1,5
435,1.10968,3.1263,-1,5
436,1.11269,3.1054,-1,5
437,1.11568,3.0849,-1,5
438,1.11866,3.0638,-1,5
439,1.12161,3.043,-1,5
440,1.12454,3.022,-1,5
441,1.12746,3.0012,-1,5
442,1.13035,2.9817,-1,5
443,1.13323,2.9626,-1,5
444,1.13609,2.9436,-1,5
445,1.13893,2.9248,-1,5
446,1.14175,2.9056,-1,5
447,1.14455,2.8867,-1,5
448,1.14733,2.8676,-1,5
449,1.15009,2.8483,-1,5
450,1.15284,2.8295,-1,5
451,1.15556,2.8104,-1,5
452,1.15826,2.7912,-1,5
453,1.16095,2.7722,-1,5
454,1.16362,2.7533,-1,5
455,1.16627,2.7338,-1,5
456,1.1689,2.7151,-1,5
457,1.17151,2.696,-1,5
458,1.1741,2.6773,-1,5
459,1.17668,2.6583,-1,5
460,1.17924,2.6398,-1,5
461,1.18178,2.6214,-1,5
462,1.1843,2.6035,-1,5
463,1.1868,2.585,-1,5
464,1.18929,2.5668,-1,5
465,1.19176,2.5492,-1,5
466,1.19421,2.5311,-1,5
467,1.19664,2.5131,-1,5
468,1.19906,2.4954,-1,5
469,1.20146,2.4783,-1,5
470,1.20384,2.4603,-1,5
471,1.20621,2.4428,-1,5
472,1.20856,2.4258,-1,5
473,1.21089,2.4087,-1,5
474,1.2132,2.391,-1,5
475,1.2155,2.3742,-1,5
476,1.21779,2.3582,-1,5
477,1.22006,2.3419,-1,5
478,1.22231,2.325,-1,5
479,1.22455,2.3086,-1,5
480,1.22678,2.2934,-1,5
481,1.22898,2.2778,-1,5
482,1.23118,2.2618,-1,5
483,1.23335,2.2463,-1,5
484,1.23552,2.2322,-1,5
485,1.23768,2.2177,-1,5
486,1.23982,2.203,-1,5
487,1.24195,2.1889,-1,5
488,1.24407,2.1761,-1,5
489,1.24619,2.1639,-1,5
490,1.24829,2.1513,-1,5
491,1.25038,2.1395,-1,5
492,1.25246,2.1284,-1,5
493,1.25454,2.1191,-1,5
494,1.25662,2.1098,-1,5
495,1.25869,2.1008,-1,5
496,1.26075,2.0926,-1,5
497,1.26282,2.0864,-1,5
498,1.26488,2.0811,-1,5
499,1.26694,2.0758,-1,5
500,1.269,2.0714,-1,5
501,1.27107,2.0687,-1,5
502,1.27314,2.0683,-1,5
503,1.27522,2.0679,-1,5
504,1.2773,2.0683,-1,5
505,1.27939,2.0702,-1,5
506,1.28149,2.0743,-1,5
507,1.28361,2.0795,-1,5
508,1.28574,2.0853,-1,5
509,1.28787,2.0923,-1,5
510,1.29001,2.1011,-1,5
511,1.29219,2.112,-1,5
512,1.29438,2.1235,-1,5
513,1.29658,2.1359,-1,5
514,1.29881,2.1501,-1,5
515,1.30106,2.1671,-1,5
516,1.30334,2.1851,-1,5
517,1.30564,2.2034,-1,5
518,1.30797,2.2238,-1,5
519,1.31034,2.2468,-1,5
520,1.31273,2.272,-1,5
521,1.31516,2.2975,-1,5
522,1.31762,2.324,-1,5
523,1.32012,2.3534,-1,5
524,1.32266,2.3851,-1,5
525,1.32524,2.4173,-1,5
526,1.32785,2.4506,-1,5
527,1.33051,2.4868,-1,5
528,1.33322,2.5247,-1,5
529,1.33597,2.5638,-1,5
530,1.33877,2.6036,-1,5
531,1.34162,2.6458,-1,5
532,1.34452,2.6899,-1,5
533,1.34747,2.7354,-1,5
534,1.35048,2.7821,-1,5
535,1.35354,2.8303,-1,5
536,1.35666,2.8805,-1,5
537,1.35983,2.9321,-1,5
538,1.36307,2.9845,-1,5
539,1.36636,3.0383,-1,5
540,1.3697,3.0933,-1,5
541,1.37312,3.1497,-1,5
542,1.37659,3.2071,-1,5
543,1.38013,3.2654,-1,5
544,1.38372,3.324,-1,5
545,1.38737,3.3835,-1,5
546,1.3911,3.4438,-1,5
547,1.39487,3.5037,-1,5
548,1.39871,3.5642,-1,5
549,1.40261,3.6247,-1,5
550,1.40657,3.6864,-1,5
551,1.4106,3.7477,-1,5
552,1.41468,3.8091,-1,5
553,1.41883,3.8698,-1,5
554,1.42303,3.9308,-1,5
555,1.42729,3.9918,-1,5
556,1.43162,4.0521,-1,5
557,1.436,4.1126,-1,5
558,1.44044,4.1725,-1,5
559,1.44492,4.2316,-1,5
560,1.44946,4.2887,-1,5
561,1.45404,4.3443,-1,5
562,1.45867,4.3988,-1,5
563,1.46335,4.4524,-1,5
564,1.46808,4.5047,-1,5
565,1.47285,4.5549,-1,5
566,1.47765,4.6033,-1,5
567,1.4825,4.6496,-1,5
568,1.48738,4.694,-1,5
569,1.4923,4.7376,-1,5
570,1.49726,4.78,-1,5
571,1.50225,4.8205,-1,5
572,1.50726,4.8588,-1,5
573,1.5123,4.8952,-1,5
574,1.51737,4.9294,-1,5
575,1.52246,4.9618,-1,5
576,1.52758,4.9925,-1,5
577,1.53272,5.0217,-1,5
578,1.53786,5.0487,-1,5
579,1.54304,5.0734,-1,5
580,1.54822,5.0962,-1,5
581,1.55343,5.1181,-1,5
582,1.55865,5.1386,-1,5
583,1.56388,5.1573,-1,5
584,1.56912,5.1745,-1,5
585,1.57437,5.191,-1,5
586,1.57964,5.2064,-1,5
587,1.58492,5.2203,-1,5
588,1.5902,5.2331,-1,5
589,1.59548,5.2446,-1,5
590,1.60077,5.2551,-1,5
591,1.60608,5.2646,-1,5
592,1.61138,5.2732,-1,5
593,1.61669,5.2808,-1,5
594,1.62199,5.2875,-1,5
595,1.6273,5.2931,-1,5
596,1.63262,5.2976,-1,5
597,1.63793,5.3015,-1,5
598,1.64325,5.3052,-1,5
599,1.64856,5.308,-1,5
600,1.65387,5.31,-1,5
601,1.65918,5.3108,-1,5
602,1.66449,5.3115,-1,5
603,1.6698,5.3118,-1,5
604,1.67511,5.3116,-1,5
605,1.6804,5.31,-1,5
606,1.6857,5.3078,-1,5
607,1.69098,5.3051,-1,5
608,1.69627,5.3021,-1,5
609,1.70155,5.2988,-1,5
610,1.70681,5.2942,-1,5
611,1.71207,5.2887,-1,5
612,1.71732,5.2826,-1,5
613,1.72257,5.2763,-1,5
614,1.7278,5.2693,-1,5
615,1.73302,5.2614,-1,5
616,1.73822,5.2525,-1,5
617,1.74342,5.2435,-1,5
618,1.74861,5.234,-1,5
619,1.75378,5.2233,-1,5
620,1.75894,5.2121,-1,5
621,1.76408,5.2007,-1,5
622,1.7692,5.1885,-1,5
623,1.77432,5.1756,-1,5
624,1.77942,5.1623,-1,5
625,1.78451,5.1494,-1,5
626,1.78958,5.1359,-1,5
627,1.79463,5.1213,-1,5
628,1.79967,5.1059,-1,5
629,1.80469,5.091,-1,5
630,1.8097,5.0761,-1,5
631,1.81469,5.0609,-1,5
632,1.81965,5.0446,-1,5
633,1.8246,5.0279,-1,5
634,1.82953,5.0109,-1,5
635,1.83445,4.9939,-1,5
636,1.83935,4.977,-1,5
637,1.84423,4.9598,-1,5
638,1.84909,4.9418,-1,5
639,1.85393,4.9233,-1,5
640,1.85875,4.9053,-1,5
641,1.86356,4.8873,-1,5
642,1.86834,4.8688,-1,5
643,1.8731,4.8495,-1,5
644,1.87784,4.8304,-1,5
645,1.88256,4.811,-1,5
646,1.88727,4.7916,-1,5
647,1.89195,4.7716,-1,5
648,1.89661,4.7522,-1,5
649,1.90125,4.7322,-1,5
650,1.90587,4.7118,-1,5
651,1.91047,4.6909,-1,5
652,1.91505,4.6709,-1,5
653,1.91961,4.6513,-1,5
654,1.92415,4.6313,-1,5
655,1.92868,4.6112,-1,5
656,1.93318,4.5911,-1,5
657,1.93766,4.5711,-1,5
658,1.94212,4.551,-1,5
659,1.94656,4.5314,-1,5
660,1.95099,4.5119,-1,5
661,1.95539,4.4923,-1,5
662,1.95978,4.4724,-1,5
663,1.96414,4.4527,-1,5
664,1.96848,4.433,-1,5
665,1.97281,4.4136,-1,5
666,1.97712,4.3944,-1,5
667,1.98141,4.3752,-1,5
668,1.98568,4.3558,-1,5
669,1.98993,4.3365,-1,5
670,1.99416,4.3173,-1,5
671,1.99838,4.2982,-1,5
672,2.00257,4.2797,-1,5
673,2.00675,4.2608,-1,5
674,2.0109,4.242,-1,5
675,2.01504,4.2228,-1,5
676,2.01916,4.2036,-1,5
677,2.02326,4.185,-1,5
678,2.02735,4.1667,-1,5
679,2.03141,4.1485,-1,5
680,2.03546,4.1297,-1,5
681,2.03949,4.1114,-1,5
682,2.0435,4.0926,-1,5
683,2.04749,4.0743,-1,5
684,2.05146,4.0561,-1,5
685,2.05542,4.0384,-1,5
686,2.05936,4.0205,-1,5
687,2.06329,4.0023,-1,5
688,2.06719,3.9845,-1,5
689,2.07108,3.9667,-1,5
690,2.07495,3.9489,-1,5
691,2.0788,3.9307,-1,5
692,2.08263,3.9129,-1,5
693,2.08644,3.8938,-1,5
694,2.09024,3.8743,-1,5
695,2.09402,3.8562,-1,5
696,2.09778,3.8384,-1,5
697,2.10153,3.8206,-1,5
698,2.10525,3.8028,-1,5
699,2.10897,3.7848,-1,5
700,2.11266,3.7674,-1,5
701,2.11633,3.7501,-1,5
702,2.11999,3.7329,-1,5
703,2.12364,3.717,-1,5
704,2.12726,3.7018,-1,5
705,2.13087,3.6846,-1,5
706,2.13446,3.6677,-1,5
707,2.13804,3.6509,-1,5
708,2.1416,3.6343,-1,5
709,2.14514,3.6178,-1,5
710,2.14867,3.6009,-1,5
711,2.15218,3.5846,-1,5
712,2.15567,3.5681,-1,5
713,2.15915,3.5516,-1,5
714,2.16261,3.5351,-1,5
715,2.16606,3.5191,-1,5
716,2.16949,3.5029,-1,5
717,2.17291,3.487,-1,5
718,2.1763,3.4706,-1,5
719,2.17969,3.4547,-1,5
720,2.18306,3.439,-1,5
721,2.18641,3.4229,-1,5
722,2.18974,3.4069,-1,5
723,2.19306,3.3912,-1,5
724,2.19637,3.3757,-1,5
725,2.19967,3.3606,-1,5
726,2.20295,3.3453,-1,5
727,2.20621,3.3302,-1,5
728,2.20946,3.3151,-1,5
729,2.21269,3.2999,-1,5
730,2.21591,3.2854,-1,5
731,2.21912,3.2714,-1,5
732,2.22232,3.2575,-1,5
733,2.2255,3.2438,-1,5
734,2.22867,3.2301,-1,5
735,2.23183,3.2163,-1,5
736,2.23498,3.2033,-1,5
737,2.23811,3.1905,-1,5
738,2.24124,3.1779,-1,5
739,2.24434,3.1654,-1,5
740,2.24744,3.153,-1,5
741,2.25053,3.1407,-1,5
742,2.25361,3.1296,-1,5
743,2.25669,3.1185,-1,5
744,2.25975,3.1077,-1,5
745,2.2628,3.0972,-1,5
746,2.26585,3.0863,-1,5
747,2.26889,3.0766,-1,5
748,2.27192,3.0678,-1,5
749,2.27494,3.0594,-1,5
750,2.27796,3.0514,-1,5
751,2.28098,3.0439,-1,5
752,2.28399,3.0365,-1,5
753,2.28699,3.0297,-1,5
754,2.28999,3.0234,-1,5
755,2.29299,3.0181,-1,5
756,2.29598,3.0136,-1,5
757,2.29898,3.009,-1,5
758,2.30496,3.0053,-1,5
759,2.30496,3.0024,-1,5
760,2.30796,3.0004,-1,5
761,2.31096,2.999,-1,5
762,2.31396,2.9982,-1,5
763,2.31696,2.9981,-1,5
764,2.31997,2.9992,-1,5
765,2.32299,3.0009,-1,5
766,2.32601,3.0037,-1,5
767,2.32904,3.0076,-1,5
768,2.33208,3.0119,-1,5
769,2.33513,3.0171,-1,5
770,2.33819,3.0233,-1,5
771,2.34127,3.0307,-1,5
772,2.34435,3.0388,-1,5
773,2.34744,3.0481,-1,5
774,2.35056,3.0582,-1,5
775,2.35368,3.0689,-1,5
776,2.35681,3.0801,-1,5
777,2.35997,3.0921,-1,5
778,2.36313,3.1048,-1,5
779,2.36632,3.1184,-1,5
780,2.36951,3.1322,-1,5
781,2.37273,3.1467,-1,5
782,2.37597,3.1622,-1,5
783,2.37923,3.1783,-1,5
784,2.3825,3.1947,-1,5
785,2.3858,3.212,-1,5
786,2.38912,3.2306,-1,5
787,2.39246,3.2496,-1,5
788,2.39583,3.2702,-1,5
789,2.39923,3.2914,-1,5
790,2.40265,3.3136,-1,5
791,2.4061,3.3372,-1,5
792,2.40958,3.3617,-1,5
793,2.4131,3.3875,-1,5
794,2.41665,3.4149,-1,5
795,2.42023,3.4434,-1,5
796,2.42385,3.4736,-1,5
797,2.42751,3.5054,-1,5
798,2.43121,3.5381,-1,5
799,2.43495,3.5725,-1,5
800,2.43873,3.6087,-1,5
801,2.44256,3.6462,-1,5
802,2.44644,3.6855,-1,5
803,2.45036,3.726,-1,5
804,2.45433,3.7679,-1,5
805,2.45835,3.8117,-1,5
806,2.46242,3.8567,-1,5
807,2.46654,3.9026,-1,5
808,2.47071,3.9496,-1,5
809,2.47493,3.998,-1,5
810,2.47921,4.0475,-1,5
811,2.48355,4.0982,-1,5
812,2.48794,4.1499,-1,5
813,2.49239,4.2028,-1,5
814,2.49689,4.2565,-1,5
815,2.50145,4.3107,-1,5
816,2.50607,4.3653,-1,5
817,2.51075,4.4212,-1,5
818,2.51548,4.4776,-1,5
819,2.52027,4.5341,-1,5
820,2.52511,4.5904,-1,5
821,2.53001,4.6463,-1,5
822,2.53496,4.7016,-1,5
823,2.53996,4.757,-1,5
824,2.54501,4.8115,-1,5
825,2.55011,4.865,-1,5
826,2.55525,4.9173,-1,5
827,2.56043,4.9682,-1,5
828,2.56566,5.0177,-1,5
829,2.57093,5.0656,-1,5
830,2.57623,5.1121,-1,5
831,2.58157,5.1564,-1,5
832,2.58694,5.1989,-1,5
833,2.59234,5.2388,-1,5
834,2.59778,5.2776,-1,5
835,2.60324,5.3141,-1,5
836,2.60873,5.3486,-1,5
837,2.61424,5.3806,-1,5
838,2.61977,5.4112,-1,5
839,2.62533,5.4402,-1,5
840,2.63091,5.4675,-1,5
