cnt,pos,speed,Dir,Force,
1,0,1.0059,-1,5
2,0.00106001,1.0144,-1,5
3,0.00213003,1.0223,-1,5
4,0.00318003,1.0294,-1,5
5,0.00424004,1.0374,-1,5
6,0.00533009,1.0463,-1,5
7,0.00643969,1.0549,-1,5
8,0.00753975,1.0623,-1,5
9,0.0086298,1.0695,-1,5
10,0.00973988,1.0784,-1,5
11,0.01088,1.0881,-1,5
12,0.0120296,1.0964,-1,5
13,0.0131598,1.1032,-1,5
14,0.0142899,1.1108,-1,5
15,0.01545,1.1206,-1,5
16,0.0166397,1.1302,-1,5
17,0.0178099,1.1374,-1,5
18,0.01899,1.1445,-1,5
19,0.0201697,1.154,-1,5
20,0.0213799,1.1642,-1,5
21,0.0225997,1.172,-1,5
22,0.0238099,1.1784,-1,5
23,0.0250297,1.1869,-1,5
24,0.0262699,1.1978,-1,5
25,0.0275197,1.2068,-1,5
26,0.02878,1.2142,-1,5
27,0.0300398,1.2223,-1,5
28,0.0313001,1.2319,-1,5
29,0.0325799,1.2409,-1,5
30,0.0338798,1.2495,-1,5
31,0.0351896,1.2587,-1,5
32,0.03649,1.2679,-1,5
33,0.0377998,1.2767,-1,5
34,0.0391197,1.2853,-1,5
35,0.0404596,1.2946,-1,5
36,0.04181,1.3032,-1,5
37,0.0431499,1.3116,-1,5
38,0.0445099,1.3207,-1,5
39,0.0458798,1.3301,-1,5
40,0.0472598,1.3382,-1,5
41,0.0486398,1.3457,-1,5
42,0.0500298,1.3543,-1,5
43,0.0514297,1.3633,-1,5
44,0.0528398,1.3717,-1,5
45,0.0542598,1.3795,-1,5
46,0.0556798,1.3877,-1,5
47,0.0571098,1.3959,-1,5
48,0.0599999,1.4054,-1,5
49,0.06146,1.4138,-1,5
50,0.06146,1.4214,-1,5
51,0.0629201,1.429,-1,5
52,0.0643897,1.4369,-1,5
53,0.0658698,1.4452,-1,5
54,0.0673599,1.4532,-1,5
55,0.06885,1.4607,-1,5
56,0.0703397,1.4672,-1,5
57,0.0718498,1.4748,-1,5
58,0.07336,1.4811,-1,5
59,0.0748897,1.4881,-1,5
60,0.0764098,1.4951,-1,5
61,0.07794,1.5024,-1,5
62,0.0794797,1.509,-1,5
63,0.0810199,1.5157,-1,5
64,0.0825801,1.5224,-1,5
65,0.0841398,1.5284,-1,5
66,0.0857,1.5352,-1,5
67,0.0872698,1.5421,-1,5
68,0.08885,1.5485,-1,5
69,0.0904298,1.5547,-1,5
70,0.09202,1.5612,-1,5
71,0.0936098,1.5669,-1,5
72,0.0952101,1.5733,-1,5
73,0.0968199,1.5799,-1,5
74,0.0984397,1.5856,-1,5
75,0.10005,1.5911,-1,5
76,0.10166,1.5969,-1,5
77,0.10329,1.6023,-1,5
78,0.10492,1.6078,-1,5
79,0.10656,1.613,-1,5
80,0.10819,1.6173,-1,5
81,0.10983,1.622,-1,5
82,0.11148,1.6269,-1,5
83,0.11313,1.6309,-1,5
84,0.11479,1.6352,-1,5
85,0.11644,1.6395,-1,5
86,0.11809,1.6431,-1,5
87,0.11976,1.6469,-1,5
88,0.12143,1.6505,-1,5
89,0.1231,1.6535,-1,5
90,0.12477,1.6572,-1,5
91,0.12643,1.6603,-1,5
92,0.12811,1.6627,-1,5
93,0.12979,1.6656,-1,5
94,0.13146,1.6677,-1,5
95,0.13314,1.6698,-1,5
96,0.13482,1.6723,-1,5
97,0.1365,1.674,-1,5
98,0.13818,1.6752,-1,5
99,0.13987,1.6768,-1,5
100,0.14154,1.6777,-1,5
101,0.14323,1.6794,-1,5
102,0.14492,1.681,-1,5
103,0.1466,1.6814,-1,5
104,0.14829,1.682,-1,5
105,0.14997,1.6827,-1,5
106,0.15165,1.6834,-1,5
107,0.15335,1.6846,-1,5
108,0.15503,1.6847,-1,5
109,0.15671,1.6841,-1,5
110,0.15839,1.6845,-1,5
111,0.16007,1.6846,-1,5
112,0.16176,1.6846,-1,5
113,0.16345,1.6845,-1,5
114,0.16512,1.6835,-1,5
115,0.1668,1.683,-1,5
116,0.16848,1.683,-1,5
117,0.17017,1.6822,-1,5
118,0.17185,1.6817,-1,5
119,0.17352,1.681,-1,5
120,0.17519,1.6812,-1,5
121,0.17687,1.6806,-1,5
122,0.18023,1.6789,-1,5
123,0.1819,1.6776,-1,5
124,0.18357,1.6773,-1,5
125,0.18524,1.6773,-1,5
126,0.18692,1.6763,-1,5
127,0.18858,1.6742,-1,5
128,0.19025,1.6727,-1,5
129,0.19192,1.6727,-1,5
130,0.19358,1.6712,-1,5
131,0.19525,1.6698,-1,5
132,0.19691,1.6685,-1,5
133,0.19857,1.6674,-1,5
134,0.20024,1.6671,-1,5
135,0.2019,1.6658,-1,5
136,0.20356,1.6639,-1,5
137,0.20522,1.6632,-1,5
138,0.20687,1.6625,-1,5
139,0.20853,1.6617,-1,5
140,0.2102,1.6614,-1,5
141,0.21185,1.6601,-1,5
142,0.2135,1.6591,-1,5
143,0.21516,1.6586,-1,5
144,0.21682,1.6578,-1,5
145,0.21847,1.6573,-1,5
146,0.22013,1.6568,-1,5
147,0.22177,1.6556,-1,5
148,0.22342,1.6552,-1,5
149,0.22508,1.6548,-1,5
150,0.22674,1.6539,-1,5
151,0.22839,1.6538,-1,5
152,0.23004,1.6536,-1,5
153,0.23169,1.6531,-1,5
154,0.23335,1.6532,-1,5
155,0.235,1.6529,-1,5
156,0.23665,1.6526,-1,5
157,0.2383,1.6531,-1,5
158,0.23996,1.6532,-1,5
159,0.24161,1.6532,-1,5
160,0.24327,1.6532,-1,5
161,0.24491,1.6525,-1,5
162,0.24656,1.6527,-1,5
163,0.24822,1.6538,-1,5
164,0.24988,1.6538,-1,5
165,0.25153,1.6533,-1,5
166,0.25318,1.6528,-1,5
167,0.25483,1.6528,-1,5
168,0.25649,1.6539,-1,5
169,0.25816,1.6545,-1,5
170,0.2598,1.6536,-1,5
171,0.26145,1.6535,-1,5
172,0.2631,1.654,-1,5
173,0.26477,1.6545,-1,5
174,0.26643,1.6549,-1,5
175,0.26808,1.6543,-1,5
176,0.26972,1.654,-1,5
177,0.27138,1.6549,-1,5
178,0.27304,1.655,-1,5
179,0.2747,1.6545,-1,5
180,0.27799,1.654,-1,5
181,0.27799,1.6554,-1,5
182,0.28131,1.6565,-1,5
183,0.28297,1.6551,-1,5
184,0.28461,1.653,-1,5
185,0.28626,1.6533,-1,5
186,0.28791,1.655,-1,5
187,0.28957,1.6552,-1,5
188,0.29122,1.653,-1,5
189,0.29286,1.6508,-1,5
190,0.29451,1.6518,-1,5
191,0.29617,1.6518,-1,5
192,0.29781,1.6499,-1,5
193,0.29945,1.6482,-1,5
194,0.30108,1.6473,-1,5
195,0.30273,1.6474,-1,5
196,0.30438,1.6468,-1,5
197,0.30602,1.644,-1,5
198,0.30764,1.6419,-1,5
199,0.30928,1.6418,-1,5
200,0.31092,1.641,-1,5
201,0.31256,1.6392,-1,5
202,0.31418,1.6369,-1,5
203,0.3158,1.635,-1,5
204,0.31743,1.6347,-1,5
205,0.31907,1.6335,-1,5
206,0.32069,1.6307,-1,5
207,0.3223,1.6288,-1,5
208,0.32392,1.6279,-1,5
209,0.32554,1.6263,-1,5
210,0.32716,1.6241,-1,5
211,0.32877,1.6211,-1,5
212,0.33037,1.6189,-1,5
213,0.33198,1.6182,-1,5
214,0.33359,1.6164,-1,5
215,0.3352,1.6131,-1,5
216,0.33679,1.6104,-1,5
217,0.33839,1.6085,-1,5
218,0.33999,1.6071,-1,5
219,0.34159,1.6055,-1,5
220,0.34319,1.6028,-1,5
221,0.34477,1.6002,-1,5
222,0.34636,1.5992,-1,5
223,0.34796,1.5978,-1,5
224,0.34955,1.596,-1,5
225,0.35114,1.5944,-1,5
226,0.35272,1.5928,-1,5
227,0.3543,1.5913,-1,5
228,0.35589,1.5905,-1,5
229,0.35748,1.5889,-1,5
230,0.35906,1.5877,-1,5
231,0.36064,1.5873,-1,5
232,0.36223,1.5863,-1,5
233,0.36381,1.5854,-1,5
234,0.3654,1.5852,-1,5
235,0.36699,1.5849,-1,5
236,0.36857,1.5848,-1,5
237,0.37016,1.5856,-1,5
238,0.37175,1.586,-1,5
239,0.37335,1.5871,-1,5
240,0.37495,1.5886,-1,5
241,0.37654,1.5895,-1,5
242,0.37814,1.5911,-1,5
243,0.37974,1.5933,-1,5
244,0.38135,1.5949,-1,5
245,0.38297,1.5977,-1,5
246,0.38458,1.6009,-1,5
247,0.38619,1.6035,-1,5
248,0.38782,1.6067,-1,5
249,0.38946,1.6109,-1,5
250,0.3911,1.6148,-1,5
251,0.39274,1.6195,-1,5
252,0.39438,1.6241,-1,5
253,0.39604,1.6293,-1,5
254,0.39772,1.6361,-1,5
255,0.39939,1.6425,-1,5
256,0.40106,1.6481,-1,5
257,0.40274,1.655,-1,5
258,0.40445,1.6631,-1,5
259,0.40618,1.6713,-1,5
260,0.4079,1.6797,-1,5
261,0.40961,1.6878,-1,5
262,0.41135,1.6975,-1,5
263,0.41312,1.7085,-1,5
264,0.4149,1.7183,-1,5
265,0.41667,1.7282,-1,5
266,0.41846,1.7403,-1,5
267,0.42028,1.7537,-1,5
268,0.42212,1.7667,-1,5
269,0.42396,1.7784,-1,5
270,0.42581,1.7913,-1,5
271,0.42769,1.8073,-1,5
272,0.42959,1.8237,-1,5
273,0.4315,1.8382,-1,5
274,0.43342,1.8526,-1,5
275,0.43537,1.8696,-1,5
276,0.43735,1.8887,-1,5
277,0.43934,1.9063,-1,5
278,0.44134,1.9225,-1,5
279,0.44337,1.9406,-1,5
280,0.44543,1.9617,-1,5
281,0.44751,1.9821,-1,5
282,0.4496,2.0007,-1,5
283,0.4517,2.02,-1,5
284,0.45385,2.0427,-1,5
285,0.45603,2.0659,-1,5
286,0.45821,2.0862,-1,5
287,0.46041,2.1065,-1,5
288,0.46264,2.1294,-1,5
289,0.4649,2.1535,-1,5
290,0.46717,2.1749,-1,5
291,0.46947,2.1961,-1,5
292,0.47179,2.2192,-1,5
293,0.47415,2.2446,-1,5
294,0.47653,2.2678,-1,5
295,0.47893,2.2899,-1,5
296,0.48135,2.3142,-1,5
297,0.48382,2.3411,-1,5
298,0.48631,2.3673,-1,5
299,0.48882,2.3922,-1,5
300,0.49135,2.418,-1,5
301,0.49393,2.446,-1,5
302,0.49653,2.4746,-1,5
303,0.49916,2.501,-1,5
304,0.50181,2.5283,-1,5
305,0.5045,2.5569,-1,5
306,0.50721,2.5863,-1,5
307,0.50996,2.6143,-1,5
308,0.51273,2.6423,-1,5
309,0.51553,2.6714,-1,5
310,0.51837,2.7018,-1,5
311,0.52123,2.731,-1,5
312,0.52413,2.76,-1,5
313,0.52705,2.7894,-1,5
314,0.53001,2.8197,-1,5
315,0.533,2.8501,-1,5
316,0.53601,2.8797,-1,5
317,0.53905,2.9092,-1,5
318,0.54213,2.9394,-1,5
319,0.54523,2.9695,-1,5
320,0.54837,2.9995,-1,5
321,0.55153,3.0291,-1,5
322,0.55472,3.0583,-1,5
323,0.55793,3.0881,-1,5
324,0.56119,3.1177,-1,5
325,0.56447,3.1468,-1,5
326,0.56777,3.1755,-1,5
327,0.5711,3.2045,-1,5
328,0.57446,3.2328,-1,5
329,0.57784,3.2609,-1,5
330,0.58125,3.2883,-1,5
331,0.58468,3.3152,-1,5
332,0.58814,3.3421,-1,5
333,0.59162,3.3687,-1,5
334,0.59513,3.3945,-1,5
335,0.59866,3.4198,-1,5
336,0.60222,3.4448,-1,5
337,0.6058,3.4697,-1,5
338,0.6094,3.4942,-1,5
339,0.61302,3.5183,-1,5
340,0.61667,3.5418,-1,5
341,0.62034,3.5659,-1,5
342,0.62403,3.5892,-1,5
343,0.62775,3.6121,-1,5
344,0.63147,3.6342,-1,5
345,0.63522,3.6556,-1,5
346,0.63899,3.677,-1,5
347,0.64277,3.6977,-1,5
348,0.64659,3.7188,-1,5
349,0.65042,3.7394,-1,5
350,0.65426,3.7591,-1,5
351,0.65812,3.7777,-1,5
352,0.66199,3.7963,-1,5
353,0.66589,3.8147,-1,5
354,0.6698,3.8331,-1,5
355,0.67373,3.8513,-1,5
356,0.67768,3.8691,-1,5
357,0.6856,3.8877,-1,5
358,0.6856,3.9047,-1,5
359,0.69359,3.9215,-1,5
360,0.69359,3.9371,-1,5
361,0.6976,3.9524,-1,5
362,0.70162,3.9673,-1,5
363,0.70566,3.9813,-1,5
364,0.70971,3.9948,-1,5
365,0.71376,4.0076,-1,5
366,0.71783,4.0198,-1,5
367,0.72191,4.0314,-1,5
368,0.726,4.0419,-1,5
369,0.73009,4.0515,-1,5
370,0.73419,4.0621,-1,5
371,0.73831,4.0722,-1,5
372,0.74242,4.0813,-1,5
373,0.74655,4.09,-1,5
374,0.75067,4.098,-1,5
375,0.75481,4.1054,-1,5
376,0.75894,4.1122,-1,5
377,0.76308,4.1176,-1,5
378,0.76722,4.123,-1,5
379,0.77137,4.1279,-1,5
380,0.77551,4.1316,-1,5
381,0.77966,4.135,-1,5
382,0.7838,4.1376,-1,5
383,0.78795,4.14,-1,5
384,0.79209,4.1415,-1,5
385,0.79623,4.1426,-1,5
386,0.80037,4.1428,-1,5
387,0.80451,4.1422,-1,5
388,0.80864,4.1411,-1,5
389,0.81277,4.1396,-1,5
390,0.81689,4.1378,-1,5
391,0.82101,4.135,-1,5
392,0.82512,4.1317,-1,5
393,0.82922,4.1271,-1,5
394,0.83331,4.1223,-1,5
395,0.8374,4.1168,-1,5
396,0.84148,4.1112,-1,5
397,0.84556,4.105,-1,5
398,0.84962,4.0978,-1,5
399,0.85367,4.09,-1,5
400,0.85771,4.0819,-1,5
401,0.86174,4.0732,-1,5
402,0.86576,4.0641,-1,5
403,0.86977,4.0546,-1,5
404,0.87376,4.0449,-1,5
405,0.87775,4.0346,-1,5
406,0.88172,4.0239,-1,5
407,0.88568,4.0122,-1,5
408,0.88963,4.001,-1,5
409,0.89356,3.9891,-1,5
410,0.89748,3.9766,-1,5
411,0.90138,3.9638,-1,5
412,0.90527,3.951,-1,5
413,0.90915,3.9377,-1,5
414,0.91301,3.9239,-1,5
415,0.91685,3.9097,-1,5
416,0.92068,3.8952,-1,5
417,0.92449,3.8792,-1,5
418,0.93207,3.8628,-1,5
419,0.93207,3.8465,-1,5
420,0.93584,3.8316,-1,5
421,0.93959,3.8162,-1,5
422,0.94332,3.8003,-1,5
423,0.94704,3.7848,-1,5
424,0.95074,3.7691,-1,5
425,0.95442,3.7534,-1,5
426,0.95809,3.7375,-1,5
427,0.96175,3.7231,-1,5
428,0.96538,3.7084,-1,5
429,0.969,3.6933,-1,5
430,0.9726,3.6764,-1,5
431,0.97619,3.6603,-1,5
432,0.97976,3.6439,-1,5
433,0.98331,3.6274,-1,5
434,0.98685,3.6106,-1,5
435,0.99037,3.5941,-1,5
436,0.99387,3.5775,-1,5
437,0.99736,3.5611,-1,5
438,1.00083,3.5443,-1,5
439,1.00428,3.5282,-1,5
440,1.00772,3.5122,-1,5
441,1.01115,3.4962,-1,5
442,1.01456,3.4806,-1,5
443,1.01796,3.4646,-1,5
444,1.02134,3.4497,-1,5
445,1.02471,3.435,-1,5
446,1.02807,3.42,-1,5
447,1.03141,3.4051,-1,5
448,1.03474,3.3911,-1,5
449,1.03805,3.3768,-1,5
450,1.04136,3.3633,-1,5
451,1.04465,3.3498,-1,5
452,1.04793,3.3365,-1,5
453,1.05119,3.3237,-1,5
454,1.05445,3.3106,-1,5
455,1.05769,3.2977,-1,5
456,1.06093,3.2858,-1,5
457,1.06415,3.274,-1,5
458,1.06736,3.2626,-1,5
459,1.07057,3.2518,-1,5
460,1.07376,3.2406,-1,5
461,1.07695,3.23,-1,5
462,1.08013,3.2198,-1,5
463,1.08329,3.2101,-1,5
464,1.08645,3.2005,-1,5
465,1.0896,3.1912,-1,5
466,1.09275,3.182,-1,5
467,1.09588,3.1733,-1,5
468,1.09901,3.165,-1,5
469,1.10213,3.1562,-1,5
470,1.10524,3.1477,-1,5
471,1.10835,3.1398,-1,5
472,1.11144,3.1317,-1,5
473,1.11453,3.1238,-1,5
474,1.11762,3.1161,-1,5
475,1.12069,3.1084,-1,5
476,1.12376,3.1011,-1,5
477,1.12682,3.0941,-1,5
478,1.12988,3.0865,-1,5
479,1.13293,3.0796,-1,5
480,1.13597,3.0731,-1,5
481,1.13901,3.0662,-1,5
482,1.14204,3.0593,-1,5
483,1.14506,3.0526,-1,5
484,1.14808,3.0461,-1,5
485,1.15108,3.0395,-1,5
486,1.15409,3.0329,-1,5
487,1.15709,3.0261,-1,5
488,1.16008,3.0196,-1,5
489,1.16306,3.0135,-1,5
490,1.16604,3.0071,-1,5
491,1.16901,3.0001,-1,5
492,1.17198,2.9941,-1,5
493,1.17494,2.9878,-1,5
494,1.17789,2.9814,-1,5
495,1.18084,2.975,-1,5
496,1.18378,2.9687,-1,5
497,1.18671,2.9622,-1,5
498,1.18964,2.956,-1,5
499,1.19256,2.9495,-1,5
500,1.19548,2.9432,-1,5
501,1.19838,2.937,-1,5
502,1.20129,2.9308,-1,5
503,1.20418,2.9246,-1,5
504,1.20708,2.9184,-1,5
505,1.20996,2.9129,-1,5
506,1.21285,2.9068,-1,5
507,1.21572,2.9011,-1,5
508,1.21859,2.8955,-1,5
509,1.22146,2.8896,-1,5
510,1.22432,2.8846,-1,5
511,1.22718,2.8796,-1,5
512,1.23003,2.8742,-1,5
513,1.23288,2.8694,-1,5
514,1.23572,2.8645,-1,5
515,1.23856,2.8597,-1,5
516,1.2414,2.8558,-1,5
517,1.24423,2.8512,-1,5
518,1.24706,2.8468,-1,5
519,1.24989,2.8431,-1,5
520,1.25271,2.8388,-1,5
521,1.25553,2.8351,-1,5
522,1.25835,2.8317,-1,5
523,1.26116,2.828,-1,5
524,1.26397,2.8247,-1,5
525,1.26678,2.8217,-1,5
526,1.26958,2.818,-1,5
527,1.27239,2.8154,-1,5
528,1.27519,2.8128,-1,5
529,1.27799,2.8101,-1,5
530,1.28079,2.8076,-1,5
531,1.28358,2.8051,-1,5
532,1.28638,2.803,-1,5
533,1.28917,2.8013,-1,5
534,1.29197,2.7998,-1,5
535,1.29476,2.7983,-1,5
536,1.29756,2.7975,-1,5
537,1.30035,2.7966,-1,5
538,1.30315,2.7962,-1,5
539,1.30875,2.7961,-1,5
540,1.31155,2.7961,-1,5
541,1.31435,2.7972,-1,5
542,1.31716,2.7983,-1,5
543,1.31996,2.7994,-1,5
544,1.32278,2.801,-1,5
545,1.32559,2.803,-1,5
546,1.32841,2.8054,-1,5
547,1.33124,2.8086,-1,5
548,1.33407,2.8117,-1,5
549,1.3369,2.8154,-1,5
550,1.33974,2.8196,-1,5
551,1.34259,2.8243,-1,5
552,1.34545,2.8292,-1,5
553,1.34831,2.8349,-1,5
554,1.35119,2.8413,-1,5
555,1.35407,2.848,-1,5
556,1.35696,2.855,-1,5
557,1.35986,2.8623,-1,5
558,1.36277,2.8706,-1,5
559,1.36569,2.8793,-1,5
560,1.36862,2.8882,-1,5
561,1.37157,2.8974,-1,5
562,1.37452,2.9073,-1,5
563,1.37749,2.9174,-1,5
564,1.38047,2.9283,-1,5
565,1.38346,2.9392,-1,5
566,1.38647,2.9505,-1,5
567,1.38948,2.9623,-1,5
568,1.39252,2.9744,-1,5
569,1.39556,2.9867,-1,5
570,1.39863,3.0001,-1,5
571,1.4017,3.013,-1,5
572,1.40479,3.0265,-1,5
573,1.4079,3.0409,-1,5
574,1.41102,3.0552,-1,5
575,1.41416,3.0699,-1,5
576,1.41732,3.0854,-1,5
577,1.4205,3.1013,-1,5
578,1.42369,3.1173,-1,5
579,1.4269,3.1336,-1,5
580,1.43013,3.1504,-1,5
581,1.43338,3.1677,-1,5
582,1.43665,3.1857,-1,5
583,1.43994,3.2038,-1,5
584,1.44325,3.2221,-1,5
585,1.44658,3.2412,-1,5
586,1.44993,3.2604,-1,5
587,1.4533,3.2799,-1,5
588,1.45669,3.2999,-1,5
589,1.46011,3.3206,-1,5
590,1.46354,3.3411,-1,5
591,1.467,3.3627,-1,5
592,1.47049,3.3841,-1,5
593,1.474,3.4059,-1,5
594,1.47752,3.4279,-1,5
595,1.48107,3.4498,-1,5
596,1.48465,3.472,-1,5
597,1.48824,3.4947,-1,5
598,1.49187,3.5178,-1,5
599,1.49552,3.5414,-1,5
600,1.49919,3.5652,-1,5
601,1.50289,3.5888,-1,5
602,1.50662,3.6128,-1,5
603,1.51037,3.6373,-1,5
604,1.51415,3.6624,-1,5
605,1.51796,3.6883,-1,5
606,1.52179,3.7148,-1,5
607,1.52566,3.7416,-1,5
608,1.52955,3.7684,-1,5
609,1.53347,3.7983,-1,5
610,1.53742,3.8288,-1,5
611,1.54541,3.8599,-1,5
612,1.54945,3.8915,-1,5
613,1.55353,3.9236,-1,5
614,1.55763,3.9558,-1,5
615,1.56176,3.9883,-1,5
616,1.56592,4.0206,-1,5
617,1.57011,4.053,-1,5
618,1.57433,4.0859,-1,5
619,1.57859,4.1167,-1,5
620,1.58288,4.1475,-1,5
621,1.5872,4.1787,-1,5
622,1.59155,4.2094,-1,5
623,1.59592,4.2398,-1,5
624,1.60033,4.2703,-1,5
625,1.60477,4.3009,-1,5
626,1.60924,4.3319,-1,5
627,1.61374,4.3626,-1,5
628,1.61827,4.3935,-1,5
629,1.62283,4.4234,-1,5
630,1.62741,4.4529,-1,5
631,1.63202,4.4817,-1,5
632,1.63666,4.5114,-1,5
633,1.64133,4.5407,-1,5
634,1.64603,4.5694,-1,5
635,1.65074,4.597,-1,5
636,1.65549,4.6244,-1,5
637,1.66025,4.6514,-1,5
638,1.66505,4.6778,-1,5
639,1.66986,4.703,-1,5
640,1.67469,4.7282,-1,5
641,1.67954,4.7522,-1,5
642,1.68441,4.7752,-1,5
643,1.6893,4.7971,-1,5
644,1.69421,4.8184,-1,5
645,1.69913,4.839,-1,5
646,1.70407,4.8585,-1,5
647,1.70902,4.8768,-1,5
648,1.71399,4.8938,-1,5
649,1.71896,4.9102,-1,5
650,1.72395,4.9256,-1,5
651,1.72895,4.9404,-1,5
652,1.73395,4.9535,-1,5
653,1.73897,4.966,-1,5
654,1.74399,4.9774,-1,5
655,1.74901,4.9878,-1,5
656,1.75404,4.997,-1,5
657,1.75908,5.0058,-1,5
658,1.76412,5.013,-1,5
659,1.76915,5.0194,-1,5
660,1.77419,5.0243,-1,5
661,1.77923,5.0288,-1,5
662,1.78427,5.0325,-1,5
663,1.78931,5.035,-1,5
664,1.79435,5.0362,-1,5
665,1.79938,5.0369,-1,5
666,1.80441,5.0368,-1,5
667,1.80944,5.036,-1,5
668,1.81446,5.0345,-1,5
669,1.81947,5.032,-1,5
670,1.82448,5.0288,-1,5
671,1.82948,5.0249,-1,5
672,1.83448,5.0205,-1,5
673,1.83947,5.0156,-1,5
674,1.84445,5.0101,-1,5
675,1.84941,5.0036,-1,5
676,1.85438,4.9967,-1,5
677,1.85933,4.9892,-1,5
678,1.86428,4.9817,-1,5
679,1.86921,4.9738,-1,5
680,1.87414,4.9658,-1,5
681,1.87905,4.9566,-1,5
682,1.88395,4.9469,-1,5
683,1.88884,4.9366,-1,5
684,1.89372,4.9269,-1,5
685,1.89858,4.9167,-1,5
686,1.90343,4.9058,-1,5
687,1.90827,4.8939,-1,5
688,1.91309,4.8815,-1,5
689,1.9179,4.8692,-1,5
690,1.9227,4.8569,-1,5
691,1.92749,4.8442,-1,5
692,1.93226,4.8312,-1,5
693,1.93701,4.8175,-1,5
694,1.94175,4.8033,-1,5
695,1.94648,4.7895,-1,5
696,1.95119,4.7755,-1,5
697,1.95588,4.7611,-1,5
698,1.96055,4.746,-1,5
699,1.96521,4.731,-1,5
700,1.96986,4.7156,-1,5
701,1.97449,4.7003,-1,5
702,1.97911,4.6846,-1,5
703,1.98371,4.6696,-1,5
704,1.98829,4.6539,-1,5
705,1.99286,4.638,-1,5
706,1.99741,4.622,-1,5
707,2.00195,4.6067,-1,5
708,2.00647,4.5916,-1,5
709,2.01097,4.5763,-1,5
710,2.01547,4.5606,-1,5
711,2.01994,4.545,-1,5
712,2.0244,4.5292,-1,5
713,2.02884,4.5133,-1,5
714,2.03327,4.4978,-1,5
715,2.03768,4.4823,-1,5
716,2.04207,4.4667,-1,5
717,2.04645,4.4508,-1,5
718,2.05082,4.4351,-1,5
719,2.05517,4.4192,-1,5
720,2.0595,4.4038,-1,5
721,2.06382,4.3884,-1,5
722,2.06813,4.373,-1,5
723,2.07241,4.3573,-1,5
724,2.07668,4.3419,-1,5
725,2.08094,4.3267,-1,5
726,2.08519,4.3111,-1,5
727,2.08941,4.2956,-1,5
728,2.09362,4.2802,-1,5
729,2.09781,4.2647,-1,5
730,2.10199,4.2488,-1,5
731,2.10615,4.2329,-1,5
732,2.1103,4.2171,-1,5
733,2.11443,4.2014,-1,5
734,2.11854,4.1855,-1,5
735,2.12264,4.1692,-1,5
736,2.12672,4.1534,-1,5
737,2.13078,4.1369,-1,5
738,2.13482,4.1206,-1,5
739,2.13885,4.1042,-1,5
740,2.14287,4.088,-1,5
741,2.14687,4.072,-1,5
742,2.15085,4.0557,-1,5
743,2.15482,4.0395,-1,5
744,2.15877,4.0232,-1,5
745,2.1627,4.0067,-1,5
746,2.16662,3.9899,-1,5
747,2.17052,3.9739,-1,5
748,2.1744,3.9577,-1,5
749,2.17827,3.9413,-1,5
750,2.18211,3.9246,-1,5
751,2.18595,3.9077,-1,5
752,2.18976,3.8911,-1,5
753,2.19356,3.8746,-1,5
754,2.19735,3.8579,-1,5
755,2.20112,3.8416,-1,5
756,2.20487,3.8255,-1,5
757,2.2086,3.8089,-1,5
758,2.21233,3.7926,-1,5
759,2.21603,3.7765,-1,5
760,2.21972,3.7607,-1,5
761,2.2234,3.745,-1,5
762,2.22706,3.7295,-1,5
763,2.23071,3.7142,-1,5
764,2.23434,3.6989,-1,5
765,2.23796,3.6821,-1,5
766,2.24156,3.667,-1,5
767,2.24515,3.6524,-1,5
768,2.24872,3.6377,-1,5
769,2.25228,3.6231,-1,5
770,2.25583,3.6087,-1,5
771,2.25936,3.5928,-1,5
772,2.26288,3.5771,-1,5
773,2.26638,3.5613,-1,5
774,2.26987,3.5457,-1,5
775,2.27335,3.5313,-1,5
776,2.2768,3.5169,-1,5
777,2.28025,3.5025,-1,5
778,2.28368,3.4884,-1,5
779,2.28711,3.4749,-1,5
780,2.29052,3.4612,-1,5
781,2.29391,3.4489,-1,5
782,2.29729,3.4367,-1,5
783,2.30066,3.4244,-1,5
784,2.30401,3.4126,-1,5
785,2.30736,3.4015,-1,5
786,2.3107,3.3893,-1,5
787,2.31402,3.3774,-1,5
788,2.31734,3.3654,-1,5
789,2.32064,3.3531,-1,5
790,2.32393,3.3416,-1,5
791,2.32722,3.3306,-1,5
792,2.33049,3.3201,-1,5
793,2.33376,3.3102,-1,5
794,2.33702,3.3003,-1,5
795,2.34027,3.2912,-1,5
796,2.34353,3.283,-1,5
797,2.34677,3.275,-1,5
798,2.35001,3.2675,-1,5
799,2.35325,3.2609,-1,5
800,2.35647,3.2541,-1,5
801,2.3597,3.2479,-1,5
802,2.36291,3.242,-1,5
803,2.36613,3.2367,-1,5
804,2.36934,3.2324,-1,5
805,2.37256,3.2286,-1,5
806,2.37578,3.2248,-1,5
807,2.379,3.2221,-1,5
808,2.38221,3.2201,-1,5
809,2.38543,3.2185,-1,5
810,2.38865,3.2179,-1,5
811,2.39188,3.2181,-1,5
812,2.3951,3.2187,-1,5
813,2.39833,3.2201,-1,5
814,2.40156,3.2225,-1,5
815,2.40805,3.2256,-1,5
816,2.41131,3.2296,-1,5
817,2.41457,3.2344,-1,5
818,2.41785,3.2406,-1,5
819,2.42114,3.2475,-1,5
820,2.42444,3.2555,-1,5
821,2.42776,3.2648,-1,5
822,2.43109,3.2755,-1,5
823,2.43444,3.2872,-1,5
824,2.4378,3.2995,-1,5
825,2.44118,3.3127,-1,5
826,2.44458,3.3268,-1,5
827,2.44799,3.342,-1,5
828,2.45143,3.3579,-1,5
829,2.4549,3.3754,-1,5
830,2.45838,3.394,-1,5
831,2.46189,3.4134,-1,5
832,2.46543,3.434,-1,5
833,2.46899,3.4558,-1,5
834,2.47258,3.4786,-1,5
835,2.47621,3.5026,-1,5
836,2.47985,3.5278,-1,5
837,2.48354,3.5543,-1,5
838,2.48725,3.582,-1,5
