cnt,pos,speed,Dir,Force,
1,0,1.006,-1,5
2,0.00106001,1.0144,-1,5
3,0.00213003,1.0233,-1,5
4,0.00319982,1.0311,-1,5
5,0.00425982,1.0382,-1,5
6,0.00532985,1.0459,-1,5
7,0.00642991,1.0547,-1,5
8,0.00753999,1.0631,-1,5
9,0.00863981,1.0705,-1,5
10,0.00973988,1.0774,-1,5
11,0.01086,1.0856,-1,5
12,0.0119998,1.0941,-1,5
13,0.01314,1.1013,-1,5
14,0.0142698,1.1075,-1,5
15,0.0154099,1.115,-1,5
16,0.0165799,1.1244,-1,5
17,0.01775,1.1328,-1,5
18,0.0189199,1.1386,-1,5
19,0.0200899,1.1443,-1,5
20,0.02127,1.1526,-1,5
21,0.02248,1.1617,-1,5
22,0.02368,1.1688,-1,5
23,0.0248899,1.1748,-1,5
24,0.0260999,1.1825,-1,5
25,0.0273199,1.1915,-1,5
26,0.0285599,1.1984,-1,5
27,0.0297899,1.204,-1,5
28,0.03104,1.2116,-1,5
29,0.03229,1.2208,-1,5
30,0.03355,1.2286,-1,5
31,0.0348198,1.2349,-1,5
32,0.0360999,1.2416,-1,5
33,0.03738,1.2491,-1,5
34,0.0386598,1.2566,-1,5
35,0.0399599,1.2635,-1,5
36,0.04127,1.2711,-1,5
37,0.0425799,1.2782,-1,5
38,0.04388,1.2844,-1,5
39,0.0451999,1.2911,-1,5
40,0.04654,1.2987,-1,5
41,0.0478799,1.3056,-1,5
42,0.0492198,1.312,-1,5
43,0.05057,1.3189,-1,5
44,0.0519199,1.3258,-1,5
45,0.0532799,1.3323,-1,5
46,0.0546598,1.3389,-1,5
47,0.0560398,1.3463,-1,5
48,0.05742,1.3536,-1,5
49,0.0588,1.36,-1,5
50,0.0602,1.3663,-1,5
51,0.06161,1.3729,-1,5
52,0.06302,1.3799,-1,5
53,0.06444,1.3874,-1,5
54,0.06586,1.3942,-1,5
55,0.0672898,1.4004,-1,5
56,0.0687199,1.4061,-1,5
57,0.0701699,1.4126,-1,5
58,0.07162,1.4199,-1,5
59,0.0730798,1.427,-1,5
60,0.0745399,1.4332,-1,5
61,0.076,1.4389,-1,5
62,0.0774698,1.4449,-1,5
63,0.0789499,1.4514,-1,5
64,0.0804498,1.4584,-1,5
65,0.0819399,1.4654,-1,5
66,0.0834398,1.4722,-1,5
67,0.08495,1.478,-1,5
68,0.0864599,1.4841,-1,5
69,0.08798,1.4909,-1,5
70,0.08952,1.4981,-1,5
71,0.0910499,1.505,-1,5
72,0.0925899,1.5118,-1,5
73,0.0941298,1.5177,-1,5
74,0.09569,1.5239,-1,5
75,0.09725,1.531,-1,5
76,0.09882,1.5376,-1,5
77,0.10039,1.544,-1,5
78,0.10196,1.5503,-1,5
79,0.10355,1.5563,-1,5
80,0.10514,1.5624,-1,5
81,0.10674,1.5693,-1,5
82,0.10834,1.5758,-1,5
83,0.10995,1.5816,-1,5
84,0.11157,1.588,-1,5
85,0.1132,1.5944,-1,5
86,0.11483,1.601,-1,5
87,0.11647,1.6079,-1,5
88,0.1181,1.614,-1,5
89,0.11975,1.6202,-1,5
90,0.12142,1.6272,-1,5
91,0.12308,1.6341,-1,5
92,0.12475,1.6405,-1,5
93,0.12642,1.6481,-1,5
94,0.1298,1.656,-1,5
95,0.1298,1.6634,-1,5
96,0.1332,1.6701,-1,5
97,0.13491,1.6767,-1,5
98,0.13662,1.6846,-1,5
99,0.13835,1.6929,-1,5
100,0.14009,1.7003,-1,5
101,0.14183,1.7073,-1,5
102,0.14357,1.7147,-1,5
103,0.14532,1.7215,-1,5
104,0.14708,1.7279,-1,5
105,0.14885,1.7347,-1,5
106,0.15063,1.7423,-1,5
107,0.1524,1.7498,-1,5
108,0.15419,1.7565,-1,5
109,0.15598,1.7624,-1,5
110,0.15778,1.7687,-1,5
111,0.15959,1.7762,-1,5
112,0.1614,1.7835,-1,5
113,0.16322,1.7902,-1,5
114,0.16504,1.796,-1,5
115,0.16687,1.8019,-1,5
116,0.16872,1.8091,-1,5
117,0.17057,1.8162,-1,5
118,0.17241,1.8223,-1,5
119,0.17426,1.8285,-1,5
120,0.17612,1.8345,-1,5
121,0.178,1.8409,-1,5
122,0.17988,1.8473,-1,5
123,0.18175,1.8533,-1,5
124,0.18363,1.8594,-1,5
125,0.18552,1.8655,-1,5
126,0.18743,1.8711,-1,5
127,0.18933,1.8768,-1,5
128,0.19123,1.8825,-1,5
129,0.19314,1.888,-1,5
130,0.19506,1.8934,-1,5
131,0.19699,1.8986,-1,5
132,0.19892,1.9039,-1,5
133,0.20084,1.9092,-1,5
134,0.20277,1.9138,-1,5
135,0.20471,1.9183,-1,5
136,0.20666,1.923,-1,5
137,0.20861,1.9276,-1,5
138,0.21055,1.9318,-1,5
139,0.2125,1.9357,-1,5
140,0.21446,1.9398,-1,5
141,0.21642,1.9437,-1,5
142,0.21839,1.9469,-1,5
143,0.22035,1.9501,-1,5
144,0.22231,1.9537,-1,5
145,0.22428,1.9572,-1,5
146,0.22626,1.9598,-1,5
147,0.22823,1.9617,-1,5
148,0.2302,1.9647,-1,5
149,0.23217,1.9673,-1,5
150,0.23415,1.9697,-1,5
151,0.23613,1.9711,-1,5
152,0.23811,1.9728,-1,5
153,0.24009,1.9745,-1,5
154,0.24207,1.9759,-1,5
155,0.24405,1.977,-1,5
156,0.24604,1.9781,-1,5
157,0.24802,1.9794,-1,5
158,0.25,1.9799,-1,5
159,0.25198,1.9805,-1,5
160,0.25397,1.9817,-1,5
161,0.25596,1.9825,-1,5
162,0.25795,1.983,-1,5
163,0.25992,1.9831,-1,5
164,0.26191,1.9842,-1,5
165,0.26391,1.9856,-1,5
166,0.2659,1.9857,-1,5
167,0.26788,1.9856,-1,5
168,0.26986,1.9859,-1,5
169,0.27185,1.9876,-1,5
170,0.27385,1.9879,-1,5
171,0.27584,1.9875,-1,5
172,0.27782,1.9875,-1,5
173,0.27981,1.9885,-1,5
174,0.28181,1.9897,-1,5
175,0.2838,1.9897,-1,5
176,0.28579,1.9897,-1,5
177,0.28778,1.9902,-1,5
178,0.28977,1.9916,-1,5
179,0.29178,1.9927,-1,5
180,0.29378,1.993,-1,5
181,0.29577,1.9938,-1,5
182,0.29776,1.9945,-1,5
183,0.29977,1.9963,-1,5
184,0.30178,1.9977,-1,5
185,0.30379,1.9984,-1,5
186,0.30578,1.9991,-1,5
187,0.30779,2.0007,-1,5
188,0.3098,2.003,-1,5
189,0.31182,2.0042,-1,5
190,0.31383,2.005,-1,5
191,0.31584,2.0064,-1,5
192,0.31786,2.0093,-1,5
193,0.31989,2.0118,-1,5
194,0.32191,2.0131,-1,5
195,0.32393,2.0145,-1,5
196,0.32595,2.0169,-1,5
197,0.32799,2.0205,-1,5
198,0.33004,2.0232,-1,5
199,0.33207,2.0246,-1,5
200,0.3341,2.027,-1,5
201,0.33614,2.0301,-1,5
202,0.33819,2.0337,-1,5
203,0.34025,2.0361,-1,5
204,0.34229,2.038,-1,5
205,0.34434,2.0406,-1,5
206,0.34639,2.0441,-1,5
207,0.34846,2.0473,-1,5
208,0.35053,2.0492,-1,5
209,0.35258,2.0515,-1,5
210,0.35464,2.054,-1,5
211,0.35671,2.0575,-1,5
212,0.35879,2.0598,-1,5
213,0.36086,2.0611,-1,5
214,0.36292,2.0628,-1,5
215,0.36499,2.0655,-1,5
216,0.36708,2.0687,-1,5
217,0.36916,2.0698,-1,5
218,0.37123,2.0706,-1,5
219,0.37331,2.0723,-1,5
220,0.37539,2.0749,-1,5
221,0.37748,2.0765,-1,5
222,0.37956,2.0767,-1,5
223,0.38164,2.0776,-1,5
224,0.38371,2.0789,-1,5
225,0.3858,2.0805,-1,5
226,0.38788,2.0802,-1,5
227,0.38996,2.08,-1,5
228,0.39203,2.08,-1,5
229,0.39411,2.0805,-1,5
230,0.39619,2.0805,-1,5
231,0.39827,2.0794,-1,5
232,0.40034,2.0782,-1,5
233,0.40241,2.0771,-1,5
234,0.40448,2.0769,-1,5
235,0.40655,2.0752,-1,5
236,0.40861,2.0729,-1,5
237,0.41066,2.0704,-1,5
238,0.41272,2.0689,-1,5
239,0.41478,2.067,-1,5
240,0.41683,2.0635,-1,5
241,0.41887,2.0597,-1,5
242,0.4209,2.0565,-1,5
243,0.42294,2.0538,-1,5
244,0.42498,2.05,-1,5
245,0.427,2.0453,-1,5
246,0.42902,2.0409,-1,5
247,0.43103,2.0367,-1,5
248,0.43305,2.0325,-1,5
249,0.43505,2.0271,-1,5
250,0.43705,2.0219,-1,5
251,0.43903,2.0162,-1,5
252,0.44102,2.0112,-1,5
253,0.443,2.0056,-1,5
254,0.44497,1.9989,-1,5
255,0.44692,1.9921,-1,5
256,0.44887,1.9856,-1,5
257,0.45083,1.9799,-1,5
258,0.45278,1.9732,-1,5
259,0.4547,1.9654,-1,5
260,0.45662,1.9577,-1,5
261,0.45854,1.9512,-1,5
262,0.46046,1.9444,-1,5
263,0.46236,1.9362,-1,5
264,0.46424,1.9278,-1,5
265,0.46613,1.9206,-1,5
266,0.46801,1.9134,-1,5
267,0.46988,1.9055,-1,5
268,0.47174,1.8965,-1,5
269,0.47359,1.8886,-1,5
270,0.47543,1.8811,-1,5
271,0.47727,1.8732,-1,5
272,0.47911,1.8648,-1,5
273,0.48093,1.8566,-1,5
274,0.48273,1.849,-1,5
275,0.48454,1.8415,-1,5
276,0.48635,1.8338,-1,5
277,0.48814,1.8257,-1,5
278,0.48993,1.8185,-1,5
279,0.4917,1.8114,-1,5
280,0.49348,1.8045,-1,5
281,0.49525,1.7974,-1,5
282,0.49701,1.7904,-1,5
283,0.49877,1.7842,-1,5
284,0.50051,1.7779,-1,5
285,0.50226,1.7715,-1,5
286,0.504,1.7654,-1,5
287,0.50574,1.7598,-1,5
288,0.50747,1.7548,-1,5
289,0.5092,1.7496,-1,5
290,0.51092,1.7441,-1,5
291,0.51264,1.7398,-1,5
292,0.51437,1.7359,-1,5
293,0.51609,1.732,-1,5
294,0.5178,1.7286,-1,5
295,0.51951,1.7252,-1,5
296,0.52123,1.7228,-1,5
297,0.52295,1.7207,-1,5
298,0.52465,1.7179,-1,5
299,0.52636,1.7163,-1,5
300,0.52808,1.7159,-1,5
301,0.5298,1.7153,-1,5
302,0.53152,1.7148,-1,5
303,0.53323,1.7143,-1,5
304,0.53495,1.7152,-1,5
305,0.53668,1.7176,-1,5
306,0.53842,1.7194,-1,5
307,0.54015,1.7208,-1,5
308,0.54189,1.7252,-1,5
309,0.54541,1.7312,-1,5
310,0.54718,1.7365,-1,5
311,0.54895,1.7413,-1,5
312,0.55073,1.7472,-1,5
313,0.55253,1.7559,-1,5
314,0.55434,1.7654,-1,5
315,0.55616,1.774,-1,5
316,0.55798,1.7824,-1,5
317,0.55982,1.7933,-1,5
318,0.56169,1.8048,-1,5
319,0.56358,1.8164,-1,5
320,0.56547,1.8286,-1,5
321,0.56736,1.8416,-1,5
322,0.56929,1.8565,-1,5
323,0.57124,1.8717,-1,5
324,0.57321,1.8871,-1,5
325,0.57519,1.9032,-1,5
326,0.57719,1.9212,-1,5
327,0.57923,1.9402,-1,5
328,0.58128,1.9589,-1,5
329,0.58335,1.9778,-1,5
330,0.58545,1.9983,-1,5
331,0.58757,2.0208,-1,5
332,0.58972,2.0427,-1,5
333,0.5919,2.0651,-1,5
334,0.5941,2.0887,-1,5
335,0.59633,2.1135,-1,5
336,0.59858,2.1388,-1,5
337,0.60087,2.1641,-1,5
338,0.60318,2.1901,-1,5
339,0.60553,2.2178,-1,5
340,0.60791,2.2464,-1,5
341,0.61033,2.2756,-1,5
342,0.61277,2.3055,-1,5
343,0.61525,2.3353,-1,5
344,0.61776,2.3658,-1,5
345,0.62031,2.3979,-1,5
346,0.62289,2.4312,-1,5
347,0.62551,2.4642,-1,5
348,0.62816,2.4976,-1,5
349,0.63085,2.5315,-1,5
350,0.63357,2.5661,-1,5
351,0.63633,2.6007,-1,5
352,0.63913,2.6358,-1,5
353,0.64197,2.6725,-1,5
354,0.64485,2.7094,-1,5
355,0.64777,2.7459,-1,5
356,0.65073,2.7831,-1,5
357,0.65372,2.821,-1,5
358,0.65675,2.8596,-1,5
359,0.65983,2.8984,-1,5
360,0.66295,2.9372,-1,5
361,0.6661,2.9763,-1,5
362,0.66929,3.0158,-1,5
363,0.67252,3.0548,-1,5
364,0.67579,3.094,-1,5
365,0.6791,3.1334,-1,5
366,0.68245,3.1723,-1,5
367,0.68583,3.2112,-1,5
368,0.68925,3.25,-1,5
369,0.69271,3.288,-1,5
370,0.69621,3.3262,-1,5
371,0.69974,3.364,-1,5
372,0.70331,3.4014,-1,5
373,0.70691,3.4383,-1,5
374,0.71054,3.4747,-1,5
375,0.71421,3.5108,-1,5
376,0.71792,3.5468,-1,5
377,0.72166,3.5822,-1,5
378,0.72543,3.617,-1,5
379,0.72923,3.6519,-1,5
380,0.73307,3.6856,-1,5
381,0.73693,3.7191,-1,5
382,0.74082,3.7517,-1,5
383,0.74475,3.7843,-1,5
384,0.7487,3.8159,-1,5
385,0.75268,3.8472,-1,5
386,0.75669,3.8774,-1,5
387,0.76073,3.9077,-1,5
388,0.7648,3.937,-1,5
389,0.76888,3.9652,-1,5
390,0.773,3.9929,-1,5
391,0.77713,4.02,-1,5
392,0.78129,4.0467,-1,5
393,0.78548,4.0727,-1,5
394,0.78968,4.0979,-1,5
395,0.79391,4.1223,-1,5
396,0.79815,4.1457,-1,5
397,0.80241,4.1679,-1,5
398,0.80669,4.1894,-1,5
399,0.81099,4.2105,-1,5
400,0.8153,4.2305,-1,5
401,0.81962,4.2495,-1,5
402,0.82396,4.2676,-1,5
403,0.82832,4.2843,-1,5
404,0.83268,4.3005,-1,5
405,0.83706,4.3153,-1,5
406,0.84145,4.3302,-1,5
407,0.84585,4.3437,-1,5
408,0.85025,4.3566,-1,5
409,0.85467,4.3682,-1,5
410,0.85909,4.3797,-1,5
411,0.86353,4.3902,-1,5
412,0.86796,4.4001,-1,5
413,0.87241,4.4092,-1,5
414,0.87686,4.4178,-1,5
415,0.88131,4.4253,-1,5
416,0.88577,4.4317,-1,5
417,0.89022,4.4377,-1,5
418,0.89468,4.4431,-1,5
419,0.89914,4.4477,-1,5
420,0.90361,4.4512,-1,5
421,0.90807,4.4541,-1,5
422,0.91252,4.4556,-1,5
423,0.91698,4.4568,-1,5
424,0.92143,4.4569,-1,5
425,0.92588,4.4568,-1,5
426,0.93032,4.4556,-1,5
427,0.93477,4.4543,-1,5
428,0.9392,4.4517,-1,5
429,0.94363,4.4483,-1,5
430,0.94804,4.444,-1,5
431,0.95246,4.4395,-1,5
432,0.95687,4.4353,-1,5
433,0.96128,4.4308,-1,5
434,0.96568,4.4257,-1,5
435,0.97007,4.4195,-1,5
436,0.97444,4.4125,-1,5
437,0.97881,4.4049,-1,5
438,0.98318,4.3981,-1,5
439,0.98754,4.3916,-1,5
440,0.99189,4.3849,-1,5
441,0.99623,4.3768,-1,5
442,1.00055,4.3677,-1,5
443,1.00487,4.3583,-1,5
444,1.00918,4.3493,-1,5
445,1.01348,4.3406,-1,5
446,1.01777,4.3321,-1,5
447,1.02204,4.3226,-1,5
448,1.0263,4.3116,-1,5
449,1.03054,4.3001,-1,5
450,1.03478,4.2892,-1,5
451,1.03902,4.279,-1,5
452,1.04323,4.2684,-1,5
453,1.04743,4.2565,-1,5
454,1.05162,4.244,-1,5
455,1.05579,4.2312,-1,5
456,1.05995,4.2183,-1,5
457,1.0641,4.206,-1,5
458,1.06824,4.1942,-1,5
459,1.07236,4.1818,-1,5
460,1.07647,4.1687,-1,5
461,1.08057,4.1554,-1,5
462,1.08466,4.1426,-1,5
463,1.08873,4.13,-1,5
464,1.09279,4.1173,-1,5
465,1.09683,4.1047,-1,5
466,1.10087,4.0922,-1,5
467,1.10489,4.0793,-1,5
468,1.1089,4.0661,-1,5
469,1.11289,4.0532,-1,5
470,1.11688,4.0405,-1,5
471,1.12084,4.0275,-1,5
472,1.1248,4.0144,-1,5
473,1.12875,4.0017,-1,5
474,1.13268,3.9888,-1,5
475,1.13659,3.976,-1,5
476,1.1405,3.9631,-1,5
477,1.1444,3.9506,-1,5
478,1.14828,3.938,-1,5
479,1.15215,3.9256,-1,5
480,1.156,3.9127,-1,5
481,1.15985,3.9002,-1,5
482,1.16368,3.8876,-1,5
483,1.16749,3.8749,-1,5
484,1.1713,3.8626,-1,5
485,1.17509,3.85,-1,5
486,1.17888,3.8376,-1,5
487,1.18265,3.8251,-1,5
488,1.1864,3.8124,-1,5
489,1.19014,3.7998,-1,5
490,1.19387,3.7872,-1,5
491,1.19759,3.7746,-1,5
492,1.20129,3.7617,-1,5
493,1.20498,3.749,-1,5
494,1.20866,3.7363,-1,5
495,1.21233,3.7236,-1,5
496,1.21598,3.7106,-1,5
497,1.21962,3.6974,-1,5
498,1.22325,3.6847,-1,5
499,1.22686,3.6714,-1,5
500,1.23045,3.6584,-1,5
501,1.23404,3.6452,-1,5
502,1.23762,3.6324,-1,5
503,1.24118,3.6193,-1,5
504,1.24472,3.606,-1,5
505,1.24825,3.5927,-1,5
506,1.25177,3.5796,-1,5
507,1.25528,3.5665,-1,5
508,1.25878,3.5533,-1,5
509,1.26226,3.5405,-1,5
510,1.26573,3.5277,-1,5
511,1.26919,3.5146,-1,5
512,1.27263,3.502,-1,5
513,1.27607,3.4893,-1,5
514,1.27949,3.4768,-1,5
515,1.2829,3.4645,-1,5
516,1.28629,3.4521,-1,5
517,1.28968,3.4399,-1,5
518,1.29306,3.4283,-1,5
519,1.29642,3.4162,-1,5
520,1.29977,3.4041,-1,5
521,1.30311,3.3927,-1,5
522,1.30644,3.3806,-1,5
523,1.30976,3.3692,-1,5
524,1.31306,3.3577,-1,5
525,1.31636,3.3464,-1,5
526,1.31965,3.3353,-1,5
527,1.32292,3.3245,-1,5
528,1.32619,3.3131,-1,5
529,1.32945,3.3026,-1,5
530,1.33269,3.2921,-1,5
531,1.33593,3.2816,-1,5
532,1.33915,3.2716,-1,5
533,1.34237,3.2612,-1,5
534,1.34558,3.2513,-1,5
535,1.34878,3.2417,-1,5
536,1.35197,3.2319,-1,5
537,1.35514,3.2219,-1,5
538,1.35831,3.2124,-1,5
539,1.36147,3.2027,-1,5
540,1.36462,3.1931,-1,5
541,1.36776,3.1831,-1,5
542,1.37089,3.1735,-1,5
543,1.37401,3.1641,-1,5
544,1.37712,3.1544,-1,5
545,1.38022,3.1445,-1,5
546,1.38331,3.1348,-1,5
547,1.3864,3.1252,-1,5
548,1.38947,3.1156,-1,5
549,1.39253,3.1057,-1,5
550,1.39559,3.0964,-1,5
551,1.39863,3.0873,-1,5
552,1.40167,3.0778,-1,5
553,1.4047,3.0687,-1,5
554,1.40772,3.0596,-1,5
555,1.41073,3.0506,-1,5
556,1.41373,3.0419,-1,5
557,1.41673,3.0332,-1,5
558,1.41971,3.0244,-1,5
559,1.42269,3.016,-1,5
560,1.42566,3.0077,-1,5
561,1.42863,2.9997,-1,5
562,1.43159,2.9919,-1,5
563,1.43454,2.9841,-1,5
564,1.43748,2.9763,-1,5
565,1.44041,2.9687,-1,5
566,1.44335,2.9617,-1,5
567,1.44627,2.9547,-1,5
568,1.44919,2.9477,-1,5
569,1.45211,2.9417,-1,5
570,1.45501,2.9352,-1,5
571,1.45792,2.9292,-1,5
572,1.46372,2.9233,-1,5
573,1.46372,2.9171,-1,5
574,1.4695,2.9121,-1,5
575,1.4695,2.9073,-1,5
576,1.47239,2.9026,-1,5
577,1.47527,2.8987,-1,5
578,1.47815,2.895,-1,5
579,1.48103,2.8912,-1,5
580,1.48391,2.8882,-1,5
581,1.48678,2.885,-1,5
582,1.48966,2.8827,-1,5
583,1.49253,2.8811,-1,5
584,1.49828,2.8796,-1,5
585,1.50115,2.8783,-1,5
586,1.50115,2.8768,-1,5
587,1.50403,2.8754,-1,5
588,1.5069,2.875,-1,5
589,1.50978,2.875,-1,5
590,1.51266,2.8751,-1,5
591,1.51554,2.8757,-1,5
592,1.52131,2.8767,-1,5
593,1.5242,2.8783,-1,5
594,1.5271,2.8801,-1,5
595,1.53,2.883,-1,5
596,1.5329,2.8859,-1,5
597,1.53581,2.8899,-1,5
598,1.53873,2.8939,-1,5
599,1.54165,2.8982,-1,5
600,1.54458,2.9033,-1,5
601,1.54752,2.9091,-1,5
602,1.55046,2.9151,-1,5
603,1.55342,2.9215,-1,5
604,1.55638,2.9283,-1,5
605,1.55936,2.9358,-1,5
606,1.56234,2.944,-1,5
607,1.56534,2.9524,-1,5
608,1.56835,2.9619,-1,5
609,1.57137,2.9718,-1,5
610,1.5744,2.9825,-1,5
611,1.57745,2.9938,-1,5
612,1.58052,3.0055,-1,5
613,1.5836,3.0186,-1,5
614,1.5867,3.032,-1,5
615,1.58981,3.0454,-1,5
616,1.59295,3.0607,-1,5
617,1.5961,3.076,-1,5
618,1.59927,3.0923,-1,5
619,1.60246,3.1093,-1,5
620,1.60568,3.1271,-1,5
621,1.60891,3.1455,-1,5
622,1.61217,3.165,-1,5
623,1.61545,3.1846,-1,5
624,1.61875,3.2052,-1,5
625,1.62208,3.2268,-1,5
626,1.62544,3.2487,-1,5
627,1.62882,3.2718,-1,5
628,1.63222,3.2954,-1,5
629,1.63566,3.3199,-1,5
630,1.63913,3.345,-1,5
631,1.64262,3.3711,-1,5
632,1.64614,3.3973,-1,5
633,1.64969,3.4244,-1,5
634,1.65328,3.4524,-1,5
635,1.65689,3.4813,-1,5
636,1.66054,3.5109,-1,5
637,1.66423,3.5411,-1,5
638,1.66794,3.5718,-1,5
639,1.6717,3.6037,-1,5
640,1.67549,3.636,-1,5
641,1.67931,3.6692,-1,5
642,1.68318,3.7036,-1,5
643,1.68708,3.7391,-1,5
644,1.69103,3.7751,-1,5
645,1.69501,3.812,-1,5
646,1.69904,3.8494,-1,5
647,1.70311,3.8882,-1,5
648,1.70722,3.9277,-1,5
649,1.71137,3.9677,-1,5
650,1.71557,4.0086,-1,5
651,1.71981,4.0501,-1,5
652,1.7241,4.0922,-1,5
653,1.72843,4.1343,-1,5
654,1.7328,4.1769,-1,5
655,1.73721,4.2195,-1,5
656,1.74167,4.2629,-1,5
657,1.74617,4.3061,-1,5
658,1.75071,4.3491,-1,5
659,1.75529,4.3917,-1,5
660,1.75991,4.4339,-1,5
661,1.76457,4.4757,-1,5
662,1.76926,4.5166,-1,5
663,1.774,4.557,-1,5
664,1.77877,4.5971,-1,5
665,1.78357,4.6361,-1,5
666,1.7884,4.6736,-1,5
667,1.79326,4.7095,-1,5
668,1.79816,4.7447,-1,5
669,1.80308,4.7787,-1,5
670,1.80803,4.8116,-1,5
671,1.813,4.843,-1,5
672,1.818,4.8732,-1,5
673,1.82301,4.9013,-1,5
674,1.82805,4.9279,-1,5
675,1.83311,4.9537,-1,5
676,1.83819,4.9786,-1,5
677,1.84329,5.0022,-1,5
678,1.8484,5.0238,-1,5
679,1.85352,5.044,-1,5
680,1.85866,5.0632,-1,5
681,1.86381,5.0812,-1,5
682,1.86898,5.0982,-1,5
683,1.87415,5.1141,-1,5
684,1.87933,5.1282,-1,5
685,1.88451,5.1405,-1,5
686,1.8897,5.1514,-1,5
687,1.89491,5.1619,-1,5
688,1.90011,5.1714,-1,5
689,1.90531,5.1793,-1,5
690,1.91051,5.1851,-1,5
691,1.91572,5.1904,-1,5
692,1.92093,5.1948,-1,5
693,1.92614,5.1988,-1,5
694,1.93134,5.2016,-1,5
695,1.93654,5.2032,-1,5
696,1.94174,5.2032,-1,5
697,1.94693,5.2025,-1,5
698,1.95212,5.2013,-1,5
699,1.95731,5.1996,-1,5
700,1.96248,5.1971,-1,5
701,1.96765,5.193,-1,5
702,1.97281,5.1883,-1,5
703,1.97797,5.1828,-1,5
704,1.98312,5.1775,-1,5
705,1.98826,5.1714,-1,5
706,1.99339,5.1649,-1,5
707,1.99851,5.1574,-1,5
708,2.00362,5.15,-1,5
709,2.00873,5.1418,-1,5
710,2.01382,5.1333,-1,5
711,2.01889,5.1242,-1,5
712,2.02396,5.1148,-1,5
713,2.02902,5.1049,-1,5
714,2.03406,5.0943,-1,5
715,2.03909,5.0834,-1,5
716,2.04411,5.0721,-1,5
717,2.04911,5.0601,-1,5
718,2.0541,5.0473,-1,5
719,2.05907,5.0346,-1,5
720,2.06403,5.0217,-1,5
721,2.06897,5.0083,-1,5
722,2.0739,4.9941,-1,5
723,2.07881,4.9793,-1,5
724,2.08371,4.9642,-1,5
725,2.08858,4.9491,-1,5
726,2.09344,4.9336,-1,5
727,2.09828,4.9178,-1,5
728,2.10311,4.9012,-1,5
729,2.10791,4.8839,-1,5
730,2.1127,4.8665,-1,5
731,2.11747,4.8495,-1,5
732,2.12222,4.8321,-1,5
733,2.12695,4.814,-1,5
734,2.13166,4.7953,-1,5
735,2.13635,4.7769,-1,5
736,2.14103,4.7587,-1,5
737,2.14569,4.7402,-1,5
738,2.15032,4.7213,-1,5
739,2.15494,4.7024,-1,5
740,2.15953,4.6834,-1,5
741,2.16411,4.6642,-1,5
742,2.16867,4.645,-1,5
743,2.17321,4.6261,-1,5
744,2.17773,4.6073,-1,5
745,2.18223,4.588,-1,5
746,2.18671,4.5682,-1,5
747,2.19118,4.5488,-1,5
748,2.19562,4.5297,-1,5
749,2.20005,4.511,-1,5
750,2.20446,4.4924,-1,5
751,2.20885,4.4738,-1,5
752,2.21322,4.4547,-1,5
753,2.21757,4.4358,-1,5
754,2.2219,4.4172,-1,5
755,2.22622,4.3989,-1,5
756,2.23052,4.381,-1,5
757,2.2348,4.3625,-1,5
758,2.23906,4.3443,-1,5
759,2.2433,4.3254,-1,5
760,2.24753,4.3068,-1,5
761,2.25173,4.2881,-1,5
762,2.25592,4.2703,-1,5
763,2.26009,4.252,-1,5
764,2.26424,4.2336,-1,5
765,2.26837,4.215,-1,5
766,2.27249,4.1966,-1,5
767,2.27659,4.1785,-1,5
768,2.28067,4.1602,-1,5
769,2.28472,4.1423,-1,5
770,2.28876,4.124,-1,5
771,2.29279,4.1054,-1,5
772,2.29679,4.0866,-1,5
773,2.30077,4.0682,-1,5
774,2.30474,4.0496,-1,5
775,2.30869,4.0313,-1,5
776,2.31262,4.0129,-1,5
777,2.31653,3.9944,-1,5
778,2.32042,3.9757,-1,5
779,2.32429,3.9572,-1,5
780,2.32815,3.9386,-1,5
781,2.33199,3.9205,-1,5
782,2.33581,3.9021,-1,5
783,2.33961,3.8842,-1,5
784,2.3434,3.8661,-1,5
785,2.34716,3.8479,-1,5
786,2.35091,3.8298,-1,5
787,2.35465,3.8117,-1,5
788,2.35836,3.7939,-1,5
789,2.36205,3.7758,-1,5
790,2.36573,3.7581,-1,5
791,2.3694,3.7407,-1,5
792,2.37304,3.7229,-1,5
793,2.37667,3.7052,-1,5
794,2.38027,3.6877,-1,5
795,2.38387,3.6704,-1,5
796,2.38744,3.6529,-1,5
797,2.391,3.6356,-1,5
798,2.39455,3.6188,-1,5
799,2.39808,3.6005,-1,5
800,2.40159,3.5837,-1,5
801,2.40508,3.5654,-1,5
802,2.40857,3.5478,-1,5
803,2.41203,3.5316,-1,5
804,2.41548,3.5158,-1,5
805,2.41891,3.4996,-1,5
806,2.42234,3.4842,-1,5
807,2.42574,3.4691,-1,5
808,2.42913,3.4536,-1,5
809,2.43251,3.4404,-1,5
810,2.43587,3.4256,-1,5
811,2.43922,3.412,-1,5
812,2.44255,3.3989,-1,5
813,2.44587,3.3844,-1,5
814,2.44918,3.3703,-1,5
815,2.45248,3.3565,-1,5
816,2.45576,3.3426,-1,5
817,2.45903,3.3289,-1,5
818,2.46229,3.3159,-1,5
819,2.46554,3.3031,-1,5
820,2.46878,3.2907,-1,5
821,2.47201,3.2788,-1,5
822,2.47522,3.2672,-1,5
823,2.47844,3.2566,-1,5
824,2.48164,3.2462,-1,5
825,2.48484,3.2362,-1,5
826,2.48802,3.2266,-1,5
827,2.49121,3.218,-1,5
828,2.49438,3.2094,-1,5
829,2.49756,3.2015,-1,5
830,2.50072,3.1939,-1,5
831,2.50388,3.1872,-1,5
832,2.50704,3.1811,-1,5
833,2.51019,3.1753,-1,5
834,2.51334,3.1697,-1,5
835,2.51649,3.1655,-1,5
836,2.51964,3.162,-1,5
837,2.5228,3.1588,-1,5
838,2.52595,3.1566,-1,5
839,2.5291,3.1546,-1,5
840,2.53226,3.154,-1,5
