cnt,pos,speed,Dir,Force,
1,0,1.002,-1,5
2,0.00103998,1.0065,-1,5
3,0.00207996,1.0107,-1,5
4,0.00309992,1.0149,-1,5
5,0.00414038,1.0198,-1,5
6,0.00519037,1.0252,-1,5
7,0.00625992,1.0308,-1,5
8,0.00731993,1.0353,-1,5
9,0.00836992,1.0397,-1,5
10,0.00943995,1.0456,-1,5
11,0.01053,1.0526,-1,5
12,0.0116301,1.0589,-1,5
13,0.0127201,1.0641,-1,5
14,0.0138102,1.0702,-1,5
15,0.0149202,1.0781,-1,5
16,0.0160503,1.086,-1,5
17,0.01718,1.0919,-1,5
18,0.0183001,1.0979,-1,5
19,0.0194402,1.1064,-1,5
20,0.0206003,1.1165,-1,5
21,0.02177,1.1246,-1,5
22,0.0229402,1.1308,-1,5
23,0.0241003,1.1388,-1,5
24,0.0253,1.1493,-1,5
25,0.0265102,1.1591,-1,5
26,0.02772,1.1664,-1,5
27,0.0289302,1.1745,-1,5
28,0.03016,1.1855,-1,5
29,0.0314002,1.1967,-1,5
30,0.03265,1.2056,-1,5
31,0.0339103,1.2138,-1,5
32,0.0364699,1.2264,-1,5
33,0.0377603,1.2393,-1,5
34,0.0390701,1.2504,-1,5
35,0.04039,1.2611,-1,5
36,0.04039,1.2734,-1,5
37,0.0417199,1.2854,-1,5
38,0.0430603,1.2969,-1,5
39,0.0444303,1.3084,-1,5
40,0.0458002,1.3201,-1,5
41,0.0471802,1.3325,-1,5
42,0.0485702,1.3432,-1,5
43,0.0499902,1.3549,-1,5
44,0.0514102,1.3668,-1,5
45,0.0528502,1.3786,-1,5
46,0.0543003,1.3911,-1,5
47,0.0557699,1.4047,-1,5
48,0.05724,1.4177,-1,5
49,0.0587301,1.4307,-1,5
50,0.0602403,1.4441,-1,5
51,0.0617599,1.4584,-1,5
52,0.0633001,1.4726,-1,5
53,0.0648403,1.4859,-1,5
54,0.0664001,1.4993,-1,5
55,0.0679803,1.5135,-1,5
56,0.0695801,1.5277,-1,5
57,0.0711803,1.542,-1,5
58,0.0728102,1.5566,-1,5
59,0.07444,1.5707,-1,5
60,0.0760903,1.5852,-1,5
61,0.0777602,1.6002,-1,5
62,0.0794401,1.6147,-1,5
63,0.08114,1.6291,-1,5
64,0.08285,1.6445,-1,5
65,0.0845699,1.6593,-1,5
66,0.0863199,1.6741,-1,5
67,0.0880699,1.6889,-1,5
68,0.0898399,1.7031,-1,5
69,0.09162,1.718,-1,5
70,0.09342,1.7327,-1,5
71,0.0952301,1.7466,-1,5
72,0.0970602,1.7613,-1,5
73,0.0989003,1.7764,-1,5
74,0.10076,1.7914,-1,5
75,0.10264,1.8065,-1,5
76,0.10452,1.8205,-1,5
77,0.10642,1.8347,-1,5
78,0.10834,1.85,-1,5
79,0.11027,1.8654,-1,5
80,0.11222,1.8808,-1,5
81,0.11418,1.8951,-1,5
82,0.11614,1.909,-1,5
83,0.11813,1.9236,-1,5
84,0.12014,1.9384,-1,5
85,0.12216,1.9523,-1,5
86,0.12418,1.9661,-1,5
87,0.12622,1.9803,-1,5
88,0.12828,1.9949,-1,5
89,0.13036,2.0087,-1,5
90,0.13244,2.0215,-1,5
91,0.13453,2.0354,-1,5
92,0.13664,2.0494,-1,5
93,0.13876,2.0632,-1,5
94,0.1409,2.0758,-1,5
95,0.14304,2.0884,-1,5
96,0.1452,2.1015,-1,5
97,0.14737,2.1147,-1,5
98,0.14956,2.1274,-1,5
99,0.15175,2.1392,-1,5
100,0.15395,2.1511,-1,5
101,0.15616,2.1633,-1,5
102,0.1584,2.1768,-1,5
103,0.16064,2.1884,-1,5
104,0.16514,2.2003,-1,5
105,0.16742,2.2141,-1,5
106,0.16971,2.2276,-1,5
107,0.16971,2.2391,-1,5
108,0.17199,2.2489,-1,5
109,0.17429,2.2593,-1,5
110,0.17661,2.2713,-1,5
111,0.17894,2.2827,-1,5
112,0.18127,2.2916,-1,5
113,0.1836,2.3008,-1,5
114,0.18596,2.3106,-1,5
115,0.18833,2.3196,-1,5
116,0.1907,2.3281,-1,5
117,0.19307,2.3365,-1,5
118,0.19546,2.3467,-1,5
119,0.19787,2.3574,-1,5
120,0.20027,2.3664,-1,5
121,0.20268,2.3746,-1,5
122,0.20511,2.3838,-1,5
123,0.20754,2.3938,-1,5
124,0.20999,2.4028,-1,5
125,0.21243,2.4105,-1,5
126,0.21489,2.4187,-1,5
127,0.21735,2.4281,-1,5
128,0.21983,2.437,-1,5
129,0.22231,2.4445,-1,5
130,0.2248,2.4523,-1,5
131,0.22729,2.4608,-1,5
132,0.2298,2.469,-1,5
133,0.2323,2.4762,-1,5
134,0.23482,2.4839,-1,5
135,0.23735,2.4917,-1,5
136,0.23988,2.4989,-1,5
137,0.24241,2.506,-1,5
138,0.24496,2.5133,-1,5
139,0.24751,2.5203,-1,5
140,0.25007,2.5269,-1,5
141,0.25263,2.5339,-1,5
142,0.2552,2.5403,-1,5
143,0.25778,2.5471,-1,5
144,0.26035,2.553,-1,5
145,0.26294,2.5593,-1,5
146,0.26554,2.5663,-1,5
147,0.26813,2.5724,-1,5
148,0.27073,2.5774,-1,5
149,0.27334,2.5832,-1,5
150,0.27595,2.5894,-1,5
151,0.27857,2.5942,-1,5
152,0.28119,2.599,-1,5
153,0.28381,2.6041,-1,5
154,0.28644,2.609,-1,5
155,0.28907,2.6132,-1,5
156,0.2917,2.617,-1,5
157,0.29434,2.6212,-1,5
158,0.29698,2.6251,-1,5
159,0.29963,2.6287,-1,5
160,0.30228,2.6322,-1,5
161,0.30492,2.6354,-1,5
162,0.30757,2.6384,-1,5
163,0.31022,2.6414,-1,5
164,0.31288,2.6438,-1,5
165,0.31553,2.6462,-1,5
166,0.31819,2.6482,-1,5
167,0.32084,2.65,-1,5
168,0.32351,2.6521,-1,5
169,0.32616,2.6533,-1,5
170,0.32882,2.6546,-1,5
171,0.33148,2.6562,-1,5
172,0.33414,2.6574,-1,5
173,0.33681,2.6579,-1,5
174,0.33947,2.659,-1,5
175,0.34213,2.6598,-1,5
176,0.34479,2.6605,-1,5
177,0.34746,2.6611,-1,5
178,0.35012,2.6612,-1,5
179,0.35278,2.6618,-1,5
180,0.35544,2.6616,-1,5
181,0.3581,2.6618,-1,5
182,0.36077,2.6623,-1,5
183,0.36343,2.662,-1,5
184,0.36608,2.6616,-1,5
185,0.36875,2.6617,-1,5
186,0.37141,2.6617,-1,5
187,0.37407,2.6612,-1,5
188,0.37673,2.661,-1,5
189,0.37939,2.6609,-1,5
190,0.38205,2.6607,-1,5
191,0.38471,2.6604,-1,5
192,0.38737,2.6598,-1,5
193,0.39002,2.6599,-1,5
194,0.39268,2.6597,-1,5
195,0.39534,2.6596,-1,5
196,0.398,2.6593,-1,5
197,0.40066,2.6595,-1,5
198,0.40333,2.6597,-1,5
199,0.40599,2.6597,-1,5
200,0.40865,2.6602,-1,5
201,0.41131,2.6605,-1,5
202,0.41398,2.6609,-1,5
203,0.41664,2.6617,-1,5
204,0.41931,2.6625,-1,5
205,0.42197,2.6628,-1,5
206,0.42464,2.6636,-1,5
207,0.42731,2.6646,-1,5
208,0.42998,2.6653,-1,5
209,0.43265,2.6667,-1,5
210,0.43533,2.6679,-1,5
211,0.438,2.669,-1,5
212,0.44068,2.6706,-1,5
213,0.44337,2.6722,-1,5
214,0.44605,2.674,-1,5
215,0.44873,2.6757,-1,5
216,0.45142,2.6778,-1,5
217,0.45411,2.6796,-1,5
218,0.4568,2.6819,-1,5
219,0.4595,2.684,-1,5
220,0.4622,2.6866,-1,5
221,0.4649,2.6895,-1,5
222,0.4676,2.6916,-1,5
223,0.47031,2.6939,-1,5
224,0.47301,2.6965,-1,5
225,0.47573,2.6995,-1,5
226,0.47844,2.7024,-1,5
227,0.48116,2.7053,-1,5
228,0.48388,2.7078,-1,5
229,0.4866,2.7102,-1,5
230,0.48932,2.7127,-1,5
231,0.49205,2.7151,-1,5
232,0.49478,2.7179,-1,5
233,0.49751,2.7203,-1,5
234,0.50024,2.7227,-1,5
235,0.50297,2.7247,-1,5
236,0.5057,2.7261,-1,5
237,0.50844,2.7281,-1,5
238,0.51118,2.7301,-1,5
239,0.51391,2.7316,-1,5
240,0.51665,2.7325,-1,5
241,0.51938,2.7336,-1,5
242,0.52212,2.7344,-1,5
243,0.52485,2.7348,-1,5
244,0.52759,2.735,-1,5
245,0.53032,2.7349,-1,5
246,0.53304,2.7343,-1,5
247,0.53577,2.7332,-1,5
248,0.53849,2.7317,-1,5
249,0.54121,2.7302,-1,5
250,0.54393,2.7283,-1,5
251,0.54664,2.726,-1,5
252,0.54935,2.7232,-1,5
253,0.55205,2.7199,-1,5
254,0.55475,2.7161,-1,5
255,0.55744,2.7123,-1,5
256,0.56013,2.7085,-1,5
257,0.56281,2.7039,-1,5
258,0.56549,2.6992,-1,5
259,0.56815,2.694,-1,5
260,0.57082,2.6885,-1,5
261,0.57347,2.6828,-1,5
262,0.57612,2.6768,-1,5
263,0.57876,2.6705,-1,5
264,0.5814,2.6643,-1,5
265,0.58402,2.6577,-1,5
266,0.58664,2.6512,-1,5
267,0.58925,2.6439,-1,5
268,0.59185,2.6366,-1,5
269,0.59445,2.629,-1,5
270,0.59703,2.6216,-1,5
271,0.59961,2.6133,-1,5
272,0.60217,2.6053,-1,5
273,0.60473,2.5974,-1,5
274,0.60728,2.5888,-1,5
275,0.60982,2.58,-1,5
276,0.61236,2.5713,-1,5
277,0.61488,2.5628,-1,5
278,0.61739,2.5536,-1,5
279,0.61989,2.5447,-1,5
280,0.62239,2.5355,-1,5
281,0.62487,2.5266,-1,5
282,0.62734,2.5172,-1,5
283,0.62981,2.5082,-1,5
284,0.63227,2.4989,-1,5
285,0.63472,2.4898,-1,5
286,0.63715,2.4798,-1,5
287,0.63958,2.4707,-1,5
288,0.642,2.4617,-1,5
289,0.64442,2.4527,-1,5
290,0.64682,2.4432,-1,5
291,0.64921,2.4339,-1,5
292,0.65159,2.425,-1,5
293,0.65397,2.4158,-1,5
294,0.65634,2.4067,-1,5
295,0.6587,2.398,-1,5
296,0.66105,2.3894,-1,5
297,0.66339,2.3806,-1,5
298,0.66572,2.3717,-1,5
299,0.66805,2.3633,-1,5
300,0.67037,2.3553,-1,5
301,0.67268,2.3469,-1,5
302,0.67498,2.3386,-1,5
303,0.67728,2.331,-1,5
304,0.67957,2.3238,-1,5
305,0.68186,2.3163,-1,5
306,0.68414,2.3091,-1,5
307,0.68642,2.3026,-1,5
308,0.68869,2.2966,-1,5
309,0.69095,2.2902,-1,5
310,0.69321,2.2841,-1,5
311,0.69547,2.279,-1,5
312,0.69772,2.2744,-1,5
313,0.69997,2.2693,-1,5
314,0.70222,2.2645,-1,5
315,0.70446,2.2602,-1,5
316,0.70671,2.2571,-1,5
317,0.70895,2.2535,-1,5
318,0.71119,2.2499,-1,5
319,0.71342,2.2471,-1,5
320,0.7179,2.2449,-1,5
321,0.7179,2.2424,-1,5
322,0.72013,2.2406,-1,5
323,0.72237,2.2394,-1,5
324,0.72461,2.2391,-1,5
325,0.72685,2.2388,-1,5
326,0.72909,2.2379,-1,5
327,0.73133,2.2376,-1,5
328,0.73357,2.2382,-1,5
329,0.73581,2.2389,-1,5
330,0.73805,2.2394,-1,5
331,0.74029,2.2403,-1,5
332,0.74254,2.2416,-1,5
333,0.7448,2.2434,-1,5
334,0.74706,2.2453,-1,5
335,0.74932,2.2475,-1,5
336,0.75159,2.2507,-1,5
337,0.75387,2.2547,-1,5
338,0.75615,2.259,-1,5
339,0.75844,2.2634,-1,5
340,0.76074,2.2688,-1,5
341,0.76305,2.2756,-1,5
342,0.76536,2.2819,-1,5
343,0.76768,2.2885,-1,5
344,0.77002,2.2958,-1,5
345,0.77236,2.3041,-1,5
346,0.77472,2.3126,-1,5
347,0.77708,2.321,-1,5
348,0.77946,2.3302,-1,5
349,0.78185,2.3406,-1,5
350,0.78425,2.3512,-1,5
351,0.78666,2.3613,-1,5
352,0.78909,2.3725,-1,5
353,0.79153,2.3848,-1,5
354,0.79399,2.3971,-1,5
355,0.79646,2.4093,-1,5
356,0.79894,2.4224,-1,5
357,0.80144,2.4364,-1,5
358,0.80396,2.4505,-1,5
359,0.80649,2.464,-1,5
360,0.80904,2.4789,-1,5
361,0.81161,2.4945,-1,5
362,0.81419,2.5103,-1,5
363,0.81679,2.5254,-1,5
364,0.81941,2.542,-1,5
365,0.82205,2.5589,-1,5
366,0.8247,2.576,-1,5
367,0.82738,2.593,-1,5
368,0.83007,2.6108,-1,5
369,0.83278,2.6294,-1,5
370,0.83552,2.6475,-1,5
371,0.83827,2.6661,-1,5
372,0.84104,2.6851,-1,5
373,0.84384,2.7047,-1,5
374,0.84665,2.7241,-1,5
375,0.84949,2.7441,-1,5
376,0.85234,2.7641,-1,5
377,0.85522,2.7848,-1,5
378,0.85813,2.8076,-1,5
379,0.864,2.8307,-1,5
380,0.86697,2.8548,-1,5
381,0.86996,2.8788,-1,5
382,0.87298,2.9027,-1,5
383,0.87601,2.9273,-1,5
384,0.87907,2.9518,-1,5
385,0.88216,2.9764,-1,5
386,0.88526,3.0013,-1,5
387,0.88839,3.0265,-1,5
388,0.89155,3.0494,-1,5
389,0.89472,3.0726,-1,5
390,0.89792,3.0954,-1,5
391,0.90114,3.1181,-1,5
392,0.90439,3.1414,-1,5
393,0.90766,3.1643,-1,5
394,0.91095,3.187,-1,5
395,0.91426,3.2106,-1,5
396,0.9176,3.2341,-1,5
397,0.92096,3.257,-1,5
398,0.92435,3.2801,-1,5
399,0.92775,3.3032,-1,5
400,0.93118,3.3261,-1,5
401,0.93464,3.3492,-1,5
402,0.93811,3.3719,-1,5
403,0.9416,3.3948,-1,5
404,0.94512,3.4179,-1,5
405,0.94866,3.4399,-1,5
406,0.95222,3.4618,-1,5
407,0.9558,3.4837,-1,5
408,0.9594,3.5054,-1,5
409,0.96302,3.5267,-1,5
410,0.96666,3.5475,-1,5
411,0.97032,3.5684,-1,5
412,0.974,3.589,-1,5
413,0.9777,3.6092,-1,5
414,0.98141,3.6286,-1,5
415,0.98514,3.648,-1,5
416,0.98889,3.667,-1,5
417,0.99266,3.6856,-1,5
418,0.99644,3.704,-1,5
419,1.00024,3.7221,-1,5
420,1.00406,3.7398,-1,5
421,1.00789,3.7585,-1,5
422,1.01174,3.7753,-1,5
423,1.0156,3.7916,-1,5
424,1.01948,3.8078,-1,5
425,1.02337,3.8235,-1,5
426,1.02727,3.839,-1,5
427,1.03119,3.8543,-1,5
428,1.03906,3.87,-1,5
429,1.03906,3.8852,-1,5
430,1.04698,3.9003,-1,5
431,1.05095,3.9131,-1,5
432,1.05494,3.9273,-1,5
433,1.05894,3.941,-1,5
434,1.06295,3.9543,-1,5
435,1.06697,3.9672,-1,5
436,1.071,3.9799,-1,5
437,1.07504,3.9919,-1,5
438,1.07909,4.0026,-1,5
439,1.08314,4.0132,-1,5
440,1.08721,4.0234,-1,5
441,1.09128,4.0333,-1,5
442,1.09537,4.0429,-1,5
443,1.09946,4.0522,-1,5
444,1.10356,4.0612,-1,5
445,1.10766,4.0698,-1,5
446,1.11178,4.0783,-1,5
447,1.1159,4.0866,-1,5
448,1.12002,4.0941,-1,5
449,1.12415,4.1011,-1,5
450,1.12829,4.1078,-1,5
451,1.13243,4.1144,-1,5
452,1.13657,4.1205,-1,5
453,1.14073,4.1266,-1,5
454,1.14488,4.1323,-1,5
455,1.14904,4.1377,-1,5
456,1.1532,4.1424,-1,5
457,1.15737,4.1466,-1,5
458,1.16153,4.151,-1,5
459,1.1657,4.1547,-1,5
460,1.16987,4.1583,-1,5
461,1.17404,4.1615,-1,5
462,1.17822,4.1643,-1,5
463,1.18239,4.1663,-1,5
464,1.18656,4.1681,-1,5
465,1.19074,4.1696,-1,5
466,1.19491,4.1705,-1,5
467,1.19908,4.1716,-1,5
468,1.20325,4.172,-1,5
469,1.20742,4.1722,-1,5
470,1.21159,4.1716,-1,5
471,1.21575,4.1711,-1,5
472,1.21992,4.17,-1,5
473,1.22408,4.1689,-1,5
474,1.22824,4.1673,-1,5
475,1.23239,4.1654,-1,5
476,1.23654,4.1631,-1,5
477,1.24068,4.16,-1,5
478,1.24482,4.1566,-1,5
479,1.24896,4.1532,-1,5
480,1.25308,4.1495,-1,5
481,1.25721,4.1453,-1,5
482,1.26132,4.1405,-1,5
483,1.26543,4.1354,-1,5
484,1.26953,4.1295,-1,5
485,1.27363,4.1235,-1,5
486,1.27771,4.1168,-1,5
487,1.28179,4.1103,-1,5
488,1.28586,4.1036,-1,5
489,1.28992,4.0964,-1,5
490,1.29397,4.0889,-1,5
491,1.29801,4.0807,-1,5
492,1.30205,4.0725,-1,5
493,1.30607,4.0637,-1,5
494,1.31009,4.0559,-1,5
495,1.3141,4.0478,-1,5
496,1.31811,4.0399,-1,5
497,1.32209,4.0306,-1,5
498,1.32607,4.0211,-1,5
499,1.33003,4.0111,-1,5
500,1.33399,4.0014,-1,5
501,1.33794,3.9921,-1,5
502,1.34187,3.9827,-1,5
503,1.3458,3.9728,-1,5
504,1.34971,3.9617,-1,5
505,1.3536,3.9501,-1,5
506,1.35749,3.9387,-1,5
507,1.36137,3.928,-1,5
508,1.36524,3.9173,-1,5
509,1.36909,3.9065,-1,5
510,1.37293,3.8949,-1,5
511,1.37676,3.8828,-1,5
512,1.38058,3.8705,-1,5
513,1.38438,3.8588,-1,5
514,1.38818,3.8473,-1,5
515,1.39196,3.8355,-1,5
516,1.39573,3.8235,-1,5
517,1.39948,3.8114,-1,5
518,1.40323,3.7992,-1,5
519,1.40696,3.787,-1,5
520,1.41068,3.7746,-1,5
521,1.41439,3.7625,-1,5
522,1.41808,3.7503,-1,5
523,1.42177,3.7383,-1,5
524,1.42544,3.7261,-1,5
525,1.4291,3.7144,-1,5
526,1.43275,3.7025,-1,5
527,1.43639,3.6906,-1,5
528,1.44002,3.6787,-1,5
529,1.44363,3.6672,-1,5
530,1.44724,3.6561,-1,5
531,1.45084,3.645,-1,5
532,1.45443,3.6345,-1,5
533,1.458,3.6237,-1,5
534,1.46157,3.6132,-1,5
535,1.46513,3.6028,-1,5
536,1.46868,3.5928,-1,5
537,1.47222,3.583,-1,5
538,1.47576,3.5739,-1,5
539,1.47929,3.5651,-1,5
540,1.4828,3.5564,-1,5
541,1.48631,3.5478,-1,5
542,1.48982,3.5397,-1,5
543,1.49332,3.5319,-1,5
544,1.49682,3.5246,-1,5
545,1.50031,3.5177,-1,5
546,1.50379,3.5109,-1,5
547,1.50727,3.5049,-1,5
548,1.51075,3.4992,-1,5
549,1.51422,3.4933,-1,5
550,1.51769,3.4883,-1,5
551,1.52115,3.4835,-1,5
552,1.52461,3.4788,-1,5
553,1.52807,3.4746,-1,5
554,1.53152,3.4709,-1,5
555,1.53498,3.4672,-1,5
556,1.53843,3.4643,-1,5
557,1.54188,3.461,-1,5
558,1.54533,3.4583,-1,5
559,1.54878,3.4559,-1,5
560,1.55222,3.4534,-1,5
561,1.55566,3.4514,-1,5
562,1.55911,3.4497,-1,5
563,1.56255,3.4481,-1,5
564,1.56599,3.4465,-1,5
565,1.56943,3.4453,-1,5
566,1.57287,3.4442,-1,5
567,1.57631,3.4434,-1,5
568,1.57975,3.442,-1,5
569,1.58319,3.4415,-1,5
570,1.58663,3.441,-1,5
571,1.59007,3.4407,-1,5
572,1.59351,3.4403,-1,5
573,1.59695,3.4405,-1,5
574,1.60039,3.4402,-1,5
575,1.60383,3.4401,-1,5
576,1.60727,3.4398,-1,5
577,1.61071,3.44,-1,5
578,1.61415,3.4403,-1,5
579,1.61759,3.4402,-1,5
580,1.62104,3.4405,-1,5
581,1.62448,3.4406,-1,5
582,1.63136,3.4408,-1,5
583,1.6348,3.4407,-1,5
584,1.63824,3.4406,-1,5
585,1.64169,3.4411,-1,5
586,1.64513,3.4413,-1,5
587,1.64857,3.4415,-1,5
588,1.65201,3.4414,-1,5
589,1.65545,3.4414,-1,5
590,1.65889,3.4413,-1,5
591,1.66233,3.4413,-1,5
592,1.66577,3.4408,-1,5
593,1.66921,3.4403,-1,5
594,1.67264,3.4401,-1,5
595,1.67608,3.4393,-1,5
596,1.67952,3.439,-1,5
597,1.68295,3.438,-1,5
598,1.68638,3.4372,-1,5
599,1.68981,3.4364,-1,5
600,1.69324,3.4351,-1,5
601,1.69667,3.434,-1,5
602,1.7001,3.4328,-1,5
603,1.70352,3.4317,-1,5
604,1.70695,3.4306,-1,5
605,1.71037,3.4294,-1,5
606,1.71379,3.4278,-1,5
607,1.71721,3.4263,-1,5
608,1.72063,3.4251,-1,5
609,1.72405,3.4239,-1,5
610,1.72747,3.4227,-1,5
611,1.73088,3.4212,-1,5
612,1.7343,3.4204,-1,5
613,1.73771,3.4193,-1,5
614,1.74113,3.4182,-1,5
615,1.74454,3.4173,-1,5
616,1.74795,3.4166,-1,5
617,1.75137,3.4159,-1,5
618,1.75478,3.4153,-1,5
619,1.75819,3.4146,-1,5
620,1.76161,3.4147,-1,5
621,1.76502,3.4147,-1,5
622,1.76844,3.4146,-1,5
623,1.77528,3.4149,-1,5
624,1.7787,3.4153,-1,5
625,1.78212,3.416,-1,5
626,1.78554,3.417,-1,5
627,1.78897,3.4184,-1,5
628,1.7924,3.42,-1,5
629,1.79583,3.4216,-1,5
630,1.79926,3.4234,-1,5
631,1.8027,3.4257,-1,5
632,1.80614,3.4277,-1,5
633,1.80958,3.4301,-1,5
634,1.81302,3.4328,-1,5
635,1.81647,3.4357,-1,5
636,1.81993,3.4386,-1,5
637,1.82339,3.4419,-1,5
638,1.82685,3.4452,-1,5
639,1.83032,3.4491,-1,5
640,1.83379,3.4528,-1,5
641,1.83727,3.4566,-1,5
642,1.84075,3.4613,-1,5
643,1.84423,3.4656,-1,5
644,1.84773,3.4707,-1,5
645,1.85123,3.4756,-1,5
646,1.85474,3.4808,-1,5
647,1.85825,3.4863,-1,5
648,1.86177,3.4921,-1,5
649,1.8653,3.4979,-1,5
650,1.86883,3.5041,-1,5
651,1.87237,3.5105,-1,5
652,1.87592,3.5173,-1,5
653,1.87948,3.5244,-1,5
654,1.88304,3.5311,-1,5
655,1.88662,3.5386,-1,5
656,1.8902,3.5463,-1,5
657,1.89379,3.554,-1,5
658,1.89739,3.5615,-1,5
659,1.90099,3.5696,-1,5
660,1.90461,3.578,-1,5
661,1.90824,3.5869,-1,5
662,1.91187,3.5953,-1,5
663,1.91552,3.6043,-1,5
664,1.91918,3.6137,-1,5
665,1.92284,3.6229,-1,5
666,1.92652,3.6335,-1,5
667,1.93021,3.6444,-1,5
668,1.93391,3.6548,-1,5
669,1.93762,3.6652,-1,5
670,1.94135,3.6759,-1,5
671,1.94508,3.6864,-1,5
672,1.94882,3.6972,-1,5
673,1.95258,3.7084,-1,5
674,1.95635,3.7195,-1,5
675,1.96013,3.7311,-1,5
676,1.96392,3.7414,-1,5
677,1.96773,3.7516,-1,5
678,1.97155,3.7635,-1,5
679,1.97538,3.7754,-1,5
680,1.97922,3.787,-1,5
681,1.98307,3.7988,-1,5
682,1.98694,3.8114,-1,5
683,1.99082,3.8236,-1,5
684,1.99471,3.8361,-1,5
685,2.00254,3.8499,-1,5
686,2.00254,3.8641,-1,5
687,2.01042,3.8784,-1,5
688,2.01437,3.8922,-1,5
689,2.01835,3.9067,-1,5
690,2.02233,3.9213,-1,5
691,2.02634,3.9364,-1,5
692,2.03035,3.9508,-1,5
693,2.03438,3.9656,-1,5
694,2.03842,3.9806,-1,5
695,2.04248,3.9943,-1,5
696,2.04655,4.0083,-1,5
697,2.05065,4.0229,-1,5
698,2.05475,4.0376,-1,5
699,2.05887,4.0523,-1,5
700,2.06301,4.0673,-1,5
701,2.06716,4.0823,-1,5
702,2.07133,4.0981,-1,5
703,2.07552,4.1143,-1,5
704,2.07973,4.1303,-1,5
705,2.08395,4.1466,-1,5
706,2.08819,4.163,-1,5
707,2.09244,4.1793,-1,5
708,2.09672,4.1966,-1,5
709,2.10101,4.2136,-1,5
710,2.10532,4.2313,-1,5
711,2.10965,4.2486,-1,5
712,2.114,4.2662,-1,5
713,2.11836,4.2835,-1,5
714,2.12274,4.3014,-1,5
715,2.12714,4.319,-1,5
716,2.13156,4.337,-1,5
717,2.13599,4.3552,-1,5
718,2.14045,4.3731,-1,5
719,2.14492,4.3908,-1,5
720,2.1494,4.4081,-1,5
721,2.1539,4.4256,-1,5
722,2.15842,4.4427,-1,5
723,2.16296,4.46,-1,5
724,2.16751,4.4769,-1,5
725,2.17208,4.4938,-1,5
726,2.17665,4.5096,-1,5
727,2.18124,4.5249,-1,5
728,2.18585,4.5397,-1,5
729,2.19047,4.5552,-1,5
730,2.19511,4.5702,-1,5
731,2.19975,4.5846,-1,5
732,2.2044,4.5978,-1,5
733,2.20906,4.6103,-1,5
734,2.21374,4.6227,-1,5
735,2.21843,4.6352,-1,5
736,2.22312,4.6473,-1,5
737,2.22783,4.6586,-1,5
738,2.23253,4.6684,-1,5
739,2.23724,4.6771,-1,5
740,2.24196,4.6855,-1,5
741,2.24669,4.694,-1,5
742,2.25142,4.7018,-1,5
743,2.25615,4.7086,-1,5
744,2.26087,4.7137,-1,5
745,2.2656,4.7175,-1,5
746,2.27034,4.7215,-1,5
747,2.27508,4.7253,-1,5
748,2.27981,4.7287,-1,5
749,2.28454,4.7306,-1,5
750,2.28927,4.7316,-1,5
751,2.294,4.7312,-1,5
752,2.29872,4.7307,-1,5
753,2.30344,4.7298,-1,5
754,2.30816,4.729,-1,5
755,2.31287,4.727,-1,5
756,2.31757,4.7235,-1,5
757,2.32227,4.7191,-1,5
758,2.32696,4.7148,-1,5
759,2.33165,4.7105,-1,5
760,2.33633,4.7054,-1,5
761,2.341,4.6996,-1,5
762,2.34566,4.6934,-1,5
763,2.35031,4.6867,-1,5
764,2.35496,4.6797,-1,5
765,2.3596,4.6726,-1,5
766,2.36422,4.6651,-1,5
767,2.36884,4.6569,-1,5
768,2.37345,4.6484,-1,5
769,2.37804,4.6394,-1,5
770,2.38263,4.6302,-1,5
771,2.38721,4.621,-1,5
772,2.39177,4.6112,-1,5
773,2.39632,4.6013,-1,5
774,2.40086,4.5906,-1,5
775,2.40539,4.5796,-1,5
776,2.40991,4.5682,-1,5
777,2.41441,4.5576,-1,5
778,2.41891,4.5463,-1,5
779,2.42339,4.5351,-1,5
780,2.42786,4.5233,-1,5
781,2.43232,4.5116,-1,5
782,2.43677,4.4997,-1,5
783,2.4412,4.4878,-1,5
784,2.44563,4.4761,-1,5
785,2.45004,4.4645,-1,5
786,2.45444,4.453,-1,5
787,2.45882,4.441,-1,5
788,2.4632,4.4291,-1,5
789,2.46757,4.4174,-1,5
790,2.47192,4.4061,-1,5
791,2.47627,4.3946,-1,5
792,2.4806,4.3835,-1,5
793,2.48492,4.3721,-1,5
794,2.48924,4.3612,-1,5
795,2.49354,4.3507,-1,5
796,2.49784,4.3403,-1,5
797,2.50212,4.3298,-1,5
798,2.5064,4.3198,-1,5
799,2.51066,4.3097,-1,5
800,2.51492,4.2994,-1,5
801,2.51916,4.2895,-1,5
802,2.5234,4.2802,-1,5
803,2.52763,4.271,-1,5
804,2.53186,4.2619,-1,5
805,2.53607,4.2527,-1,5
806,2.54028,4.2439,-1,5
807,2.54448,4.2355,-1,5
808,2.54867,4.2273,-1,5
809,2.55286,4.2194,-1,5
810,2.55704,4.2126,-1,5
811,2.56122,4.2056,-1,5
812,2.56539,4.1988,-1,5
813,2.56955,4.1922,-1,5
814,2.57372,4.1859,-1,5
815,2.57787,4.1797,-1,5
816,2.58202,4.174,-1,5
817,2.58617,4.1689,-1,5
818,2.59031,4.1639,-1,5
819,2.59445,4.1588,-1,5
820,2.59858,4.1533,-1,5
821,2.60271,4.1487,-1,5
822,2.60683,4.1442,-1,5
823,2.61096,4.1402,-1,5
824,2.61508,4.1361,-1,5
825,2.6192,4.1326,-1,5
826,2.62331,4.1291,-1,5
827,2.62742,4.1253,-1,5
828,2.63153,4.1216,-1,5
829,2.63563,4.1186,-1,5
830,2.63974,4.1159,-1,5
831,2.64384,4.1132,-1,5
832,2.64793,4.1101,-1,5
833,2.65203,4.1072,-1,5
834,2.65612,4.104,-1,5
835,2.66021,4.101,-1,5
836,2.66429,4.0979,-1,5
837,2.66837,4.0951,-1,5
838,2.67245,4.0923,-1,5
