cnt,pos,speed,Dir,Force,
1,0,1.0126,-1,5
2,0.00110984,1.0306,-1,5
3,0.00224996,1.0492,-1,5
4,0.00339985,1.0689,-1,5
5,0.00458002,1.0883,-1,5
6,0.00577998,1.107,-1,5
7,0.00698996,1.1252,-1,5
8,0.00821996,1.1441,-1,5
9,0.00946999,1.1648,-1,5
10,0.0107498,1.1851,-1,5
11,0.0120499,1.2046,-1,5
12,0.01336,1.2241,-1,5
13,0.0146899,1.2445,-1,5
14,0.0160499,1.265,-1,5
15,0.0174198,1.2842,-1,5
16,0.01881,1.3032,-1,5
17,0.0202298,1.324,-1,5
18,0.0216699,1.3456,-1,5
19,0.0231299,1.3657,-1,5
20,0.02461,1.3853,-1,5
21,0.0260999,1.4054,-1,5
22,0.0276198,1.4261,-1,5
23,0.02916,1.4469,-1,5
24,0.03073,1.4671,-1,5
25,0.0323,1.4875,-1,5
26,0.0339,1.5084,-1,5
27,0.0355198,1.5289,-1,5
28,0.0371599,1.5489,-1,5
29,0.03882,1.5691,-1,5
30,0.0404999,1.5888,-1,5
31,0.0421898,1.6113,-1,5
32,0.04391,1.6314,-1,5
33,0.04564,1.6504,-1,5
34,0.04739,1.6692,-1,5
35,0.04916,1.6885,-1,5
36,0.0509498,1.7073,-1,5
37,0.0527499,1.7258,-1,5
38,0.05458,1.744,-1,5
39,0.0564198,1.7617,-1,5
40,0.05827,1.7812,-1,5
41,0.0620298,1.7984,-1,5
42,0.06393,1.817,-1,5
43,0.06584,1.8346,-1,5
44,0.06777,1.852,-1,5
45,0.0697,1.8687,-1,5
46,0.07165,1.8852,-1,5
47,0.0736198,1.9013,-1,5
48,0.0755999,1.9168,-1,5
49,0.07759,1.9322,-1,5
50,0.0795898,1.945,-1,5
51,0.0816,1.9571,-1,5
52,0.0836098,1.9682,-1,5
53,0.08564,1.9798,-1,5
54,0.0876698,1.9909,-1,5
55,0.08971,2.0015,-1,5
56,0.0917599,2.0113,-1,5
57,0.0938199,2.0195,-1,5
58,0.09588,2.0279,-1,5
59,0.09794,2.0351,-1,5
60,0.10001,2.0422,-1,5
61,0.10208,2.0485,-1,5
62,0.10416,2.0549,-1,5
63,0.10624,2.0599,-1,5
64,0.10832,2.0642,-1,5
65,0.1104,2.0688,-1,5
66,0.11249,2.0728,-1,5
67,0.11457,2.0761,-1,5
68,0.11666,2.078,-1,5
69,0.11874,2.0806,-1,5
70,0.12084,2.083,-1,5
71,0.12292,2.084,-1,5
72,0.125,2.0841,-1,5
73,0.12708,2.0848,-1,5
74,0.12917,2.0858,-1,5
75,0.13125,2.0849,-1,5
76,0.13332,2.0831,-1,5
77,0.1354,2.0822,-1,5
78,0.13747,2.0816,-1,5
79,0.13954,2.0798,-1,5
80,0.1416,2.0767,-1,5
81,0.14367,2.0744,-1,5
82,0.14572,2.072,-1,5
83,0.14778,2.0695,-1,5
84,0.14983,2.0657,-1,5
85,0.15187,2.0621,-1,5
86,0.15391,2.0585,-1,5
87,0.15594,2.0547,-1,5
88,0.15798,2.0509,-1,5
89,0.16001,2.0462,-1,5
90,0.16202,2.0415,-1,5
91,0.16403,2.0367,-1,5
92,0.16605,2.0326,-1,5
93,0.16805,2.0273,-1,5
94,0.17005,2.0219,-1,5
95,0.17204,2.0171,-1,5
96,0.17404,2.013,-1,5
97,0.17603,2.0083,-1,5
98,0.178,2.0021,-1,5
99,0.17997,1.9967,-1,5
100,0.18195,1.9925,-1,5
101,0.18391,1.9879,-1,5
102,0.18587,1.9825,-1,5
103,0.18782,1.9769,-1,5
104,0.18977,1.9721,-1,5
105,0.19172,1.9673,-1,5
106,0.19366,1.9621,-1,5
107,0.1956,1.9569,-1,5
108,0.19752,1.9521,-1,5
109,0.19945,1.9476,-1,5
110,0.20137,1.9427,-1,5
111,0.20329,1.9383,-1,5
112,0.20521,1.9339,-1,5
113,0.20712,1.9293,-1,5
114,0.20902,1.925,-1,5
115,0.21093,1.9212,-1,5
116,0.21284,1.9178,-1,5
117,0.21473,1.9134,-1,5
118,0.21662,1.9095,-1,5
119,0.21851,1.9065,-1,5
120,0.22041,1.9039,-1,5
121,0.2223,1.9007,-1,5
122,0.22418,1.8972,-1,5
123,0.22606,1.8948,-1,5
124,0.22796,1.8934,-1,5
125,0.22984,1.8912,-1,5
126,0.23172,1.8881,-1,5
127,0.2336,1.8865,-1,5
128,0.23548,1.8859,-1,5
129,0.23736,1.8845,-1,5
130,0.23923,1.8821,-1,5
131,0.24111,1.8804,-1,5
132,0.24299,1.8804,-1,5
133,0.24487,1.8804,-1,5
134,0.24674,1.8785,-1,5
135,0.24861,1.8769,-1,5
136,0.25049,1.8771,-1,5
137,0.25237,1.8777,-1,5
138,0.25425,1.877,-1,5
139,0.25612,1.8761,-1,5
140,0.258,1.8766,-1,5
141,0.25989,1.878,-1,5
142,0.26177,1.8783,-1,5
143,0.26364,1.8775,-1,5
144,0.26552,1.8779,-1,5
145,0.26741,1.8799,-1,5
146,0.2693,1.8813,-1,5
147,0.27119,1.8812,-1,5
148,0.27306,1.8813,-1,5
149,0.27495,1.8829,-1,5
150,0.27685,1.8847,-1,5
151,0.27874,1.8854,-1,5
152,0.28063,1.8859,-1,5
153,0.28252,1.8875,-1,5
154,0.28442,1.8898,-1,5
155,0.28632,1.8909,-1,5
156,0.28822,1.8916,-1,5
157,0.29012,1.8932,-1,5
158,0.29202,1.8957,-1,5
159,0.29392,1.8973,-1,5
160,0.29583,1.8982,-1,5
161,0.29774,1.8997,-1,5
162,0.29965,1.9016,-1,5
163,0.30155,1.9033,-1,5
164,0.30346,1.9042,-1,5
165,0.30537,1.9053,-1,5
166,0.30729,1.9073,-1,5
167,0.30921,1.9089,-1,5
168,0.31111,1.9097,-1,5
169,0.31303,1.9105,-1,5
170,0.31495,1.9121,-1,5
171,0.31687,1.9127,-1,5
172,0.31879,1.9126,-1,5
173,0.32261,1.9138,-1,5
174,0.32454,1.9153,-1,5
175,0.32646,1.9166,-1,5
176,0.32837,1.9156,-1,5
177,0.33028,1.9149,-1,5
178,0.3322,1.9159,-1,5
179,0.33412,1.917,-1,5
180,0.33604,1.917,-1,5
181,0.33795,1.9163,-1,5
182,0.33986,1.9165,-1,5
183,0.34178,1.9165,-1,5
184,0.3437,1.9161,-1,5
185,0.34561,1.9152,-1,5
186,0.34752,1.9149,-1,5
187,0.34943,1.9147,-1,5
188,0.35134,1.9144,-1,5
189,0.35326,1.9136,-1,5
190,0.35517,1.9125,-1,5
191,0.35706,1.9113,-1,5
192,0.35897,1.9107,-1,5
193,0.36088,1.9101,-1,5
194,0.36279,1.9091,-1,5
195,0.36469,1.9076,-1,5
196,0.36658,1.9063,-1,5
197,0.36849,1.906,-1,5
198,0.37039,1.905,-1,5
199,0.37229,1.9035,-1,5
200,0.37419,1.9019,-1,5
201,0.37608,1.9017,-1,5
202,0.37798,1.9011,-1,5
203,0.37987,1.8993,-1,5
204,0.38176,1.8976,-1,5
205,0.38366,1.8972,-1,5
206,0.38555,1.8971,-1,5
207,0.38744,1.8954,-1,5
208,0.38932,1.8932,-1,5
209,0.39122,1.8924,-1,5
210,0.39311,1.8926,-1,5
211,0.395,1.8918,-1,5
212,0.39688,1.89,-1,5
213,0.39877,1.8892,-1,5
214,0.40066,1.8894,-1,5
215,0.40255,1.8891,-1,5
216,0.40443,1.8879,-1,5
217,0.40632,1.8877,-1,5
218,0.40821,1.8885,-1,5
219,0.4101,1.8887,-1,5
220,0.412,1.8886,-1,5
221,0.41389,1.8887,-1,5
222,0.41578,1.8898,-1,5
223,0.41767,1.8908,-1,5
224,0.41957,1.8915,-1,5
225,0.42338,1.8923,-1,5
226,0.42338,1.8944,-1,5
227,0.42719,1.8965,-1,5
228,0.42719,1.8978,-1,5
229,0.4291,1.8997,-1,5
230,0.43102,1.9026,-1,5
231,0.43294,1.9057,-1,5
232,0.43486,1.9084,-1,5
233,0.43678,1.9111,-1,5
234,0.43872,1.9148,-1,5
235,0.44067,1.9194,-1,5
236,0.44261,1.9233,-1,5
237,0.44455,1.927,-1,5
238,0.4465,1.9318,-1,5
239,0.44848,1.9377,-1,5
240,0.45046,1.9432,-1,5
241,0.45243,1.9488,-1,5
242,0.45441,1.9549,-1,5
243,0.4564,1.9618,-1,5
244,0.45841,1.9688,-1,5
245,0.46042,1.9756,-1,5
246,0.46244,1.9835,-1,5
247,0.46447,1.9918,-1,5
248,0.4665,2,-1,5
249,0.46856,2.0081,-1,5
250,0.47062,2.0168,-1,5
251,0.4727,2.0268,-1,5
252,0.47478,2.0367,-1,5
253,0.47687,2.0469,-1,5
254,0.47898,2.057,-1,5
255,0.4811,2.068,-1,5
256,0.48324,2.0794,-1,5
257,0.48538,2.0913,-1,5
258,0.48754,2.1038,-1,5
259,0.48972,2.1161,-1,5
260,0.49191,2.1284,-1,5
261,0.49411,2.1413,-1,5
262,0.49633,2.1557,-1,5
263,0.49857,2.17,-1,5
264,0.50082,2.1842,-1,5
265,0.50309,2.1983,-1,5
266,0.50538,2.2137,-1,5
267,0.50768,2.2297,-1,5
268,0.51,2.2461,-1,5
269,0.51234,2.2623,-1,5
270,0.5147,2.2789,-1,5
271,0.51707,2.2961,-1,5
272,0.51947,2.3138,-1,5
273,0.52189,2.3316,-1,5
274,0.52432,2.3498,-1,5
275,0.52677,2.3685,-1,5
276,0.52925,2.3888,-1,5
277,0.53174,2.4101,-1,5
278,0.53679,2.4314,-1,5
279,0.53679,2.4513,-1,5
280,0.53935,2.4715,-1,5
281,0.54192,2.4912,-1,5
282,0.54452,2.511,-1,5
283,0.54713,2.5311,-1,5
284,0.54977,2.5514,-1,5
285,0.55242,2.5712,-1,5
286,0.55509,2.589,-1,5
287,0.55777,2.6054,-1,5
288,0.56047,2.6215,-1,5
289,0.56319,2.6399,-1,5
290,0.56594,2.6587,-1,5
291,0.5687,2.6774,-1,5
292,0.57147,2.6954,-1,5
293,0.57427,2.7139,-1,5
294,0.57709,2.7323,-1,5
295,0.57993,2.7511,-1,5
296,0.58279,2.7701,-1,5
297,0.58567,2.7899,-1,5
298,0.58857,2.8098,-1,5
299,0.59149,2.8299,-1,5
300,0.59443,2.8494,-1,5
301,0.59739,2.8694,-1,5
302,0.60037,2.8894,-1,5
303,0.60336,2.909,-1,5
304,0.60638,2.9287,-1,5
305,0.60942,2.9485,-1,5
306,0.61247,2.9682,-1,5
307,0.61555,2.9877,-1,5
308,0.61864,3.0071,-1,5
309,0.62175,3.0259,-1,5
310,0.62488,3.0448,-1,5
311,0.62802,3.0633,-1,5
312,0.63119,3.0817,-1,5
313,0.63436,3.0998,-1,5
314,0.63756,3.1176,-1,5
315,0.64077,3.1348,-1,5
316,0.64399,3.1517,-1,5
317,0.64723,3.1681,-1,5
318,0.65048,3.1841,-1,5
319,0.65375,3.1996,-1,5
320,0.65702,3.2143,-1,5
321,0.66031,3.2283,-1,5
322,0.6636,3.2418,-1,5
323,0.66691,3.2549,-1,5
324,0.67023,3.2673,-1,5
325,0.67355,3.2784,-1,5
326,0.67688,3.2888,-1,5
327,0.68022,3.2986,-1,5
328,0.68356,3.3077,-1,5
329,0.68691,3.316,-1,5
330,0.69026,3.3236,-1,5
331,0.69361,3.3305,-1,5
332,0.69697,3.337,-1,5
333,0.70033,3.3423,-1,5
334,0.7037,3.3468,-1,5
335,0.70706,3.351,-1,5
336,0.71043,3.3546,-1,5
337,0.71379,3.3576,-1,5
338,0.71716,3.3599,-1,5
339,0.72052,3.3616,-1,5
340,0.72389,3.3632,-1,5
341,0.72725,3.3641,-1,5
342,0.73061,3.3641,-1,5
343,0.73398,3.3644,-1,5
344,0.73734,3.3641,-1,5
345,0.74069,3.3634,-1,5
346,0.74405,3.3621,-1,5
347,0.7474,3.3605,-1,5
348,0.75074,3.3587,-1,5
349,0.75409,3.3568,-1,5
350,0.75743,3.3541,-1,5
351,0.76077,3.3514,-1,5
352,0.7641,3.3484,-1,5
353,0.76742,3.3446,-1,5
354,0.77075,3.3407,-1,5
355,0.77406,3.3369,-1,5
356,0.77738,3.3328,-1,5
357,0.78068,3.3287,-1,5
358,0.78399,3.3242,-1,5
359,0.78728,3.3192,-1,5
360,0.79057,3.3141,-1,5
361,0.79386,3.3091,-1,5
362,0.79714,3.3038,-1,5
363,0.80041,3.2983,-1,5
364,0.80368,3.2931,-1,5
365,0.80694,3.2877,-1,5
366,0.8102,3.2823,-1,5
367,0.81345,3.2762,-1,5
368,0.81669,3.2702,-1,5
369,0.81993,3.2644,-1,5
370,0.82316,3.2586,-1,5
371,0.82638,3.2524,-1,5
372,0.8296,3.2465,-1,5
373,0.83282,3.2406,-1,5
374,0.83602,3.2342,-1,5
375,0.83922,3.2281,-1,5
376,0.84242,3.2219,-1,5
377,0.84561,3.2158,-1,5
378,0.84879,3.2099,-1,5
379,0.85197,3.2037,-1,5
380,0.85514,3.1977,-1,5
381,0.8583,3.1919,-1,5
382,0.86146,3.1861,-1,5
383,0.86462,3.1807,-1,5
384,0.86777,3.1753,-1,5
385,0.87092,3.1696,-1,5
386,0.87406,3.1645,-1,5
387,0.87721,3.1599,-1,5
388,0.88034,3.1552,-1,5
389,0.88347,3.1507,-1,5
390,0.8866,3.1461,-1,5
391,0.88972,3.142,-1,5
392,0.89284,3.1381,-1,5
393,0.89596,3.1342,-1,5
394,0.89908,3.1304,-1,5
395,0.90219,3.127,-1,5
396,0.9053,3.1236,-1,5
397,0.90841,3.1202,-1,5
398,0.91151,3.1171,-1,5
399,0.91462,3.1144,-1,5
400,0.91771,3.1116,-1,5
401,0.92082,3.1094,-1,5
402,0.92392,3.1072,-1,5
403,0.92701,3.105,-1,5
404,0.93011,3.1033,-1,5
405,0.9332,3.1015,-1,5
406,0.9363,3.1002,-1,5
407,0.9394,3.099,-1,5
408,0.94249,3.0978,-1,5
409,0.94558,3.0967,-1,5
410,0.94867,3.0961,-1,5
411,0.95177,3.0956,-1,5
412,0.95486,3.0948,-1,5
413,0.95796,3.0941,-1,5
414,0.96105,3.0937,-1,5
415,0.96414,3.0931,-1,5
416,0.96723,3.0926,-1,5
417,0.97032,3.0921,-1,5
418,0.97341,3.0915,-1,5
419,0.97649,3.0907,-1,5
420,0.97958,3.09,-1,5
421,0.98575,3.0885,-1,5
422,0.98883,3.0872,-1,5
423,0.98883,3.0861,-1,5
424,0.9919,3.0847,-1,5
425,0.99498,3.083,-1,5
426,0.99805,3.081,-1,5
427,1.00111,3.0787,-1,5
428,1.00418,3.0764,-1,5
429,1.00724,3.0741,-1,5
430,1.0103,3.0714,-1,5
431,1.01335,3.0682,-1,5
432,1.0164,3.0655,-1,5
433,1.01945,3.062,-1,5
434,1.02248,3.0577,-1,5
435,1.02552,3.054,-1,5
436,1.02855,3.0497,-1,5
437,1.03157,3.0452,-1,5
438,1.03458,3.0403,-1,5
439,1.03759,3.0351,-1,5
440,1.0406,3.0295,-1,5
441,1.04359,3.0237,-1,5
442,1.04659,3.0168,-1,5
443,1.05255,3.0101,-1,5
444,1.05552,3.0034,-1,5
445,1.05848,2.9962,-1,5
446,1.06143,2.9889,-1,5
447,1.06438,2.9813,-1,5
448,1.06732,2.9738,-1,5
449,1.07025,2.9658,-1,5
450,1.07317,2.9579,-1,5
451,1.07609,2.9503,-1,5
452,1.07899,2.9424,-1,5
453,1.08189,2.9343,-1,5
454,1.08478,2.9262,-1,5
455,1.08765,2.9178,-1,5
456,1.09052,2.909,-1,5
457,1.09338,2.9005,-1,5
458,1.09623,2.8912,-1,5
459,1.09907,2.8819,-1,5
460,1.1019,2.8725,-1,5
461,1.10472,2.8628,-1,5
462,1.10752,2.8528,-1,5
463,1.11032,2.843,-1,5
464,1.1131,2.8328,-1,5
465,1.11588,2.8227,-1,5
466,1.11865,2.8126,-1,5
467,1.1214,2.8019,-1,5
468,1.12415,2.7915,-1,5
469,1.12688,2.7811,-1,5
470,1.1296,2.7705,-1,5
471,1.13231,2.7599,-1,5
472,1.13501,2.7492,-1,5
473,1.1377,2.7384,-1,5
474,1.14038,2.7277,-1,5
475,1.14305,2.7169,-1,5
476,1.14571,2.706,-1,5
477,1.14836,2.6954,-1,5
478,1.15099,2.6847,-1,5
479,1.15361,2.6736,-1,5
480,1.15623,2.663,-1,5
481,1.15884,2.6526,-1,5
482,1.16144,2.6425,-1,5
483,1.16402,2.6315,-1,5
484,1.16659,2.6214,-1,5
485,1.16916,2.6113,-1,5
486,1.17172,2.6011,-1,5
487,1.17427,2.591,-1,5
488,1.17681,2.5814,-1,5
489,1.17934,2.5724,-1,5
490,1.18186,2.563,-1,5
491,1.18438,2.5536,-1,5
492,1.18689,2.5451,-1,5
493,1.18939,2.5372,-1,5
494,1.19188,2.5287,-1,5
495,1.19437,2.521,-1,5
496,1.19686,2.514,-1,5
497,1.19934,2.5071,-1,5
498,1.20181,2.5005,-1,5
499,1.20428,2.4946,-1,5
500,1.20675,2.4891,-1,5
501,1.20921,2.4839,-1,5
502,1.21168,2.479,-1,5
503,1.21414,2.4751,-1,5
504,1.2166,2.4718,-1,5
505,1.21906,2.4687,-1,5
506,1.22152,2.4661,-1,5
507,1.22398,2.4647,-1,5
508,1.22645,2.4637,-1,5
509,1.22891,2.4629,-1,5
510,1.23138,2.4631,-1,5
511,1.23386,2.4646,-1,5
512,1.23634,2.4664,-1,5
513,1.23882,2.4683,-1,5
514,1.24132,2.4715,-1,5
515,1.24382,2.4756,-1,5
516,1.24632,2.4803,-1,5
517,1.24884,2.4856,-1,5
518,1.25137,2.4918,-1,5
519,1.2539,2.499,-1,5
520,1.25645,2.5068,-1,5
521,1.25901,2.5147,-1,5
522,1.26158,2.5238,-1,5
523,1.26416,2.5341,-1,5
524,1.26675,2.544,-1,5
525,1.26936,2.5546,-1,5
526,1.27199,2.5665,-1,5
527,1.27463,2.5792,-1,5
528,1.27728,2.5919,-1,5
529,1.27996,2.6056,-1,5
530,1.28265,2.6204,-1,5
531,1.28537,2.6359,-1,5
532,1.2881,2.6524,-1,5
533,1.29086,2.6697,-1,5
534,1.29364,2.6884,-1,5
535,1.29644,2.7081,-1,5
536,1.29927,2.7286,-1,5
537,1.30213,2.7497,-1,5
538,1.30501,2.7725,-1,5
539,1.30792,2.7958,-1,5
540,1.31085,2.82,-1,5
541,1.31382,2.8454,-1,5
542,1.31682,2.8716,-1,5
543,1.31985,2.8987,-1,5
544,1.32291,2.927,-1,5
545,1.326,2.9559,-1,5
546,1.32913,2.9856,-1,5
547,1.33229,3.0161,-1,5
548,1.33548,3.0473,-1,5
549,1.33871,3.0798,-1,5
550,1.34198,3.1129,-1,5
551,1.34529,3.147,-1,5
552,1.34863,3.1816,-1,5
553,1.35202,3.2172,-1,5
554,1.35544,3.2534,-1,5
555,1.3589,3.2903,-1,5
556,1.3624,3.3277,-1,5
557,1.36595,3.3662,-1,5
558,1.36953,3.4054,-1,5
559,1.37316,3.4449,-1,5
560,1.37683,3.4849,-1,5
561,1.38054,3.5251,-1,5
562,1.38429,3.566,-1,5
563,1.38809,3.607,-1,5
564,1.39192,3.6479,-1,5
565,1.3958,3.6892,-1,5
566,1.39971,3.7306,-1,5
567,1.40367,3.772,-1,5
568,1.40767,3.8134,-1,5
569,1.41171,3.8546,-1,5
570,1.41579,3.8955,-1,5
571,1.4199,3.936,-1,5
572,1.42405,3.9759,-1,5
573,1.42824,4.0154,-1,5
574,1.43247,4.055,-1,5
575,1.43673,4.0936,-1,5
576,1.44102,4.1308,-1,5
577,1.44533,4.1664,-1,5
578,1.44967,4.2005,-1,5
579,1.45403,4.2326,-1,5
580,1.45841,4.2629,-1,5
581,1.46281,4.2913,-1,5
582,1.46723,4.3177,-1,5
583,1.47166,4.3415,-1,5
584,1.47609,4.3623,-1,5
585,1.48053,4.3805,-1,5
586,1.48499,4.3968,-1,5
587,1.48945,4.4112,-1,5
588,1.49391,4.4234,-1,5
589,1.49837,4.4335,-1,5
590,1.50283,4.4415,-1,5
591,1.50729,4.4477,-1,5
592,1.51175,4.4522,-1,5
593,1.51621,4.4552,-1,5
594,1.52066,4.4569,-1,5
595,1.5251,4.4569,-1,5
596,1.52954,4.4552,-1,5
597,1.53397,4.4521,-1,5
598,1.5384,4.4487,-1,5
599,1.54282,4.4443,-1,5
600,1.54722,4.4389,-1,5
601,1.55163,4.4329,-1,5
602,1.55602,4.4263,-1,5
603,1.5604,4.4186,-1,5
604,1.56477,4.41,-1,5
605,1.56913,4.4015,-1,5
606,1.57347,4.393,-1,5
607,1.57781,4.384,-1,5
608,1.58214,4.3737,-1,5
609,1.58645,4.3632,-1,5
610,1.59075,4.3521,-1,5
611,1.59503,4.3403,-1,5
612,1.5993,4.3277,-1,5
613,1.60356,4.3155,-1,5
614,1.6078,4.3029,-1,5
615,1.61202,4.2898,-1,5
616,1.61623,4.2757,-1,5
617,1.62043,4.2616,-1,5
618,1.62461,4.2473,-1,5
619,1.62878,4.2332,-1,5
620,1.63293,4.2189,-1,5
621,1.63707,4.2042,-1,5
622,1.64119,4.1897,-1,5
623,1.64531,4.1752,-1,5
624,1.6494,4.1607,-1,5
625,1.65348,4.146,-1,5
626,1.65755,4.1317,-1,5
627,1.6616,4.1169,-1,5
628,1.66563,4.1024,-1,5
629,1.66965,4.087,-1,5
630,1.67365,4.0718,-1,5
631,1.67764,4.0566,-1,5
632,1.68161,4.0413,-1,5
633,1.68556,4.0253,-1,5
634,1.6895,4.0096,-1,5
635,1.69342,3.9937,-1,5
636,1.69733,3.9779,-1,5
637,1.70122,3.9604,-1,5
638,1.70895,3.9425,-1,5
639,1.70895,3.9266,-1,5
640,1.71279,3.9109,-1,5
641,1.71662,3.8953,-1,5
642,1.72043,3.8794,-1,5
643,1.72423,3.864,-1,5
644,1.72801,3.8483,-1,5
645,1.73553,3.8314,-1,5
646,1.73927,3.8143,-1,5
647,1.74299,3.7991,-1,5
648,1.7467,3.7843,-1,5
649,1.7504,3.7682,-1,5
650,1.75407,3.7516,-1,5
651,1.75774,3.7349,-1,5
652,1.76139,3.7191,-1,5
653,1.76503,3.7031,-1,5
654,1.76866,3.6876,-1,5
655,1.77227,3.6741,-1,5
656,1.77588,3.6608,-1,5
657,1.77947,3.6478,-1,5
658,1.78305,3.6349,-1,5
659,1.78662,3.6222,-1,5
660,1.79018,3.6104,-1,5
661,1.79373,3.5994,-1,5
662,1.79727,3.5881,-1,5
663,1.8008,3.5775,-1,5
664,1.80433,3.567,-1,5
665,1.80784,3.5566,-1,5
666,1.81134,3.5467,-1,5
667,1.81484,3.5371,-1,5
668,1.81833,3.5283,-1,5
669,1.82181,3.5194,-1,5
670,1.82529,3.5111,-1,5
671,1.82876,3.5033,-1,5
672,1.83223,3.496,-1,5
673,1.83569,3.489,-1,5
674,1.83915,3.4823,-1,5
675,1.8426,3.4764,-1,5
676,1.84605,3.4709,-1,5
677,1.8495,3.4663,-1,5
678,1.85295,3.4614,-1,5
679,1.85639,3.4581,-1,5
680,1.85983,3.4545,-1,5
681,1.86328,3.4516,-1,5
682,1.86672,3.449,-1,5
683,1.87016,3.4469,-1,5
684,1.8736,3.4455,-1,5
685,1.87705,3.4443,-1,5
686,1.88049,3.4435,-1,5
687,1.88393,3.4432,-1,5
688,1.88738,3.4433,-1,5
689,1.89083,3.4432,-1,5
690,1.89428,3.444,-1,5
691,1.89772,3.4446,-1,5
692,1.90118,3.4459,-1,5
693,1.90464,3.4474,-1,5
694,1.90809,3.4489,-1,5
695,1.91155,3.4509,-1,5
696,1.91502,3.4534,-1,5
697,1.91849,3.4553,-1,5
698,1.92195,3.4577,-1,5
699,1.92543,3.4604,-1,5
700,1.9289,3.4629,-1,5
701,1.93238,3.4658,-1,5
702,1.93586,3.4683,-1,5
703,1.93934,3.4708,-1,5
704,1.94283,3.4741,-1,5
705,1.94632,3.4764,-1,5
706,1.94981,3.479,-1,5
707,1.9533,3.4814,-1,5
708,1.95679,3.4835,-1,5
709,1.96028,3.4856,-1,5
710,1.96378,3.488,-1,5
711,1.96728,3.4899,-1,5
712,1.97078,3.4919,-1,5
713,1.97428,3.4937,-1,5
714,1.97778,3.4949,-1,5
715,1.98129,3.497,-1,5
716,1.98479,3.4983,-1,5
717,1.98829,3.4995,-1,5
718,1.9918,3.5008,-1,5
719,1.99531,3.5022,-1,5
720,1.99882,3.5033,-1,5
721,2.00232,3.504,-1,5
722,2.00583,3.5046,-1,5
723,2.00933,3.5054,-1,5
724,2.01284,3.5056,-1,5
725,2.01634,3.5055,-1,5
726,2.01984,3.505,-1,5
727,2.02334,3.5048,-1,5
728,2.02684,3.5046,-1,5
729,2.03034,3.5035,-1,5
730,2.03384,3.5018,-1,5
731,2.03733,3.5006,-1,5
732,2.04082,3.4989,-1,5
733,2.04431,3.4969,-1,5
734,2.04779,3.495,-1,5
735,2.05127,3.4927,-1,5
736,2.05475,3.4908,-1,5
737,2.05823,3.4888,-1,5
738,2.06171,3.4861,-1,5
739,2.06518,3.4836,-1,5
740,2.06865,3.4815,-1,5
741,2.07212,3.4793,-1,5
742,2.07559,3.4773,-1,5
743,2.07905,3.4748,-1,5
744,2.08252,3.4732,-1,5
745,2.08598,3.4712,-1,5
746,2.08945,3.4694,-1,5
747,2.09291,3.4672,-1,5
748,2.09637,3.4658,-1,5
749,2.09982,3.4643,-1,5
750,2.10329,3.4633,-1,5
751,2.10674,3.4621,-1,5
752,2.11021,3.4614,-1,5
753,2.11367,3.4613,-1,5
754,2.11713,3.4608,-1,5
755,2.1206,3.4611,-1,5
756,2.12406,3.4615,-1,5
757,2.131,3.4625,-1,5
758,2.13447,3.4638,-1,5
759,2.13795,3.4658,-1,5
760,2.14143,3.4678,-1,5
761,2.14143,3.4703,-1,5
762,2.14492,3.4725,-1,5
763,2.1484,3.4753,-1,5
764,2.1519,3.4786,-1,5
765,2.1554,3.482,-1,5
766,2.1589,3.4855,-1,5
767,2.16241,3.49,-1,5
768,2.16593,3.4946,-1,5
769,2.16946,3.4993,-1,5
770,2.17299,3.504,-1,5
771,2.17652,3.5099,-1,5
772,2.18007,3.5158,-1,5
773,2.18362,3.5224,-1,5
774,2.18719,3.5292,-1,5
775,2.19076,3.5367,-1,5
776,2.19435,3.5451,-1,5
777,2.19794,3.5534,-1,5
778,2.20155,3.5622,-1,5
779,2.20517,3.5717,-1,5
780,2.2088,3.582,-1,5
781,2.21245,3.5934,-1,5
782,2.2161,3.6048,-1,5
783,2.21977,3.6164,-1,5
784,2.22346,3.6286,-1,5
785,2.22716,3.6411,-1,5
786,2.23087,3.654,-1,5
787,2.23461,3.6676,-1,5
788,2.23835,3.6811,-1,5
789,2.24211,3.6949,-1,5
790,2.24588,3.7094,-1,5
791,2.24968,3.7232,-1,5
792,2.25349,3.739,-1,5
793,2.25732,3.7547,-1,5
794,2.26117,3.7708,-1,5
795,2.26503,3.7873,-1,5
796,2.26892,3.8043,-1,5
797,2.27282,3.8214,-1,5
798,2.27674,3.8396,-1,5
799,2.28069,3.8585,-1,5
800,2.28466,3.8776,-1,5
801,2.28864,3.8966,-1,5
802,2.29265,3.9161,-1,5
803,2.29668,3.9358,-1,5
804,2.30073,3.9559,-1,5
805,2.30479,3.9759,-1,5
806,2.30888,3.9964,-1,5
807,2.31299,4.0171,-1,5
808,2.31712,4.0378,-1,5
809,2.32127,4.0579,-1,5
810,2.32544,4.0779,-1,5
811,2.32963,4.0984,-1,5
812,2.33384,4.1188,-1,5
813,2.33807,4.1394,-1,5
814,2.34233,4.1599,-1,5
815,2.3466,4.1809,-1,5
816,2.35089,4.2011,-1,5
817,2.35521,4.2215,-1,5
818,2.35954,4.2418,-1,5
819,2.3639,4.2625,-1,5
820,2.36827,4.2831,-1,5
821,2.37266,4.3031,-1,5
822,2.37707,4.3226,-1,5
823,2.3815,4.3424,-1,5
824,2.38595,4.3621,-1,5
825,2.39042,4.3817,-1,5
826,2.39491,4.4013,-1,5
827,2.39941,4.4207,-1,5
828,2.40394,4.44,-1,5
829,2.40849,4.459,-1,5
830,2.41305,4.4781,-1,5
831,2.41763,4.4974,-1,5
832,2.42224,4.5168,-1,5
833,2.42685,4.5356,-1,5
834,2.43149,4.5544,-1,5
835,2.43615,4.5729,-1,5
836,2.44082,4.5908,-1,5
837,2.4455,4.6082,-1,5
838,2.4502,4.6257,-1,5
839,2.45492,4.6428,-1,5
840,2.45965,4.6594,-1,5
841,2.46439,4.6752,-1,5
