cnt,pos,speed,Dir,Force,
1,0,1.0163,-1,3
2,0.00114012,1.038,-1,3
3,0.00230002,1.059,-1,3
4,0.00346994,1.0799,-1,3
5,0.00466013,1.101,-1,3
6,0.00588012,1.1229,-1,3
7,0.00712991,1.1442,-1,3
8,0.00837994,1.1645,-1,3
9,0.00964999,1.1847,-1,3
10,0.0109601,1.2066,-1,3
11,0.01229,1.2285,-1,3
12,0.0136299,1.2486,-1,3
13,0.0149801,1.2682,-1,3
14,0.01636,1.2889,-1,3
15,0.0177701,1.3105,-1,3
16,0.0191901,1.3306,-1,3
17,0.0206301,1.3498,-1,3
18,0.0220799,1.3698,-1,3
19,0.02356,1.3905,-1,3
20,0.0250599,1.4105,-1,3
21,0.0265801,1.4298,-1,3
22,0.02812,1.449,-1,3
23,0.02966,1.4685,-1,3
24,0.03124,1.488,-1,3
25,0.03283,1.5065,-1,3
26,0.03444,1.5253,-1,3
27,0.0360701,1.544,-1,3
28,0.0376999,1.562,-1,3
29,0.03936,1.5798,-1,3
30,0.0410299,1.5974,-1,3
31,0.0427301,1.6147,-1,3
32,0.04444,1.6323,-1,3
33,0.04616,1.6494,-1,3
34,0.0478899,1.6653,-1,3
35,0.04965,1.6816,-1,3
36,0.05142,1.6979,-1,3
37,0.0532,1.714,-1,3
38,0.0550001,1.7298,-1,3
39,0.0568001,1.7448,-1,3
40,0.05863,1.7597,-1,3
41,0.0604801,1.775,-1,3
42,0.06233,1.7894,-1,3
43,0.0641899,1.8035,-1,3
44,0.0660701,1.8177,-1,3
45,0.06796,1.8318,-1,3
46,0.06987,1.8453,-1,3
47,0.07178,1.858,-1,3
48,0.07371,1.871,-1,3
49,0.07565,1.8844,-1,3
50,0.0776,1.897,-1,3
51,0.07956,1.9083,-1,3
52,0.0815301,1.92,-1,3
53,0.0835199,1.9324,-1,3
54,0.08551,1.9446,-1,3
55,0.0875101,1.9552,-1,3
56,0.08952,1.9654,-1,3
57,0.0915501,1.9766,-1,3
58,0.09359,1.9881,-1,3
59,0.0956299,1.9983,-1,3
60,0.0976801,2.0081,-1,3
61,0.09974,2.0181,-1,3
62,0.10182,2.0286,-1,3
63,0.1039,2.0383,-1,3
64,0.10599,2.0476,-1,3
65,0.10808,2.0569,-1,3
66,0.11019,2.0665,-1,3
67,0.1123,2.0756,-1,3
68,0.11443,2.084,-1,3
69,0.11656,2.093,-1,3
70,0.11869,2.1015,-1,3
71,0.12084,2.1098,-1,3
72,0.12299,2.1176,-1,3
73,0.12515,2.1258,-1,3
74,0.12732,2.1334,-1,3
75,0.12949,2.1409,-1,3
76,0.13167,2.1485,-1,3
77,0.13386,2.1559,-1,3
78,0.13605,2.1627,-1,3
79,0.13825,2.1692,-1,3
80,0.14046,2.1762,-1,3
81,0.14267,2.1831,-1,3
82,0.14488,2.1893,-1,3
83,0.1471,2.1949,-1,3
84,0.14933,2.2009,-1,3
85,0.15156,2.2069,-1,3
86,0.15379,2.2121,-1,3
87,0.15603,2.2169,-1,3
88,0.15827,2.2218,-1,3
89,0.16052,2.2266,-1,3
90,0.16276,2.2307,-1,3
91,0.16501,2.2346,-1,3
92,0.16727,2.2385,-1,3
93,0.16953,2.2424,-1,3
94,0.17178,2.2457,-1,3
95,0.17404,2.2486,-1,3
96,0.17631,2.2514,-1,3
97,0.17857,2.2543,-1,3
98,0.18084,2.2569,-1,3
99,0.18311,2.259,-1,3
100,0.18538,2.2613,-1,3
101,0.18765,2.2633,-1,3
102,0.18992,2.2649,-1,3
103,0.19219,2.266,-1,3
104,0.19446,2.2672,-1,3
105,0.19673,2.2683,-1,3
106,0.199,2.2695,-1,3
107,0.20128,2.2702,-1,3
108,0.20354,2.2704,-1,3
109,0.20581,2.2706,-1,3
110,0.20808,2.2707,-1,3
111,0.21035,2.2706,-1,3
112,0.21262,2.2703,-1,3
113,0.21489,2.27,-1,3
114,0.21715,2.2697,-1,3
115,0.21942,2.2693,-1,3
116,0.22168,2.2679,-1,3
117,0.22394,2.2667,-1,3
118,0.22621,2.2661,-1,3
119,0.22846,2.2651,-1,3
120,0.23072,2.2636,-1,3
121,0.23297,2.262,-1,3
122,0.23523,2.2607,-1,3
123,0.23748,2.2592,-1,3
124,0.23973,2.2574,-1,3
125,0.24198,2.2555,-1,3
126,0.24422,2.2537,-1,3
127,0.24646,2.2521,-1,3
128,0.2487,2.25,-1,3
129,0.25094,2.2479,-1,3
130,0.25318,2.2458,-1,3
131,0.25541,2.2435,-1,3
132,0.25764,2.2411,-1,3
133,0.25986,2.2385,-1,3
134,0.26209,2.2359,-1,3
135,0.26431,2.2333,-1,3
136,0.26652,2.2306,-1,3
137,0.26874,2.2274,-1,3
138,0.27095,2.2244,-1,3
139,0.27316,2.2215,-1,3
140,0.27536,2.2184,-1,3
141,0.27756,2.2154,-1,3
142,0.27976,2.2124,-1,3
143,0.28196,2.2097,-1,3
144,0.28415,2.2069,-1,3
145,0.28635,2.2039,-1,3
146,0.28853,2.2009,-1,3
147,0.29072,2.198,-1,3
148,0.2929,2.1952,-1,3
149,0.29508,2.1926,-1,3
150,0.29726,2.1901,-1,3
151,0.29943,2.1873,-1,3
152,0.30161,2.1848,-1,3
153,0.30378,2.1822,-1,3
154,0.30595,2.1796,-1,3
155,0.30811,2.1769,-1,3
156,0.31028,2.1748,-1,3
157,0.31244,2.1727,-1,3
158,0.3146,2.1704,-1,3
159,0.31676,2.1679,-1,3
160,0.31892,2.166,-1,3
161,0.32108,2.1643,-1,3
162,0.32323,2.1623,-1,3
163,0.32538,2.1602,-1,3
164,0.32753,2.1585,-1,3
165,0.32968,2.1571,-1,3
166,0.33183,2.1556,-1,3
167,0.33398,2.1541,-1,3
168,0.33613,2.1527,-1,3
169,0.33828,2.1519,-1,3
170,0.34042,2.1506,-1,3
171,0.34257,2.1497,-1,3
172,0.34472,2.1487,-1,3
173,0.34686,2.1482,-1,3
174,0.34901,2.1476,-1,3
175,0.35116,2.1472,-1,3
176,0.3533,2.1465,-1,3
177,0.35544,2.1461,-1,3
178,0.35759,2.1462,-1,3
179,0.35974,2.146,-1,3
180,0.36188,2.1457,-1,3
181,0.36402,2.1452,-1,3
182,0.36617,2.1454,-1,3
183,0.36832,2.1455,-1,3
184,0.37046,2.1454,-1,3
185,0.37261,2.1451,-1,3
186,0.37475,2.1454,-1,3
187,0.3769,2.1458,-1,3
188,0.37905,2.146,-1,3
189,0.3812,2.1461,-1,3
190,0.38334,2.1464,-1,3
191,0.38549,2.147,-1,3
192,0.38764,2.1473,-1,3
193,0.38979,2.1475,-1,3
194,0.39194,2.1477,-1,3
195,0.39409,2.1483,-1,3
196,0.39624,2.1491,-1,3
197,0.3984,2.1495,-1,3
198,0.40054,2.1494,-1,3
199,0.40269,2.1495,-1,3
200,0.40485,2.1504,-1,3
201,0.407,2.1508,-1,3
202,0.40915,2.1508,-1,3
203,0.4113,2.1508,-1,3
204,0.41345,2.1514,-1,3
205,0.4156,2.1513,-1,3
206,0.41775,2.1505,-1,3
207,0.41989,2.1495,-1,3
208,0.42203,2.1489,-1,3
209,0.42418,2.1481,-1,3
210,0.42632,2.1469,-1,3
211,0.42846,2.1459,-1,3
212,0.4306,2.1449,-1,3
213,0.43274,2.1439,-1,3
214,0.43488,2.1425,-1,3
215,0.43702,2.1415,-1,3
216,0.43915,2.1402,-1,3
217,0.44129,2.1393,-1,3
218,0.44342,2.1383,-1,3
219,0.44555,2.1371,-1,3
220,0.44767,2.1351,-1,3
221,0.44979,2.1331,-1,3
222,0.45192,2.1315,-1,3
223,0.45404,2.1297,-1,3
224,0.45615,2.1271,-1,3
225,0.45826,2.1241,-1,3
226,0.46037,2.1218,-1,3
227,0.46247,2.1192,-1,3
228,0.46458,2.1161,-1,3
229,0.46667,2.1128,-1,3
230,0.46876,2.1096,-1,3
231,0.47086,2.1065,-1,3
232,0.47294,2.1027,-1,3
233,0.47502,2.0986,-1,3
234,0.4771,2.0947,-1,3
235,0.47917,2.091,-1,3
236,0.48124,2.087,-1,3
237,0.4833,2.0827,-1,3
238,0.48536,2.0782,-1,3
239,0.48741,2.0735,-1,3
240,0.48945,2.0691,-1,3
241,0.4915,2.0643,-1,3
242,0.49354,2.0594,-1,3
243,0.49557,2.0544,-1,3
244,0.49759,2.0496,-1,3
245,0.49961,2.0443,-1,3
246,0.50163,2.0389,-1,3
247,0.50364,2.0333,-1,3
248,0.50564,2.0278,-1,3
249,0.50763,2.0226,-1,3
250,0.50963,2.0171,-1,3
251,0.51161,2.0113,-1,3
252,0.51359,2.0054,-1,3
253,0.51556,1.9997,-1,3
254,0.51754,1.9943,-1,3
255,0.5195,1.9887,-1,3
256,0.52146,1.9829,-1,3
257,0.52341,1.977,-1,3
258,0.52536,1.9718,-1,3
259,0.5273,1.9667,-1,3
260,0.52924,1.9605,-1,3
261,0.53117,1.955,-1,3
262,0.5331,1.9498,-1,3
263,0.53503,1.9452,-1,3
264,0.53695,1.9403,-1,3
265,0.53887,1.9358,-1,3
266,0.54078,1.9311,-1,3
267,0.54268,1.9266,-1,3
268,0.54459,1.9225,-1,3
269,0.5465,1.9185,-1,3
270,0.5484,1.9155,-1,3
271,0.55029,1.9117,-1,3
272,0.55218,1.9082,-1,3
273,0.55408,1.9052,-1,3
274,0.55597,1.9024,-1,3
275,0.55786,1.8993,-1,3
276,0.55974,1.8966,-1,3
277,0.56163,1.8952,-1,3
278,0.56353,1.8937,-1,3
279,0.56542,1.8921,-1,3
280,0.5673,1.8904,-1,3
281,0.56919,1.8898,-1,3
282,0.57108,1.8903,-1,3
283,0.57298,1.8905,-1,3
284,0.57488,1.8906,-1,3
285,0.57678,1.8914,-1,3
286,0.57868,1.8933,-1,3
287,0.58059,1.8953,-1,3
288,0.5825,1.8975,-1,3
289,0.58442,1.8999,-1,3
290,0.58634,1.9033,-1,3
291,0.58826,1.9074,-1,3
292,0.5902,1.9114,-1,3
293,0.59214,1.9161,-1,3
294,0.59409,1.9213,-1,3
295,0.59605,1.9272,-1,3
296,0.59801,1.9333,-1,3
297,0.59999,1.94,-1,3
298,0.60198,1.9475,-1,3
299,0.60397,1.9554,-1,3
300,0.60597,1.9639,-1,3
301,0.60799,1.9725,-1,3
302,0.61002,1.9822,-1,3
303,0.61207,1.9921,-1,3
304,0.61412,2.0027,-1,3
305,0.61619,2.0137,-1,3
306,0.61827,2.0255,-1,3
307,0.62037,2.0381,-1,3
308,0.62249,2.0509,-1,3
309,0.62462,2.0647,-1,3
310,0.62676,2.0787,-1,3
311,0.62893,2.0938,-1,3
312,0.63112,2.1093,-1,3
313,0.63332,2.1254,-1,3
314,0.63554,2.142,-1,3
315,0.63778,2.1596,-1,3
316,0.64005,2.178,-1,3
317,0.64233,2.1965,-1,3
318,0.64464,2.2153,-1,3
319,0.64697,2.2348,-1,3
320,0.64932,2.2561,-1,3
321,0.65171,2.2779,-1,3
322,0.65411,2.2994,-1,3
323,0.65654,2.3215,-1,3
324,0.65899,2.3452,-1,3
325,0.66148,2.3698,-1,3
326,0.66399,2.3944,-1,3
327,0.66653,2.4196,-1,3
328,0.6691,2.4459,-1,3
329,0.6717,2.4734,-1,3
330,0.67699,2.5036,-1,3
331,0.67968,2.5346,-1,3
332,0.68241,2.5669,-1,3
333,0.68516,2.5996,-1,3
334,0.68795,2.6328,-1,3
335,0.69077,2.6665,-1,3
336,0.69363,2.7009,-1,3
337,0.69652,2.7358,-1,3
338,0.69944,2.7709,-1,3
339,0.70239,2.8064,-1,3
340,0.70539,2.84,-1,3
341,0.70842,2.874,-1,3
342,0.71149,2.9081,-1,3
343,0.71459,2.9427,-1,3
344,0.71772,2.977,-1,3
345,0.72089,3.0118,-1,3
346,0.7241,3.0468,-1,3
347,0.72734,3.0822,-1,3
348,0.73061,3.1177,-1,3
349,0.73392,3.153,-1,3
350,0.73727,3.188,-1,3
351,0.74064,3.2222,-1,3
352,0.74405,3.2566,-1,3
353,0.7475,3.2914,-1,3
354,0.75099,3.3271,-1,3
355,0.75451,3.3624,-1,3
356,0.75807,3.3972,-1,3
357,0.76165,3.4314,-1,3
358,0.76528,3.4661,-1,3
359,0.76893,3.5009,-1,3
360,0.77262,3.5353,-1,3
361,0.77634,3.5697,-1,3
362,0.78009,3.6036,-1,3
363,0.78387,3.6369,-1,3
364,0.78767,3.6684,-1,3
365,0.79151,3.6996,-1,3
366,0.79538,3.7311,-1,3
367,0.79928,3.7623,-1,3
368,0.8032,3.7926,-1,3
369,0.80715,3.8213,-1,3
370,0.81112,3.8497,-1,3
371,0.81512,3.8776,-1,3
372,0.81914,3.9048,-1,3
373,0.82318,3.9309,-1,3
374,0.82724,3.9565,-1,3
375,0.83132,3.981,-1,3
376,0.83542,4.0044,-1,3
377,0.83955,4.027,-1,3
378,0.84368,4.0482,-1,3
379,0.84784,4.0695,-1,3
380,0.85202,4.0897,-1,3
381,0.8562,4.1086,-1,3
382,0.8604,4.1265,-1,3
383,0.86462,4.1436,-1,3
384,0.86884,4.1602,-1,3
385,0.87308,4.1762,-1,3
386,0.87733,4.1909,-1,3
387,0.8816,4.2049,-1,3
388,0.88586,4.2181,-1,3
389,0.89014,4.2301,-1,3
390,0.89443,4.2414,-1,3
391,0.89873,4.2523,-1,3
392,0.90303,4.2623,-1,3
393,0.90733,4.2719,-1,3
394,0.91164,4.2802,-1,3
395,0.91596,4.2877,-1,3
396,0.92028,4.2945,-1,3
397,0.9246,4.3006,-1,3
398,0.92893,4.3061,-1,3
399,0.93325,4.3109,-1,3
400,0.93757,4.3144,-1,3
401,0.94189,4.3169,-1,3
402,0.94622,4.3193,-1,3
403,0.95055,4.3212,-1,3
404,0.95487,4.3229,-1,3
405,0.9592,4.3234,-1,3
406,0.96352,4.3237,-1,3
407,0.96783,4.323,-1,3
408,0.97215,4.322,-1,3
409,0.97646,4.3204,-1,3
410,0.98076,4.3192,-1,3
411,0.98507,4.3172,-1,3
412,0.98936,4.3145,-1,3
413,0.99365,4.3107,-1,3
414,0.99794,4.3067,-1,3
415,1.00222,4.3022,-1,3
416,1.00648,4.2969,-1,3
417,1.01074,4.291,-1,3
418,1.015,4.285,-1,3
419,1.01924,4.2785,-1,3
420,1.02348,4.2709,-1,3
421,1.0277,4.2628,-1,3
422,1.0319,4.2536,-1,3
423,1.0361,4.2448,-1,3
424,1.0403,4.2357,-1,3
425,1.04448,4.2262,-1,3
426,1.04864,4.2157,-1,3
427,1.0528,4.2051,-1,3
428,1.05694,4.1939,-1,3
429,1.06107,4.1825,-1,3
430,1.06519,4.1712,-1,3
431,1.0693,4.1601,-1,3
432,1.07339,4.1486,-1,3
433,1.07747,4.1362,-1,3
434,1.08153,4.1229,-1,3
435,1.08558,4.1099,-1,3
436,1.08962,4.0974,-1,3
437,1.09364,4.0846,-1,3
438,1.09765,4.0714,-1,3
439,1.10165,4.0581,-1,3
440,1.10563,4.0444,-1,3
441,1.1096,4.0304,-1,3
442,1.11356,4.0168,-1,3
443,1.1175,4.0028,-1,3
444,1.12142,3.989,-1,3
445,1.12533,3.975,-1,3
446,1.12923,3.961,-1,3
447,1.13311,3.9471,-1,3
448,1.13699,3.9334,-1,3
449,1.14084,3.9196,-1,3
450,1.14469,3.9055,-1,3
451,1.14851,3.8913,-1,3
452,1.15233,3.8778,-1,3
453,1.15614,3.8645,-1,3
454,1.15993,3.8517,-1,3
455,1.16371,3.8385,-1,3
456,1.16748,3.8252,-1,3
457,1.17123,3.8115,-1,3
458,1.17496,3.7975,-1,3
459,1.17868,3.7839,-1,3
460,1.1824,3.7709,-1,3
461,1.1861,3.7581,-1,3
462,1.18978,3.7449,-1,3
463,1.19345,3.7313,-1,3
464,1.19711,3.7172,-1,3
465,1.20075,3.7038,-1,3
466,1.20439,3.6907,-1,3
467,1.20801,3.6782,-1,3
468,1.21162,3.6656,-1,3
469,1.21521,3.6525,-1,3
470,1.21879,3.6389,-1,3
471,1.22235,3.6255,-1,3
472,1.22591,3.6122,-1,3
473,1.22945,3.5993,-1,3
474,1.23297,3.5853,-1,3
475,1.23649,3.5708,-1,3
476,1.23999,3.5559,-1,3
477,1.24347,3.5421,-1,3
478,1.24695,3.5274,-1,3
479,1.25041,3.5142,-1,3
480,1.25385,3.5014,-1,3
481,1.25729,3.487,-1,3
482,1.26412,3.4724,-1,3
483,1.26751,3.4579,-1,3
484,1.2709,3.4448,-1,3
485,1.27427,3.4318,-1,3
486,1.27762,3.4189,-1,3
487,1.28096,3.4045,-1,3
488,1.28429,3.3913,-1,3
489,1.28761,3.3767,-1,3
490,1.29091,3.3621,-1,3
491,1.2942,3.3491,-1,3
492,1.29748,3.3357,-1,3
493,1.30074,3.3226,-1,3
494,1.30399,3.3092,-1,3
495,1.30723,3.2958,-1,3
496,1.31045,3.2824,-1,3
497,1.31366,3.2692,-1,3
498,1.31685,3.2562,-1,3
499,1.32004,3.2433,-1,3
500,1.32321,3.23,-1,3
501,1.32637,3.2166,-1,3
502,1.32951,3.2035,-1,3
503,1.33264,3.1904,-1,3
504,1.33576,3.1773,-1,3
505,1.33887,3.1645,-1,3
506,1.34197,3.1518,-1,3
507,1.34505,3.1389,-1,3
508,1.34812,3.126,-1,3
509,1.35117,3.1134,-1,3
510,1.35422,3.1008,-1,3
511,1.35725,3.0882,-1,3
512,1.36027,3.0756,-1,3
513,1.36327,3.0629,-1,3
514,1.36627,3.0505,-1,3
515,1.36925,3.0379,-1,3
516,1.37222,3.0253,-1,3
517,1.37518,3.0129,-1,3
518,1.37812,3.0007,-1,3
519,1.38106,2.9882,-1,3
520,1.38398,2.976,-1,3
521,1.38689,2.9638,-1,3
522,1.38979,2.9517,-1,3
523,1.39267,2.9394,-1,3
524,1.39554,2.927,-1,3
525,1.3984,2.9145,-1,3
526,1.40125,2.9025,-1,3
527,1.40408,2.8907,-1,3
528,1.40691,2.8783,-1,3
529,1.40971,2.8657,-1,3
530,1.41252,2.8536,-1,3
531,1.4153,2.8415,-1,3
532,1.41808,2.8296,-1,3
533,1.42084,2.8176,-1,3
534,1.4236,2.8057,-1,3
535,1.42634,2.7939,-1,3
536,1.42907,2.782,-1,3
537,1.43179,2.7702,-1,3
538,1.4345,2.7576,-1,3
539,1.43719,2.745,-1,3
540,1.43987,2.7331,-1,3
541,1.44255,2.7218,-1,3
542,1.44522,2.711,-1,3
543,1.44787,2.7001,-1,3
544,1.45052,2.6894,-1,3
545,1.45316,2.6792,-1,3
546,1.45578,2.669,-1,3
547,1.4584,2.6589,-1,3
548,1.46102,2.6505,-1,3
549,1.46362,2.6432,-1,3
550,1.46622,2.635,-1,3
551,1.46882,2.6271,-1,3
552,1.47141,2.6195,-1,3
553,1.47401,2.6132,-1,3
554,1.47659,2.6073,-1,3
555,1.47918,2.6025,-1,3
556,1.48176,2.5981,-1,3
557,1.48435,2.5949,-1,3
558,1.48694,2.5922,-1,3
559,1.48953,2.5902,-1,3
560,1.49212,2.5891,-1,3
561,1.4947,2.5884,-1,3
562,1.4973,2.5883,-1,3
563,1.4999,2.5892,-1,3
564,1.5025,2.5906,-1,3
565,1.5051,2.5924,-1,3
566,1.50772,2.5955,-1,3
567,1.51034,2.5991,-1,3
568,1.51297,2.6032,-1,3
569,1.51561,2.6083,-1,3
570,1.51826,2.6143,-1,3
571,1.52092,2.6215,-1,3
572,1.52359,2.6295,-1,3
573,1.52628,2.638,-1,3
574,1.52898,2.6481,-1,3
575,1.53169,2.659,-1,3
576,1.53443,2.6708,-1,3
577,1.53718,2.6836,-1,3
578,1.53995,2.6979,-1,3
579,1.54274,2.7127,-1,3
580,1.54554,2.7285,-1,3
581,1.54838,2.7457,-1,3
582,1.55124,2.7645,-1,3
583,1.55413,2.7851,-1,3
584,1.55705,2.8072,-1,3
585,1.56,2.8302,-1,3
586,1.56297,2.8544,-1,3
587,1.56598,2.8798,-1,3
588,1.56901,2.9065,-1,3
589,1.57519,2.938,-1,3
590,1.57519,2.9707,-1,3
591,1.57832,3.0035,-1,3
592,1.58469,3.0379,-1,3
593,1.58469,3.0738,-1,3
594,1.58794,3.1066,-1,3
595,1.59123,3.1417,-1,3
596,1.59457,3.1782,-1,3
597,1.59795,3.2155,-1,3
598,1.60137,3.2538,-1,3
599,1.60484,3.2905,-1,3
600,1.60836,3.3287,-1,3
601,1.61192,3.3687,-1,3
602,1.61552,3.4087,-1,3
603,1.61918,3.4489,-1,3
604,1.62287,3.4933,-1,3
605,1.62661,3.5378,-1,3
606,1.63041,3.5833,-1,3
607,1.63426,3.631,-1,3
608,1.63817,3.6798,-1,3
609,1.64213,3.7288,-1,3
610,1.64613,3.7775,-1,3
611,1.65019,3.8268,-1,3
612,1.65429,3.8769,-1,3
613,1.65845,3.9274,-1,3
614,1.66266,3.9786,-1,3
615,1.66691,4.0298,-1,3
616,1.67121,4.0804,-1,3
617,1.67556,4.1299,-1,3
618,1.67996,4.1788,-1,3
619,1.6844,4.2269,-1,3
620,1.68889,4.2754,-1,3
621,1.69342,4.323,-1,3
622,1.69799,4.3696,-1,3
623,1.7026,4.4149,-1,3
624,1.70725,4.459,-1,3
625,1.71193,4.5017,-1,3
626,1.71664,4.5433,-1,3
627,1.72139,4.5831,-1,3
628,1.72617,4.6216,-1,3
629,1.73098,4.6584,-1,3
630,1.73582,4.6933,-1,3
631,1.74069,4.7269,-1,3
632,1.74558,4.7594,-1,3
633,1.7505,4.7906,-1,3
634,1.75545,4.8206,-1,3
635,1.76042,4.8492,-1,3
636,1.76541,4.8762,-1,3
637,1.77041,4.9023,-1,3
638,1.77544,4.9271,-1,3
639,1.78049,4.9507,-1,3
640,1.78555,4.973,-1,3
641,1.79063,4.9942,-1,3
642,1.79572,5.0136,-1,3
643,1.80082,5.0319,-1,3
644,1.80594,5.0489,-1,3
645,1.81107,5.0656,-1,3
646,1.81622,5.081,-1,3
647,1.82137,5.0953,-1,3
648,1.82653,5.1084,-1,3
649,1.8317,5.1213,-1,3
650,1.83688,5.1333,-1,3
651,1.84207,5.1445,-1,3
652,1.84727,5.1548,-1,3
653,1.85247,5.1643,-1,3
654,1.85767,5.1728,-1,3
655,1.86288,5.1802,-1,3
656,1.86809,5.1873,-1,3
657,1.8733,5.1935,-1,3
658,1.87852,5.1985,-1,3
659,1.88372,5.2019,-1,3
660,1.88894,5.2055,-1,3
661,1.89416,5.2084,-1,3
662,1.89937,5.2104,-1,3
663,1.90458,5.2111,-1,3
664,1.90978,5.2115,-1,3
665,1.91499,5.2113,-1,3
666,1.9202,5.211,-1,3
667,1.9254,5.2098,-1,3
668,1.9306,5.2086,-1,3
669,1.93579,5.2069,-1,3
670,1.94098,5.204,-1,3
671,1.94617,5.2008,-1,3
672,1.95135,5.1978,-1,3
673,1.95653,5.1949,-1,3
674,1.9617,5.1912,-1,3
675,1.96686,5.1864,-1,3
676,1.97201,5.1806,-1,3
677,1.97715,5.1745,-1,3
678,1.98229,5.1685,-1,3
679,1.98742,5.1626,-1,3
680,1.99254,5.1561,-1,3
681,1.99765,5.1481,-1,3
682,2.00275,5.1395,-1,3
683,2.00784,5.1306,-1,3
684,2.01292,5.1219,-1,3
685,2.01799,5.1133,-1,3
686,2.02305,5.1046,-1,3
687,2.02811,5.0957,-1,3
688,2.03315,5.0859,-1,3
689,2.03818,5.0759,-1,3
690,2.0432,5.0656,-1,3
691,2.0482,5.055,-1,3
692,2.05318,5.0437,-1,3
693,2.05816,5.0325,-1,3
694,2.06312,5.0207,-1,3
695,2.06808,5.0087,-1,3
696,2.07301,4.9956,-1,3
697,2.07793,4.9822,-1,3
698,2.08283,4.9686,-1,3
699,2.08773,4.9547,-1,3
700,2.0926,4.9405,-1,3
701,2.09747,4.9267,-1,3
702,2.10231,4.9126,-1,3
703,2.10714,4.8979,-1,3
704,2.11196,4.8832,-1,3
705,2.11676,4.8686,-1,3
706,2.12155,4.8541,-1,3
707,2.12633,4.8397,-1,3
708,2.13109,4.8252,-1,3
709,2.13583,4.8102,-1,3
710,2.14056,4.7953,-1,3
711,2.14527,4.7804,-1,3
712,2.14998,4.7666,-1,3
713,2.15467,4.7528,-1,3
714,2.15934,4.7384,-1,3
715,2.164,4.7232,-1,3
716,2.16864,4.7091,-1,3
717,2.17328,4.6951,-1,3
718,2.1779,4.6813,-1,3
719,2.18251,4.6676,-1,3
720,2.1871,4.654,-1,3
721,2.19167,4.6402,-1,3
722,2.19624,4.6265,-1,3
723,2.2008,4.6128,-1,3
724,2.20534,4.5998,-1,3
725,2.20986,4.5868,-1,3
726,2.21438,4.5732,-1,3
727,2.21888,4.5599,-1,3
728,2.22337,4.5469,-1,3
729,2.22785,4.5341,-1,3
730,2.23231,4.5214,-1,3
731,2.23676,4.5088,-1,3
732,2.2412,4.4954,-1,3
733,2.24562,4.4826,-1,3
734,2.25004,4.4699,-1,3
735,2.25444,4.4575,-1,3
736,2.25882,4.4448,-1,3
737,2.2632,4.4322,-1,3
738,2.26756,4.4192,-1,3
739,2.27191,4.4065,-1,3
740,2.27625,4.3934,-1,3
741,2.28057,4.3806,-1,3
742,2.28488,4.3682,-1,3
743,2.28918,4.3552,-1,3
744,2.29346,4.3422,-1,3
745,2.29773,4.3291,-1,3
746,2.30198,4.3162,-1,3
747,2.30623,4.3028,-1,3
748,2.31046,4.2897,-1,3
749,2.31468,4.2766,-1,3
750,2.31888,4.2637,-1,3
751,2.32307,4.2505,-1,3
752,2.32725,4.2368,-1,3
753,2.33141,4.2233,-1,3
754,2.33556,4.2097,-1,3
755,2.33969,4.1964,-1,3
756,2.34382,4.1832,-1,3
757,2.34792,4.1699,-1,3
758,2.35201,4.1558,-1,3
759,2.35609,4.1414,-1,3
760,2.36016,4.1277,-1,3
761,2.36421,4.1141,-1,3
762,2.36825,4.1007,-1,3
763,2.37227,4.0866,-1,3
764,2.37629,4.0728,-1,3
765,2.38028,4.0588,-1,3
766,2.38427,4.045,-1,3
767,2.38823,4.0309,-1,3
768,2.39219,4.0175,-1,3
769,2.39613,4.0043,-1,3
770,2.40398,3.9891,-1,3
771,2.40398,3.9738,-1,3
772,2.41177,3.9585,-1,3
773,2.41564,3.9438,-1,3
774,2.4195,3.9285,-1,3
775,2.42335,3.9136,-1,3
776,2.42718,3.8983,-1,3
777,2.431,3.8834,-1,3
778,2.4348,3.8682,-1,3
779,2.43859,3.8525,-1,3
780,2.44236,3.8386,-1,3
781,2.44613,3.825,-1,3
782,2.44988,3.8111,-1,3
783,2.45361,3.7973,-1,3
784,2.45733,3.7836,-1,3
785,2.46104,3.7697,-1,3
786,2.46474,3.7558,-1,3
787,2.46842,3.7419,-1,3
788,2.47208,3.7283,-1,3
789,2.47573,3.7148,-1,3
790,2.47938,3.7012,-1,3
791,2.483,3.6873,-1,3
792,2.48661,3.6735,-1,3
793,2.49021,3.6595,-1,3
794,2.49379,3.6456,-1,3
795,2.49736,3.6318,-1,3
796,2.50092,3.6181,-1,3
797,2.50446,3.6043,-1,3
798,2.50799,3.5906,-1,3
799,2.5115,3.5769,-1,3
800,2.51501,3.5632,-1,3
801,2.5185,3.5496,-1,3
802,2.52198,3.5363,-1,3
803,2.52544,3.5233,-1,3
804,2.5289,3.5106,-1,3
805,2.53234,3.4976,-1,3
806,2.53577,3.485,-1,3
807,2.53919,3.4732,-1,3
808,2.5426,3.4613,-1,3
809,2.54601,3.4506,-1,3
810,2.54941,3.4405,-1,3
811,2.55282,3.4318,-1,3
812,2.55621,3.4239,-1,3
813,2.55961,3.4168,-1,3
814,2.563,3.4101,-1,3
815,2.56639,3.405,-1,3
816,2.56977,3.4007,-1,3
817,2.57316,3.3971,-1,3
818,2.57655,3.3945,-1,3
819,2.57993,3.3923,-1,3
820,2.58332,3.3909,-1,3
821,2.58671,3.3893,-1,3
822,2.5901,3.3888,-1,3
823,2.59351,3.3897,-1,3
824,2.59692,3.3922,-1,3
825,2.60034,3.3958,-1,3
826,2.60379,3.4011,-1,3
827,2.60723,3.4073,-1,3
828,2.6107,3.415,-1,3
829,2.61417,3.424,-1,3
830,2.61767,3.4347,-1,3
831,2.62118,3.4474,-1,3
832,2.62471,3.4612,-1,3
833,2.62827,3.4761,-1,3
834,2.63185,3.4929,-1,3
835,2.63546,3.5115,-1,3
836,2.63911,3.532,-1,3
837,2.64278,3.5541,-1,3
838,2.64648,3.5783,-1,3
839,2.65022,3.6046,-1,3
840,2.654,3.6325,-1,3
841,2.6578,3.6618,-1,3
