cnt,pos,speed,Dir,Force,
1,0,2.3842,-1,3
2,0.00232983,2.3742,-1,3
3,0.00463986,2.3628,-1,3
4,0.0069499,2.3514,-1,3
5,0.00924993,2.3397,-1,3
6,0.0115299,2.3297,-1,3
7,0.0137999,2.3193,-1,3
8,0.0160499,2.3079,-1,3
9,0.0182998,2.2964,-1,3
10,0.02053,2.2845,-1,3
11,0.0227599,2.2728,-1,3
12,0.0249698,2.2592,-1,3
13,0.0271599,2.2465,-1,3
14,0.0315099,2.2336,-1,3
15,0.0336699,2.221,-1,3
16,0.0336699,2.2069,-1,3
17,0.03581,2.1944,-1,3
18,0.0379398,2.1822,-1,3
19,0.0400598,2.1682,-1,3
20,0.0421598,2.1553,-1,3
21,0.04634,2.1409,-1,3
22,0.0484099,2.1289,-1,3
23,0.0504599,2.1165,-1,3
24,0.0525,2.1035,-1,3
25,0.0545299,2.0906,-1,3
26,0.0565498,2.0784,-1,3
27,0.0585599,2.0634,-1,3
28,0.06055,2.0495,-1,3
29,0.0625298,2.0359,-1,3
30,0.0644999,2.0213,-1,3
31,0.0683999,2.0074,-1,3
32,0.0703399,1.9934,-1,3
33,0.0722499,1.9798,-1,3
34,0.0741699,1.967,-1,3
35,0.0760698,1.9543,-1,3
36,0.07796,1.941,-1,3
37,0.0798299,1.9294,-1,3
38,0.0816998,1.9165,-1,3
39,0.08355,1.9051,-1,3
40,0.0853999,1.8939,-1,3
41,0.08723,1.8828,-1,3
42,0.0890498,1.8717,-1,3
43,0.0908599,1.8604,-1,3
44,0.09266,1.8492,-1,3
45,0.09445,1.8381,-1,3
46,0.0962298,1.8272,-1,3
47,0.0979898,1.8158,-1,3
48,0.0997398,1.8046,-1,3
49,0.10149,1.7932,-1,3
50,0.10322,1.782,-1,3
51,0.10494,1.771,-1,3
52,0.10665,1.7597,-1,3
53,0.10835,1.7486,-1,3
54,0.11003,1.737,-1,3
55,0.11171,1.7256,-1,3
56,0.11337,1.7144,-1,3
57,0.11502,1.7032,-1,3
58,0.11666,1.6917,-1,3
59,0.11829,1.6803,-1,3
60,0.11991,1.6685,-1,3
61,0.12152,1.6574,-1,3
62,0.12311,1.646,-1,3
63,0.12469,1.6346,-1,3
64,0.12626,1.6233,-1,3
65,0.12782,1.6118,-1,3
66,0.12938,1.6003,-1,3
67,0.13092,1.5895,-1,3
68,0.13245,1.5788,-1,3
69,0.13397,1.5678,-1,3
70,0.13547,1.5569,-1,3
71,0.13697,1.5457,-1,3
72,0.13846,1.5353,-1,3
73,0.13994,1.5253,-1,3
74,0.14142,1.5155,-1,3
75,0.14288,1.5044,-1,3
76,0.14577,1.4937,-1,3
77,0.14721,1.4833,-1,3
78,0.14865,1.4738,-1,3
79,0.15008,1.4652,-1,3
80,0.1515,1.4568,-1,3
81,0.15292,1.4485,-1,3
82,0.15434,1.4413,-1,3
83,0.15575,1.4342,-1,3
84,0.15715,1.4273,-1,3
85,0.15855,1.4218,-1,3
86,0.15993,1.4159,-1,3
87,0.16273,1.4127,-1,3
88,0.16418,1.4147,-1,3
89,0.16569,1.4223,-1,3
90,0.16722,1.4329,-1,3
91,0.16722,1.4435,-1,3
92,0.16874,1.4539,-1,3
93,0.17025,1.4641,-1,3
94,0.17178,1.4763,-1,3
95,0.17335,1.4932,-1,3
96,0.17494,1.5144,-1,3
97,0.17654,1.534,-1,3
98,0.17814,1.5513,-1,3
99,0.18144,1.5673,-1,3
100,0.18313,1.5839,-1,3
101,0.18313,1.6018,-1,3
102,0.18483,1.6197,-1,3
103,0.18654,1.6394,-1,3
104,0.18828,1.661,-1,3
105,0.19007,1.6828,-1,3
106,0.19188,1.7042,-1,3
107,0.19371,1.7297,-1,3
108,0.19747,1.7573,-1,3
109,0.19943,1.7863,-1,3
110,0.20143,1.8166,-1,3
111,0.20346,1.85,-1,3
112,0.20346,1.8878,-1,3
113,0.20554,1.9248,-1,3
114,0.20767,1.969,-1,3
115,0.20986,2.0139,-1,3
116,0.21436,2.0599,-1,3
117,0.21668,2.1057,-1,3
118,0.21904,2.1518,-1,3
119,0.22146,2.1976,-1,3
120,0.22391,2.2435,-1,3
121,0.22642,2.2905,-1,3
122,0.22897,2.3382,-1,3
123,0.23158,2.3909,-1,3
124,0.23424,2.4382,-1,3
125,0.23695,2.4861,-1,3
126,0.23971,2.5355,-1,3
127,0.24541,2.5914,-1,3
128,0.24834,2.6479,-1,3
129,0.25132,2.7043,-1,3
130,0.25435,2.7617,-1,3
131,0.25743,2.8192,-1,3
132,0.26056,2.8765,-1,3
133,0.26374,2.9337,-1,3
134,0.26696,2.99,-1,3
135,0.27022,3.0454,-1,3
136,0.27352,3.0989,-1,3
137,0.27686,3.1454,-1,3
138,0.28024,3.1898,-1,3
139,0.28365,3.2333,-1,3
140,0.2871,3.2752,-1,3
141,0.2906,3.3165,-1,3
142,0.29412,3.3564,-1,3
143,0.29768,3.3946,-1,3
144,0.30128,3.4354,-1,3
145,0.30491,3.4717,-1,3
146,0.30856,3.5093,-1,3
147,0.31593,3.545,-1,3
148,0.31965,3.5795,-1,3
149,0.32339,3.6123,-1,3
150,0.32715,3.6432,-1,3
151,0.33092,3.671,-1,3
152,0.33471,3.6967,-1,3
153,0.33851,3.7204,-1,3
154,0.34232,3.7384,-1,3
155,0.34613,3.7575,-1,3
156,0.34997,3.7729,-1,3
157,0.3538,3.7871,-1,3
158,0.35765,3.7999,-1,3
159,0.36151,3.8115,-1,3
160,0.36538,3.8223,-1,3
161,0.36925,3.833,-1,3
162,0.37314,3.8432,-1,3
163,0.37704,3.8529,-1,3
164,0.38094,3.8622,-1,3
165,0.38484,3.8709,-1,3
166,0.38876,3.8791,-1,3
167,0.39267,3.8869,-1,3
168,0.3966,3.8945,-1,3
169,0.40052,3.9011,-1,3
170,0.40445,3.9069,-1,3
171,0.40837,3.9121,-1,3
172,0.4123,3.9164,-1,3
173,0.41623,3.9201,-1,3
174,0.42016,3.9226,-1,3
175,0.42408,3.9242,-1,3
176,0.42801,3.9254,-1,3
177,0.43193,3.9258,-1,3
178,0.43585,3.9256,-1,3
179,0.43976,3.9247,-1,3
180,0.44368,3.9235,-1,3
181,0.44759,3.921,-1,3
182,0.45149,3.9178,-1,3
183,0.45539,3.9145,-1,3
184,0.45928,3.9111,-1,3
185,0.46317,3.9074,-1,3
186,0.46705,3.9029,-1,3
187,0.47092,3.8979,-1,3
188,0.47479,3.8925,-1,3
189,0.48249,3.8861,-1,3
190,0.48633,3.8787,-1,3
191,0.49017,3.8716,-1,3
192,0.49399,3.8643,-1,3
193,0.49781,3.8562,-1,3
194,0.50162,3.8481,-1,3
195,0.50543,3.8401,-1,3
196,0.50922,3.8312,-1,3
197,0.513,3.8221,-1,3
198,0.51677,3.8126,-1,3
199,0.52053,3.8039,-1,3
200,0.52429,3.7952,-1,3
201,0.52803,3.7861,-1,3
202,0.53176,3.7766,-1,3
203,0.53548,3.7667,-1,3
204,0.53919,3.7565,-1,3
205,0.54289,3.7459,-1,3
206,0.54658,3.7358,-1,3
207,0.55025,3.7255,-1,3
208,0.55392,3.7149,-1,3
209,0.55757,3.7039,-1,3
210,0.56122,3.6929,-1,3
211,0.56485,3.6816,-1,3
212,0.56847,3.6705,-1,3
213,0.57207,3.6593,-1,3
214,0.57567,3.6479,-1,3
215,0.57925,3.6363,-1,3
216,0.58282,3.6243,-1,3
217,0.58638,3.6125,-1,3
218,0.58992,3.6003,-1,3
219,0.59346,3.5882,-1,3
220,0.59697,3.5757,-1,3
221,0.60048,3.5631,-1,3
222,0.60397,3.5503,-1,3
223,0.60745,3.5376,-1,3
224,0.61091,3.5246,-1,3
225,0.61437,3.5116,-1,3
226,0.6178,3.4985,-1,3
227,0.62123,3.4851,-1,3
228,0.62464,3.4722,-1,3
229,0.62804,3.4589,-1,3
230,0.63143,3.4458,-1,3
231,0.63481,3.4331,-1,3
232,0.63817,3.419,-1,3
233,0.64486,3.4048,-1,3
234,0.64818,3.3908,-1,3
235,0.6515,3.3767,-1,3
236,0.6548,3.3629,-1,3
237,0.65808,3.3491,-1,3
238,0.66136,3.3354,-1,3
239,0.66463,3.3217,-1,3
240,0.66787,3.3078,-1,3
241,0.67111,3.294,-1,3
242,0.67434,3.2814,-1,3
243,0.67754,3.2674,-1,3
244,0.68393,3.2534,-1,3
245,0.6871,3.2395,-1,3
246,0.69026,3.2255,-1,3
247,0.69341,3.2118,-1,3
248,0.69655,3.1976,-1,3
249,0.69967,3.1835,-1,3
250,0.70278,3.1698,-1,3
251,0.70587,3.1554,-1,3
252,0.70896,3.1414,-1,3
253,0.71203,3.1288,-1,3
254,0.71509,3.1162,-1,3
255,0.71814,3.1039,-1,3
256,0.72118,3.0915,-1,3
257,0.7242,3.0788,-1,3
258,0.72721,3.0664,-1,3
259,0.73021,3.0538,-1,3
260,0.73319,3.041,-1,3
261,0.73616,3.0284,-1,3
262,0.73912,3.0157,-1,3
263,0.74206,3.0032,-1,3
264,0.745,2.9906,-1,3
265,0.74792,2.9781,-1,3
266,0.75083,2.9656,-1,3
267,0.75373,2.953,-1,3
268,0.75661,2.9403,-1,3
269,0.75948,2.9277,-1,3
270,0.76234,2.915,-1,3
271,0.76519,2.9027,-1,3
272,0.76802,2.8904,-1,3
273,0.77084,2.8779,-1,3
274,0.77365,2.8656,-1,3
275,0.77645,2.8528,-1,3
276,0.77923,2.8396,-1,3
277,0.78199,2.8267,-1,3
278,0.78475,2.8137,-1,3
279,0.7875,2.8012,-1,3
280,0.79023,2.7888,-1,3
281,0.79295,2.7764,-1,3
282,0.79566,2.7643,-1,3
283,0.79836,2.7524,-1,3
284,0.80106,2.7406,-1,3
285,0.80374,2.7284,-1,3
286,0.80642,2.7167,-1,3
287,0.81174,2.7056,-1,3
288,0.81439,2.6949,-1,3
289,0.81702,2.6835,-1,3
290,0.81964,2.6726,-1,3
291,0.82225,2.6617,-1,3
292,0.82486,2.6509,-1,3
293,0.82745,2.6401,-1,3
294,0.83004,2.6296,-1,3
295,0.83518,2.6185,-1,3
296,0.83774,2.608,-1,3
297,0.84029,2.5975,-1,3
298,0.84029,2.5874,-1,3
299,0.84284,2.579,-1,3
300,0.84537,2.5701,-1,3
301,0.8479,2.5619,-1,3
302,0.85043,2.5541,-1,3
303,0.85295,2.547,-1,3
304,0.85547,2.5402,-1,3
305,0.8605,2.535,-1,3
306,0.86301,2.5301,-1,3
307,0.86552,2.5258,-1,3
308,0.86803,2.5219,-1,3
309,0.87054,2.5178,-1,3
310,0.87304,2.5147,-1,3
311,0.87554,2.5119,-1,3
312,0.87805,2.5097,-1,3
313,0.88056,2.5084,-1,3
314,0.88307,2.5078,-1,3
315,0.88559,2.5097,-1,3
316,0.88812,2.5128,-1,3
317,0.89322,2.5171,-1,3
318,0.89579,2.5236,-1,3
319,0.89838,2.532,-1,3
320,0.90099,2.5427,-1,3
321,0.90362,2.5555,-1,3
322,0.90627,2.5705,-1,3
323,0.90895,2.5866,-1,3
324,0.91164,2.6045,-1,3
325,0.91436,2.6233,-1,3
326,0.9171,2.6439,-1,3
327,0.91987,2.6658,-1,3
328,0.92267,2.6882,-1,3
329,0.92549,2.7116,-1,3
330,0.92835,2.7362,-1,3
331,0.93123,2.7613,-1,3
332,0.93414,2.7869,-1,3
333,0.93708,2.814,-1,3
334,0.94006,2.8422,-1,3
335,0.94306,2.8707,-1,3
336,0.9461,2.8997,-1,3
337,0.94916,2.9292,-1,3
338,0.95227,2.9597,-1,3
339,0.95541,2.9915,-1,3
340,0.95858,3.0236,-1,3
341,0.96181,3.0575,-1,3
342,0.96507,3.0926,-1,3
343,0.96837,3.1291,-1,3
344,0.97173,3.1669,-1,3
345,0.97512,3.2058,-1,3
346,0.97856,3.2458,-1,3
347,0.98204,3.2871,-1,3
348,0.98555,3.3287,-1,3
349,0.98911,3.37,-1,3
350,0.9927,3.4115,-1,3
351,0.99633,3.4524,-1,3
352,1,3.4927,-1,3
353,1.0037,3.5319,-1,3
354,1.00743,3.5698,-1,3
355,1.01119,3.6068,-1,3
356,1.01498,3.6422,-1,3
357,1.0188,3.6761,-1,3
358,1.02264,3.712,-1,3
359,1.03043,3.747,-1,3
360,1.03436,3.7814,-1,3
361,1.03833,3.8152,-1,3
362,1.04233,3.8482,-1,3
363,1.04636,3.8811,-1,3
364,1.05041,3.9136,-1,3
365,1.0545,3.9461,-1,3
366,1.05861,3.9787,-1,3
367,1.06276,4.0113,-1,3
368,1.07111,4.0424,-1,3
369,1.07532,4.0728,-1,3
370,1.07955,4.102,-1,3
371,1.0838,4.1301,-1,3
372,1.08807,4.1575,-1,3
373,1.09235,4.1828,-1,3
374,1.09664,4.2067,-1,3
375,1.10095,4.2284,-1,3
376,1.10527,4.2487,-1,3
377,1.1096,4.2677,-1,3
378,1.11395,4.2834,-1,3
379,1.1183,4.2975,-1,3
380,1.12266,4.3105,-1,3
381,1.12703,4.3226,-1,3
382,1.1314,4.3333,-1,3
383,1.13579,4.3435,-1,3
384,1.14017,4.3529,-1,3
385,1.14457,4.3624,-1,3
386,1.14898,4.3713,-1,3
387,1.1534,4.3798,-1,3
388,1.15783,4.3877,-1,3
389,1.16226,4.3958,-1,3
390,1.16669,4.4037,-1,3
391,1.17114,4.4112,-1,3
392,1.17559,4.4186,-1,3
393,1.18005,4.4261,-1,3
394,1.1845,4.4329,-1,3
395,1.18896,4.439,-1,3
396,1.19342,4.4442,-1,3
397,1.19789,4.4487,-1,3
398,1.20235,4.4527,-1,3
399,1.20682,4.456,-1,3
400,1.21128,4.4587,-1,3
401,1.21574,4.4605,-1,3
402,1.2202,4.4613,-1,3
403,1.22466,4.461,-1,3
404,1.22912,4.4611,-1,3
405,1.23357,4.4602,-1,3
406,1.24245,4.4581,-1,3
407,1.24689,4.4555,-1,3
408,1.25132,4.4523,-1,3
409,1.25575,4.4487,-1,3
410,1.26017,4.4444,-1,3
411,1.26459,4.4396,-1,3
412,1.26899,4.4343,-1,3
413,1.27339,4.4286,-1,3
414,1.27778,4.4218,-1,3
415,1.28216,4.4149,-1,3
416,1.28654,4.4085,-1,3
417,1.2909,4.4005,-1,3
418,1.29526,4.3923,-1,3
419,1.30395,4.3836,-1,3
420,1.30828,4.3744,-1,3
421,1.30828,4.3647,-1,3
422,1.3126,4.356,-1,3
423,1.31691,4.3473,-1,3
424,1.32121,4.3384,-1,3
425,1.3255,4.3294,-1,3
426,1.33405,4.3188,-1,3
427,1.33831,4.3092,-1,3
428,1.34257,4.2994,-1,3
429,1.34681,4.2896,-1,3
430,1.35104,4.28,-1,3
431,1.35526,4.2705,-1,3
432,1.35948,4.2597,-1,3
433,1.36368,4.2488,-1,3
434,1.36787,4.238,-1,3
435,1.37205,4.227,-1,3
436,1.38039,4.2166,-1,3
437,1.38454,4.2058,-1,3
438,1.38869,4.1952,-1,3
439,1.39282,4.1843,-1,3
440,1.39695,4.1735,-1,3
441,1.40106,4.1627,-1,3
442,1.40517,4.1525,-1,3
443,1.40927,4.1419,-1,3
444,1.41335,4.131,-1,3
445,1.41743,4.1204,-1,3
446,1.42149,4.1106,-1,3
447,1.42555,4.1011,-1,3
448,1.4296,4.0915,-1,3
449,1.43364,4.0822,-1,3
450,1.43768,4.0729,-1,3
451,1.4417,4.0634,-1,3
452,1.4457,4.0532,-1,3
453,1.4497,4.0437,-1,3
454,1.45369,4.0341,-1,3
455,1.45767,4.0244,-1,3
456,1.46164,4.0144,-1,3
457,1.4656,4.0044,-1,3
458,1.46955,3.9941,-1,3
459,1.47348,3.9838,-1,3
460,1.47741,3.973,-1,3
461,1.48132,3.9627,-1,3
462,1.48523,3.9527,-1,3
463,1.48912,3.942,-1,3
464,1.49301,3.9314,-1,3
465,1.49688,3.9205,-1,3
466,1.50074,3.9097,-1,3
467,1.50458,3.8986,-1,3
468,1.50842,3.8877,-1,3
469,1.51225,3.8767,-1,3
470,1.51607,3.8659,-1,3
471,1.51987,3.8547,-1,3
472,1.52366,3.8429,-1,3
473,1.52744,3.8311,-1,3
474,1.5312,3.8195,-1,3
475,1.53495,3.8077,-1,3
476,1.5387,3.7963,-1,3
477,1.54243,3.7848,-1,3
478,1.54615,3.7732,-1,3
479,1.54986,3.7613,-1,3
480,1.55356,3.7492,-1,3
481,1.55724,3.7367,-1,3
482,1.5609,3.7245,-1,3
483,1.56456,3.7113,-1,3
484,1.5682,3.6981,-1,3
485,1.57546,3.6852,-1,3
486,1.57907,3.6715,-1,3
487,1.58266,3.6576,-1,3
488,1.58266,3.6434,-1,3
489,1.58981,3.6293,-1,3
490,1.59337,3.6155,-1,3
491,1.59691,3.6021,-1,3
492,1.60045,3.5891,-1,3
493,1.60397,3.5771,-1,3
494,1.60748,3.5646,-1,3
495,1.61098,3.5506,-1,3
496,1.61447,3.5382,-1,3
497,1.61794,3.5262,-1,3
498,1.6214,3.5144,-1,3
499,1.62485,3.5025,-1,3
500,1.62829,3.4894,-1,3
501,1.63513,3.4765,-1,3
502,1.63854,3.4634,-1,3
503,1.64193,3.4505,-1,3
504,1.64532,3.4381,-1,3
505,1.64869,3.4271,-1,3
506,1.65206,3.4152,-1,3
507,1.65541,3.4032,-1,3
508,1.65875,3.3913,-1,3
509,1.66209,3.38,-1,3
510,1.66542,3.37,-1,3
511,1.66874,3.3603,-1,3
512,1.67205,3.3508,-1,3
513,1.67535,3.3417,-1,3
514,1.67865,3.333,-1,3
515,1.68194,3.3247,-1,3
516,1.68522,3.3167,-1,3
517,1.68851,3.3095,-1,3
518,1.69178,3.3028,-1,3
519,1.69505,3.2959,-1,3
520,1.69832,3.2902,-1,3
521,1.70158,3.2843,-1,3
522,1.70484,3.2794,-1,3
523,1.7081,3.2748,-1,3
524,1.71461,3.2706,-1,3
525,1.71787,3.2672,-1,3
526,1.72112,3.2645,-1,3
527,1.72438,3.2622,-1,3
528,1.72764,3.2606,-1,3
529,1.73091,3.2606,-1,3
530,1.73418,3.2609,-1,3
531,1.73746,3.2628,-1,3
532,1.74075,3.2652,-1,3
533,1.74404,3.2689,-1,3
534,1.75066,3.2748,-1,3
535,1.75399,3.2817,-1,3
536,1.75733,3.2895,-1,3
537,1.76068,3.2986,-1,3
538,1.76404,3.3094,-1,3
539,1.76742,3.3207,-1,3
540,1.77082,3.333,-1,3
541,1.77423,3.3463,-1,3
542,1.77766,3.361,-1,3
543,1.78111,3.3763,-1,3
544,1.78458,3.3916,-1,3
545,1.78807,3.4079,-1,3
546,1.79158,3.4254,-1,3
547,1.79512,3.4439,-1,3
548,1.79867,3.4626,-1,3
549,1.80225,3.4827,-1,3
550,1.80586,3.5037,-1,3
551,1.80949,3.5285,-1,3
552,1.81684,3.5544,-1,3
553,1.82056,3.5817,-1,3
554,1.82431,3.61,-1,3
555,1.8281,3.6395,-1,3
556,1.83192,3.6703,-1,3
557,1.83577,3.7021,-1,3
558,1.83966,3.7356,-1,3
559,1.84359,3.7701,-1,3
560,1.84755,3.8062,-1,3
561,1.85156,3.8409,-1,3
562,1.85561,3.8808,-1,3
563,1.8597,3.9221,-1,3
564,1.86384,3.9649,-1,3
565,1.87224,4.0086,-1,3
566,1.8765,4.0534,-1,3
567,1.8765,4.0994,-1,3
568,1.88082,4.1417,-1,3
569,1.88518,4.1851,-1,3
570,1.88958,4.2287,-1,3
571,1.89402,4.2724,-1,3
572,1.89851,4.3121,-1,3
573,1.90304,4.3519,-1,3
574,1.90761,4.3956,-1,3
575,1.91223,4.439,-1,3
576,1.92158,4.4817,-1,3
577,1.92631,4.5233,-1,3
578,1.93107,4.5686,-1,3
579,1.93107,4.6132,-1,3
580,1.93588,4.6536,-1,3
581,1.94072,4.6934,-1,3
582,1.9456,4.7321,-1,3
583,1.9505,4.769,-1,3
584,1.96041,4.8045,-1,3
585,1.9654,4.8387,-1,3
586,1.97042,4.8713,-1,3
587,1.97547,4.9031,-1,3
588,1.98054,4.9336,-1,3
589,1.98563,4.9622,-1,3
590,1.99074,4.9928,-1,3
591,1.99588,5.022,-1,3
592,2.00103,5.0498,-1,3
593,2.0062,5.0767,-1,3
594,2.01139,5.0982,-1,3
595,2.01659,5.1185,-1,3
596,2.0218,5.1378,-1,3
597,2.02703,5.1559,-1,3
598,2.03227,5.1725,-1,3
599,2.03751,5.188,-1,3
600,2.04276,5.202,-1,3
601,2.04803,5.2147,-1,3
602,2.05329,5.2263,-1,3
603,2.05857,5.2369,-1,3
604,2.06385,5.246,-1,3
605,2.06913,5.2543,-1,3
606,2.07441,5.2613,-1,3
607,2.07969,5.2666,-1,3
608,2.08498,5.2714,-1,3
609,2.09027,5.2759,-1,3
610,2.09557,5.2796,-1,3
611,2.10085,5.2823,-1,3
612,2.10614,5.2841,-1,3
613,2.11143,5.2853,-1,3
614,2.122,5.2862,-1,3
615,2.12728,5.286,-1,3
616,2.13256,5.2851,-1,3
617,2.13783,5.2843,-1,3
618,2.1431,5.2829,-1,3
619,2.14837,5.2806,-1,3
620,2.15363,5.2775,-1,3
621,2.15888,5.2739,-1,3
622,2.16413,5.2702,-1,3
623,2.16938,5.2662,-1,3
624,2.17462,5.2614,-1,3
625,2.17985,5.2554,-1,3
626,2.18507,5.2499,-1,3
627,2.1955,5.2439,-1,3
628,2.20071,5.2372,-1,3
629,2.20071,5.2298,-1,3
630,2.2059,5.2235,-1,3
631,2.21109,5.2169,-1,3
632,2.21626,5.2095,-1,3
633,2.22143,5.2014,-1,3
634,2.22659,5.1937,-1,3
635,2.23175,5.1872,-1,3
636,2.23689,5.1798,-1,3
637,2.24202,5.1716,-1,3
638,2.25226,5.1622,-1,3
639,2.25736,5.1533,-1,3
640,2.25736,5.1431,-1,3
641,2.26246,5.1337,-1,3
642,2.26754,5.1249,-1,3
643,2.27262,5.1156,-1,3
644,2.27768,5.1059,-1,3
645,2.28274,5.0949,-1,3
646,2.29281,5.0837,-1,3
647,2.29784,5.0727,-1,3
648,2.30284,5.0625,-1,3
649,2.30784,5.0519,-1,3
650,2.31283,5.0415,-1,3
651,2.31781,5.0297,-1,3
652,2.32277,5.0167,-1,3
653,2.32771,5.0035,-1,3
654,2.33264,4.9907,-1,3
655,2.33757,4.9788,-1,3
656,2.34248,4.9668,-1,3
657,2.34738,4.9541,-1,3
658,2.35226,4.9401,-1,3
659,2.36199,4.9263,-1,3
660,2.36684,4.9124,-1,3
661,2.37168,4.8989,-1,3
662,2.3765,4.8854,-1,3
663,2.38131,4.8723,-1,3
664,2.3861,4.8581,-1,3
665,2.39089,4.844,-1,3
666,2.39566,4.8301,-1,3
667,2.40043,4.8159,-1,3
668,2.40992,4.8028,-1,3
669,2.41464,4.789,-1,3
670,2.41935,4.7752,-1,3
671,2.42405,4.7612,-1,3
672,2.42874,4.7479,-1,3
673,2.43342,4.7343,-1,3
674,2.43808,4.7209,-1,3
675,2.44273,4.7074,-1,3
676,2.44737,4.6941,-1,3
677,2.452,4.6819,-1,3
678,2.45662,4.669,-1,3
679,2.46582,4.6558,-1,3
680,2.4704,4.6423,-1,3
681,2.47496,4.6287,-1,3
682,2.47951,4.615,-1,3
683,2.48405,4.6017,-1,3
684,2.48858,4.5886,-1,3
685,2.4931,4.5752,-1,3
686,2.4976,4.5616,-1,3
687,2.5021,4.5465,-1,3
688,2.51104,4.5322,-1,3
689,2.51549,4.5181,-1,3
690,2.51993,4.504,-1,3
691,2.52435,4.4901,-1,3
692,2.52876,4.4761,-1,3
693,2.53316,4.4619,-1,3
694,2.53755,4.4476,-1,3
695,2.54192,4.4331,-1,3
696,2.54628,4.4182,-1,3
697,2.55062,4.4046,-1,3
698,2.55495,4.3914,-1,3
699,2.55927,4.3784,-1,3
700,2.56358,4.3655,-1,3
701,2.56787,4.352,-1,3
702,2.57215,4.3388,-1,3
703,2.57641,4.325,-1,3
704,2.58066,4.3113,-1,3
705,2.5849,4.2978,-1,3
706,2.58912,4.2846,-1,3
707,2.59333,4.2714,-1,3
708,2.59753,4.2579,-1,3
709,2.60171,4.2439,-1,3
710,2.60588,4.23,-1,3
711,2.61003,4.2165,-1,3
712,2.61418,4.2032,-1,3
713,2.61831,4.1904,-1,3
714,2.62243,4.1773,-1,3
715,2.62654,4.1638,-1,3
716,2.63062,4.1502,-1,3
717,2.6347,4.1368,-1,3
718,2.63877,4.1238,-1,3
719,2.64282,4.1111,-1,3
720,2.64686,4.0977,-1,3
721,2.65088,4.0843,-1,3
722,2.65489,4.0704,-1,3
723,2.65888,4.0566,-1,3
724,2.66286,4.0431,-1,3
725,2.66684,4.0301,-1,3
726,2.67079,4.0167,-1,3
727,2.67473,4.0031,-1,3
728,2.67866,3.9892,-1,3
729,2.68258,3.9758,-1,3
730,2.69038,3.9616,-1,3
731,2.69425,3.9473,-1,3
732,2.69813,3.9337,-1,3
733,2.70199,3.9201,-1,3
734,2.70584,3.9072,-1,3
735,2.70584,3.8944,-1,3
736,2.71352,3.8828,-1,3
737,2.71735,3.8714,-1,3
738,2.72117,3.8606,-1,3
739,2.72499,3.8502,-1,3
740,2.7288,3.8421,-1,3
741,2.73639,3.8336,-1,3
742,2.74018,3.8251,-1,3
743,2.74018,3.8176,-1,3
744,2.74397,3.8107,-1,3
745,2.74774,3.8042,-1,3
746,2.75152,3.7976,-1,3
747,2.75529,3.7923,-1,3
748,2.75906,3.7871,-1,3
749,2.76283,3.7823,-1,3
750,2.76659,3.7783,-1,3
751,2.77414,3.7762,-1,3
752,2.77791,3.7751,-1,3
753,2.78169,3.7742,-1,3
754,2.78169,3.7738,-1,3
755,2.78547,3.774,-1,3
756,2.78926,3.7756,-1,3
757,2.79306,3.7783,-1,3
758,2.79687,3.7826,-1,3
759,2.8007,3.7902,-1,3
760,2.80454,3.7996,-1,3
761,2.81229,3.8107,-1,3
762,2.8162,3.8238,-1,3
763,2.82012,3.839,-1,3
764,2.82012,3.8564,-1,3
765,2.82408,3.8738,-1,3
766,2.82806,3.8935,-1,3
767,2.83208,3.9149,-1,3
768,2.83613,3.939,-1,3
769,2.84022,3.9636,-1,3
770,2.84434,3.9923,-1,3
771,2.8485,4.0234,-1,3
772,2.85269,4.0568,-1,3
773,2.86123,4.0941,-1,3
774,2.86558,4.1336,-1,3
775,2.86558,4.1779,-1,3
776,2.86998,4.2192,-1,3
777,2.87442,4.2616,-1,3
778,2.87891,4.3056,-1,3
779,2.88346,4.3511,-1,3
780,2.88806,4.3961,-1,3
781,2.89271,4.4416,-1,3
782,2.89741,4.4876,-1,3
783,2.90216,4.5375,-1,3
784,2.91181,4.588,-1,3
785,2.91673,4.6398,-1,3
786,2.91673,4.697,-1,3
787,2.9217,4.7501,-1,3
788,2.92672,4.8027,-1,3
789,2.93179,4.8549,-1,3
790,2.93691,4.9067,-1,3
791,2.94208,4.9587,-1,3
792,2.94729,5.0102,-1,3
793,2.95256,5.0568,-1,3
794,2.95787,5.1069,-1,3
795,2.96863,5.1553,-1,3
796,2.97407,5.2024,-1,3
797,2.97955,5.2536,-1,3
798,2.98507,5.3039,-1,3
799,2.99063,5.3531,-1,3
800,2.99623,5.4008,-1,3
801,3.00185,5.4463,-1,3
802,3.00751,5.4903,-1,3
803,3.0132,5.5324,-1,3
804,3.01892,5.5687,-1,3
805,3.02466,5.6029,-1,3
806,3.03621,5.6376,-1,3
807,3.04203,5.6709,-1,3
808,3.04786,5.7023,-1,3
809,3.05372,5.7317,-1,3
810,3.05958,5.7589,-1,3
811,3.06547,5.7851,-1,3
812,3.07137,5.8097,-1,3
813,3.07729,5.8327,-1,3
814,3.08322,5.854,-1,3
815,3.08916,5.8739,-1,3
816,3.09511,5.8902,-1,3
817,3.10107,5.9045,-1,3
818,3.10704,5.9183,-1,3
819,3.11302,5.9309,-1,3
820,3.11901,5.9427,-1,3
821,3.12501,5.9536,-1,3
822,3.13101,5.964,-1,3
823,3.13702,5.9732,-1,3
824,3.14304,5.9815,-1,3
825,3.14905,5.9888,-1,3
826,3.15507,5.9956,-1,3
827,3.16109,6.0022,-1,3
828,3.16712,6.0072,-1,3
829,3.17314,6.0115,-1,3
830,3.17916,6.0152,-1,3
831,3.18518,6.0181,-1,3
832,3.19723,6.0198,-1,3
833,3.20325,6.0206,-1,3
834,3.20927,6.0209,-1,3
835,3.21529,6.0211,-1,3
836,3.2213,6.0203,-1,3
837,3.2273,6.0182,-1,3
838,3.2333,6.0157,-1,3
839,3.23929,6.0129,-1,3
840,3.24528,6.0092,-1,3
