cnt,pos,speed,Dir,Force,
1,0,1.0018,-1,3
2,0.00213003,1.0124,-1,3
3,0.00319004,1.0221,-1,3
4,0.00319004,1.0325,-1,3
5,0.00427008,1.0423,-1,3
6,0.00537014,1.0539,-1,3
7,0.00646996,1.0644,-1,3
8,0.00870013,1.0741,-1,3
9,0.00983,1.0849,-1,3
10,0.0109701,1.0951,-1,3
11,0.01212,1.1043,-1,3
12,0.0132802,1.1129,-1,3
13,0.0144401,1.1228,-1,3
14,0.01562,1.1335,-1,3
15,0.0168202,1.1452,-1,3
16,0.0180101,1.1536,-1,3
17,0.0192101,1.1622,-1,3
18,0.0204201,1.1722,-1,3
19,0.0216501,1.1823,-1,3
20,0.0228901,1.1912,-1,3
21,0.0241301,1.2001,-1,3
22,0.0253801,1.2101,-1,3
23,0.0266402,1.2199,-1,3
24,0.02791,1.2285,-1,3
25,0.0291901,1.2371,-1,3
26,0.0304801,1.2468,-1,3
27,0.03178,1.2569,-1,3
28,0.0330801,1.2663,-1,3
29,0.0344,1.2749,-1,3
30,0.0357301,1.2839,-1,3
31,0.03706,1.2928,-1,3
32,0.0384002,1.3019,-1,3
33,0.0397501,1.3113,-1,3
34,0.0411201,1.3207,-1,3
35,0.04248,1.3291,-1,3
36,0.0438602,1.3391,-1,3
37,0.0452402,1.3494,-1,3
38,0.0480502,1.3591,-1,3
39,0.0494602,1.3688,-1,3
40,0.0508802,1.3784,-1,3
41,0.05232,1.3889,-1,3
42,0.0537701,1.3996,-1,3
43,0.0552201,1.4095,-1,3
44,0.05668,1.419,-1,3
45,0.0581501,1.4294,-1,3
46,0.0596302,1.4386,-1,3
47,0.06112,1.4478,-1,3
48,0.0626302,1.4579,-1,3
49,0.0641401,1.4677,-1,3
50,0.06566,1.4771,-1,3
51,0.0671802,1.4862,-1,3
52,0.0687201,1.4955,-1,3
53,0.0702701,1.5052,-1,3
54,0.07183,1.5153,-1,3
55,0.0734,1.5253,-1,3
56,0.07498,1.5347,-1,3
57,0.07657,1.5442,-1,3
58,0.0781701,1.5541,-1,3
59,0.0797901,1.5646,-1,3
60,0.0814102,1.5752,-1,3
61,0.08303,1.5854,-1,3
62,0.0846701,1.597,-1,3
63,0.0880001,1.609,-1,3
64,0.0896802,1.6203,-1,3
65,0.0913501,1.6313,-1,3
66,0.09305,1.6432,-1,3
67,0.0947602,1.6555,-1,3
68,0.0964801,1.6675,-1,3
69,0.0982101,1.6785,-1,3
70,0.0999401,1.6894,-1,3
71,0.10169,1.7015,-1,3
72,0.10523,1.713,-1,3
73,0.107,1.7235,-1,3
74,0.10879,1.7343,-1,3
75,0.11059,1.7468,-1,3
76,0.11241,1.7591,-1,3
77,0.11423,1.7703,-1,3
78,0.11605,1.78,-1,3
79,0.11789,1.7908,-1,3
80,0.11974,1.8031,-1,3
81,0.1216,1.8147,-1,3
82,0.12347,1.8238,-1,3
83,0.12533,1.833,-1,3
84,0.12722,1.8431,-1,3
85,0.12911,1.8524,-1,3
86,0.13102,1.8611,-1,3
87,0.13292,1.8694,-1,3
88,0.13483,1.8785,-1,3
89,0.13675,1.8872,-1,3
90,0.13869,1.8951,-1,3
91,0.14063,1.9028,-1,3
92,0.14257,1.9108,-1,3
93,0.14452,1.9187,-1,3
94,0.14647,1.9257,-1,3
95,0.14844,1.9324,-1,3
96,0.15041,1.9394,-1,3
97,0.15238,1.9463,-1,3
98,0.15436,1.9526,-1,3
99,0.15634,1.9584,-1,3
100,0.15833,1.9644,-1,3
101,0.16033,1.9699,-1,3
102,0.16233,1.9753,-1,3
103,0.16432,1.9804,-1,3
104,0.16835,1.9867,-1,3
105,0.17036,1.9918,-1,3
106,0.17237,1.9957,-1,3
107,0.17439,1.9999,-1,3
108,0.17642,2.0049,-1,3
109,0.17845,2.0098,-1,3
110,0.18047,2.013,-1,3
111,0.18249,2.0158,-1,3
112,0.18452,2.019,-1,3
113,0.18656,2.023,-1,3
114,0.1886,2.0249,-1,3
115,0.19266,2.0268,-1,3
116,0.1947,2.0294,-1,3
117,0.1947,2.0321,-1,3
118,0.19878,2.0333,-1,3
119,0.19878,2.0339,-1,3
120,0.20082,2.0349,-1,3
121,0.20489,2.0367,-1,3
122,0.20694,2.0382,-1,3
123,0.20898,2.0381,-1,3
124,0.21101,2.0378,-1,3
125,0.21304,2.0381,-1,3
126,0.21509,2.0383,-1,3
127,0.21712,2.0377,-1,3
128,0.21916,2.0373,-1,3
129,0.22119,2.0367,-1,3
130,0.22321,2.0362,-1,3
131,0.22525,2.0353,-1,3
132,0.22728,2.034,-1,3
133,0.22931,2.0331,-1,3
134,0.23133,2.0319,-1,3
135,0.23334,2.03,-1,3
136,0.23537,2.0282,-1,3
137,0.23739,2.0268,-1,3
138,0.23941,2.0248,-1,3
139,0.24141,2.0227,-1,3
140,0.24342,2.0209,-1,3
141,0.24543,2.0185,-1,3
142,0.24744,2.0158,-1,3
143,0.24944,2.0128,-1,3
144,0.25143,2.0105,-1,3
145,0.25542,2.0078,-1,3
146,0.2574,2.0041,-1,3
147,0.25939,2,-1,3
148,0.26137,1.9967,-1,3
149,0.26334,1.9936,-1,3
150,0.26531,1.9894,-1,3
151,0.26728,1.9851,-1,3
152,0.26924,1.9806,-1,3
153,0.2712,1.9765,-1,3
154,0.27315,1.9723,-1,3
155,0.2751,1.9676,-1,3
156,0.27898,1.9624,-1,3
157,0.28091,1.9573,-1,3
158,0.28284,1.952,-1,3
159,0.28476,1.9467,-1,3
160,0.28667,1.9412,-1,3
161,0.28858,1.9354,-1,3
162,0.29049,1.9299,-1,3
163,0.29238,1.9237,-1,3
164,0.29427,1.917,-1,3
165,0.29615,1.9107,-1,3
166,0.29803,1.905,-1,3
167,0.2999,1.8992,-1,3
168,0.30176,1.8929,-1,3
169,0.30362,1.8861,-1,3
170,0.30547,1.8794,-1,3
171,0.30731,1.8729,-1,3
172,0.30915,1.8664,-1,3
173,0.31098,1.8599,-1,3
174,0.3128,1.8535,-1,3
175,0.31462,1.8469,-1,3
176,0.31642,1.8396,-1,3
177,0.31822,1.8321,-1,3
178,0.32001,1.8249,-1,3
179,0.3218,1.8181,-1,3
180,0.32358,1.8101,-1,3
181,0.32535,1.8025,-1,3
182,0.32711,1.7946,-1,3
183,0.32886,1.7861,-1,3
184,0.33235,1.7778,-1,3
185,0.33407,1.7691,-1,3
186,0.33579,1.7607,-1,3
187,0.33751,1.7523,-1,3
188,0.33921,1.7437,-1,3
189,0.34091,1.7348,-1,3
190,0.3426,1.7269,-1,3
191,0.34428,1.718,-1,3
192,0.34595,1.7091,-1,3
193,0.34761,1.7008,-1,3
194,0.34927,1.692,-1,3
195,0.35091,1.6828,-1,3
196,0.35254,1.6737,-1,3
197,0.3558,1.6644,-1,3
198,0.35741,1.6549,-1,3
199,0.35741,1.6451,-1,3
200,0.35901,1.6358,-1,3
201,0.3606,1.6275,-1,3
202,0.36219,1.6187,-1,3
203,0.36376,1.6099,-1,3
204,0.36533,1.6018,-1,3
205,0.3669,1.5936,-1,3
206,0.36845,1.5852,-1,3
207,0.37,1.5765,-1,3
208,0.37306,1.5678,-1,3
209,0.37458,1.5602,-1,3
210,0.37458,1.5523,-1,3
211,0.3761,1.5444,-1,3
212,0.3776,1.5367,-1,3
213,0.3791,1.5286,-1,3
214,0.38058,1.5198,-1,3
215,0.38353,1.5123,-1,3
216,0.38501,1.5048,-1,3
217,0.38646,1.4971,-1,3
218,0.38791,1.489,-1,3
219,0.38934,1.4802,-1,3
220,0.39078,1.4721,-1,3
221,0.39221,1.464,-1,3
222,0.39364,1.4559,-1,3
223,0.39505,1.4478,-1,3
224,0.39645,1.4393,-1,3
225,0.39785,1.4312,-1,3
226,0.40064,1.4234,-1,3
227,0.40202,1.4158,-1,3
228,0.40339,1.4086,-1,3
229,0.40475,1.4012,-1,3
230,0.40612,1.394,-1,3
231,0.40748,1.387,-1,3
232,0.40884,1.3799,-1,3
233,0.41018,1.3728,-1,3
234,0.41152,1.3668,-1,3
235,0.41285,1.3609,-1,3
236,0.41419,1.3553,-1,3
237,0.41552,1.3503,-1,3
238,0.41685,1.3454,-1,3
239,0.41816,1.3408,-1,3
240,0.41948,1.336,-1,3
241,0.4208,1.3315,-1,3
242,0.42212,1.3281,-1,3
243,0.42343,1.325,-1,3
244,0.42473,1.3214,-1,3
245,0.42603,1.3179,-1,3
246,0.42734,1.3151,-1,3
247,0.42865,1.3128,-1,3
248,0.42996,1.3115,-1,3
249,0.43127,1.3105,-1,3
250,0.43257,1.309,-1,3
251,0.43387,1.3077,-1,3
252,0.43649,1.3072,-1,3
253,0.43781,1.3077,-1,3
254,0.43912,1.3088,-1,3
255,0.44043,1.3097,-1,3
256,0.44175,1.3105,-1,3
257,0.44307,1.3122,-1,3
258,0.44441,1.3147,-1,3
259,0.44575,1.3184,-1,3
260,0.44709,1.3224,-1,3
261,0.44843,1.326,-1,3
262,0.44979,1.3299,-1,3
263,0.45116,1.336,-1,3
264,0.45253,1.3433,-1,3
265,0.45392,1.3513,-1,3
266,0.45671,1.3593,-1,3
267,0.45812,1.3681,-1,3
268,0.45955,1.3777,-1,3
269,0.461,1.3877,-1,3
270,0.46245,1.3989,-1,3
271,0.46391,1.4109,-1,3
272,0.46539,1.4233,-1,3
273,0.46688,1.4351,-1,3
274,0.4684,1.448,-1,3
275,0.46993,1.4619,-1,3
276,0.47147,1.4766,-1,3
277,0.47303,1.4912,-1,3
278,0.47462,1.5063,-1,3
279,0.47622,1.5222,-1,3
280,0.47784,1.5396,-1,3
281,0.47949,1.5578,-1,3
282,0.48115,1.5758,-1,3
283,0.48283,1.5946,-1,3
284,0.48454,1.614,-1,3
285,0.48628,1.6345,-1,3
286,0.48803,1.6561,-1,3
287,0.48981,1.6775,-1,3
288,0.49344,1.7024,-1,3
289,0.4953,1.728,-1,3
290,0.49718,1.7536,-1,3
291,0.49908,1.7792,-1,3
292,0.50101,1.8061,-1,3
293,0.50297,1.8339,-1,3
294,0.50496,1.8619,-1,3
295,0.50697,1.8898,-1,3
296,0.50902,1.9182,-1,3
297,0.51109,1.9481,-1,3
298,0.51319,1.9753,-1,3
299,0.51749,2.0057,-1,3
300,0.51968,2.0367,-1,3
301,0.5219,2.069,-1,3
302,0.52416,2.1017,-1,3
303,0.52645,2.1345,-1,3
304,0.52876,2.1674,-1,3
305,0.53111,2.2006,-1,3
306,0.53349,2.2342,-1,3
307,0.53591,2.2685,-1,3
308,0.53836,2.303,-1,3
309,0.54083,2.3345,-1,3
310,0.54334,2.3663,-1,3
311,0.54589,2.3986,-1,3
312,0.54847,2.431,-1,3
313,0.55108,2.463,-1,3
314,0.55372,2.4956,-1,3
315,0.5564,2.5286,-1,3
316,0.55911,2.5619,-1,3
317,0.56185,2.5944,-1,3
318,0.56463,2.6272,-1,3
319,0.56744,2.6605,-1,3
320,0.57028,2.6938,-1,3
321,0.57315,2.7264,-1,3
322,0.57606,2.759,-1,3
323,0.579,2.7921,-1,3
324,0.58197,2.8248,-1,3
325,0.58497,2.8575,-1,3
326,0.58801,2.8897,-1,3
327,0.59108,2.9224,-1,3
328,0.59418,2.9548,-1,3
329,0.59731,2.9868,-1,3
330,0.60365,3.0213,-1,3
331,0.60687,3.0559,-1,3
332,0.61012,3.0903,-1,3
333,0.6134,3.1239,-1,3
334,0.6167,3.1572,-1,3
335,0.62003,3.1897,-1,3
336,0.62339,3.222,-1,3
337,0.62677,3.2534,-1,3
338,0.63018,3.2845,-1,3
339,0.63362,3.3152,-1,3
340,0.63708,3.3425,-1,3
341,0.64057,3.3698,-1,3
342,0.64409,3.3967,-1,3
343,0.64763,3.423,-1,3
344,0.65119,3.4488,-1,3
345,0.65478,3.4749,-1,3
346,0.6584,3.5006,-1,3
347,0.66204,3.5263,-1,3
348,0.66569,3.5511,-1,3
349,0.66938,3.5758,-1,3
350,0.67309,3.6004,-1,3
351,0.67681,3.6239,-1,3
352,0.68056,3.647,-1,3
353,0.68433,3.6699,-1,3
354,0.68812,3.6924,-1,3
355,0.69192,3.7142,-1,3
356,0.69575,3.7354,-1,3
357,0.6996,3.756,-1,3
358,0.70346,3.7762,-1,3
359,0.70733,3.7956,-1,3
360,0.71122,3.8139,-1,3
361,0.71513,3.8332,-1,3
362,0.72299,3.8521,-1,3
363,0.72694,3.8707,-1,3
364,0.73091,3.8882,-1,3
365,0.73489,3.9054,-1,3
366,0.73888,3.922,-1,3
367,0.74288,3.9377,-1,3
368,0.74689,3.9527,-1,3
369,0.75092,3.9674,-1,3
370,0.75495,3.9819,-1,3
371,0.759,3.9949,-1,3
372,0.76712,4.0076,-1,3
373,0.76712,4.0194,-1,3
374,0.77527,4.0311,-1,3
375,0.77527,4.0413,-1,3
376,0.77935,4.0503,-1,3
377,0.78345,4.0597,-1,3
378,0.78756,4.0692,-1,3
379,0.79579,4.0784,-1,3
380,0.79991,4.0869,-1,3
381,0.80403,4.0943,-1,3
382,0.80817,4.1012,-1,3
383,0.81231,4.1081,-1,3
384,0.81645,4.1146,-1,3
385,0.82059,4.1206,-1,3
386,0.82474,4.1269,-1,3
387,0.82888,4.132,-1,3
388,0.83303,4.136,-1,3
389,0.83718,4.1397,-1,3
390,0.84134,4.1438,-1,3
391,0.84551,4.1476,-1,3
392,0.84967,4.1501,-1,3
393,0.85382,4.1517,-1,3
394,0.85798,4.1531,-1,3
395,0.86214,4.1552,-1,3
396,0.86631,4.157,-1,3
397,0.87047,4.1586,-1,3
398,0.87463,4.1598,-1,3
399,0.87879,4.1604,-1,3
400,0.88295,4.1604,-1,3
401,0.88711,4.1602,-1,3
402,0.89126,4.1595,-1,3
403,0.89957,4.1589,-1,3
404,0.90372,4.1583,-1,3
405,0.90372,4.1569,-1,3
406,0.90787,4.1553,-1,3
407,0.91201,4.1531,-1,3
408,0.92029,4.1512,-1,3
409,0.92443,4.1489,-1,3
410,0.92856,4.1463,-1,3
411,0.9327,4.1435,-1,3
412,0.93682,4.1411,-1,3
413,0.94095,4.1378,-1,3
414,0.94506,4.1344,-1,3
415,0.94918,4.1309,-1,3
416,0.95329,4.1272,-1,3
417,0.95739,4.1236,-1,3
418,0.96149,4.1194,-1,3
419,0.96558,4.1149,-1,3
420,0.96967,4.11,-1,3
421,0.97375,4.105,-1,3
422,0.97782,4.0998,-1,3
423,0.98189,4.0941,-1,3
424,0.98595,4.0877,-1,3
425,0.99001,4.0811,-1,3
426,0.99405,4.0749,-1,3
427,0.9981,4.0687,-1,3
428,1.00213,4.0622,-1,3
429,1.00615,4.0555,-1,3
430,1.01017,4.0487,-1,3
431,1.01418,4.0416,-1,3
432,1.02218,4.0334,-1,3
433,1.02617,4.026,-1,3
434,1.03014,4.0183,-1,3
435,1.0341,4.0097,-1,3
436,1.03806,4.0005,-1,3
437,1.04201,3.9912,-1,3
438,1.04595,3.9818,-1,3
439,1.04988,3.972,-1,3
440,1.05379,3.9614,-1,3
441,1.06159,3.9498,-1,3
442,1.06548,3.9393,-1,3
443,1.06935,3.9281,-1,3
444,1.07321,3.9166,-1,3
445,1.07707,3.9054,-1,3
446,1.0809,3.8937,-1,3
447,1.08473,3.8815,-1,3
448,1.08855,3.8695,-1,3
449,1.09236,3.8574,-1,3
450,1.09615,3.8458,-1,3
451,1.09993,3.8343,-1,3
452,1.1037,3.8223,-1,3
453,1.10746,3.8103,-1,3
454,1.1112,3.7986,-1,3
455,1.11493,3.7867,-1,3
456,1.11865,3.7744,-1,3
457,1.12235,3.7622,-1,3
458,1.12605,3.7498,-1,3
459,1.12973,3.7374,-1,3
460,1.1334,3.7248,-1,3
461,1.13706,3.7124,-1,3
462,1.1407,3.6997,-1,3
463,1.14433,3.6869,-1,3
464,1.14794,3.6738,-1,3
465,1.15154,3.6599,-1,3
466,1.15514,3.6475,-1,3
467,1.16228,3.6336,-1,3
468,1.16228,3.6195,-1,3
469,1.16584,3.6066,-1,3
470,1.1729,3.5923,-1,3
471,1.17642,3.5782,-1,3
472,1.17992,3.5645,-1,3
473,1.18342,3.551,-1,3
474,1.1869,3.5379,-1,3
475,1.19037,3.5257,-1,3
476,1.19383,3.5123,-1,3
477,1.19727,3.4998,-1,3
478,1.2007,3.4873,-1,3
479,1.20411,3.4731,-1,3
480,1.2075,3.4601,-1,3
481,1.21089,3.4466,-1,3
482,1.21764,3.4325,-1,3
483,1.22099,3.4182,-1,3
484,1.22432,3.4035,-1,3
485,1.22765,3.3889,-1,3
486,1.23096,3.3743,-1,3
487,1.23426,3.3602,-1,3
488,1.23755,3.3463,-1,3
489,1.24082,3.3322,-1,3
490,1.24408,3.3185,-1,3
491,1.24732,3.3049,-1,3
492,1.25055,3.2916,-1,3
493,1.25378,3.2787,-1,3
494,1.25698,3.2657,-1,3
495,1.26017,3.2524,-1,3
496,1.26335,3.2392,-1,3
497,1.26652,3.2255,-1,3
498,1.26967,3.2117,-1,3
499,1.27281,3.1986,-1,3
500,1.27593,3.1853,-1,3
501,1.27904,3.1719,-1,3
502,1.28214,3.1587,-1,3
503,1.28523,3.1452,-1,3
504,1.2883,3.132,-1,3
505,1.29136,3.1189,-1,3
506,1.29744,3.1042,-1,3
507,1.30046,3.0897,-1,3
508,1.30347,3.0756,-1,3
509,1.30646,3.0609,-1,3
510,1.30944,3.0462,-1,3
511,1.31241,3.0317,-1,3
512,1.31536,3.0171,-1,3
513,1.3183,3.0026,-1,3
514,1.32123,2.9882,-1,3
515,1.32414,2.9736,-1,3
516,1.32704,2.9593,-1,3
517,1.33281,2.945,-1,3
518,1.33567,2.9302,-1,3
519,1.33567,2.9162,-1,3
520,1.33852,2.9034,-1,3
521,1.34136,2.8904,-1,3
522,1.34418,2.8773,-1,3
523,1.347,2.8647,-1,3
524,1.3498,2.8518,-1,3
525,1.35258,2.8378,-1,3
526,1.35536,2.8251,-1,3
527,1.36087,2.8126,-1,3
528,1.36361,2.8,-1,3
529,1.36633,2.7873,-1,3
530,1.36633,2.7734,-1,3
531,1.36904,2.7612,-1,3
532,1.37174,2.7491,-1,3
533,1.37444,2.7369,-1,3
534,1.37711,2.7246,-1,3
535,1.37978,2.7124,-1,3
536,1.38507,2.7002,-1,3
537,1.3877,2.6881,-1,3
538,1.39032,2.6762,-1,3
539,1.39293,2.6643,-1,3
540,1.39552,2.6522,-1,3
541,1.3981,2.6391,-1,3
542,1.40067,2.6259,-1,3
543,1.40323,2.6124,-1,3
544,1.40577,2.5993,-1,3
545,1.40831,2.5874,-1,3
546,1.41334,2.5745,-1,3
547,1.41584,2.5614,-1,3
548,1.41833,2.5485,-1,3
549,1.4208,2.5354,-1,3
550,1.42327,2.5226,-1,3
551,1.42572,2.5097,-1,3
552,1.42816,2.4972,-1,3
553,1.4306,2.485,-1,3
554,1.43303,2.4729,-1,3
555,1.43544,2.4611,-1,3
556,1.43785,2.4507,-1,3
557,1.44025,2.4413,-1,3
558,1.44266,2.4327,-1,3
559,1.44505,2.4244,-1,3
560,1.44744,2.4167,-1,3
561,1.44983,2.4104,-1,3
562,1.45221,2.4047,-1,3
563,1.4546,2.3998,-1,3
564,1.45698,2.3958,-1,3
565,1.45937,2.3929,-1,3
566,1.46176,2.3911,-1,3
567,1.46415,2.3901,-1,3
568,1.46655,2.3894,-1,3
569,1.46895,2.3907,-1,3
570,1.47137,2.3934,-1,3
571,1.47379,2.3964,-1,3
572,1.47622,2.4006,-1,3
573,1.47866,2.4066,-1,3
574,1.48112,2.4138,-1,3
575,1.48359,2.4222,-1,3
576,1.48608,2.4319,-1,3
577,1.48859,2.4433,-1,3
578,1.49111,2.4564,-1,3
579,1.49623,2.4728,-1,3
580,1.49882,2.491,-1,3
581,1.50145,2.5112,-1,3
582,1.50409,2.5329,-1,3
583,1.50677,2.5558,-1,3
584,1.50947,2.5802,-1,3
585,1.51221,2.6067,-1,3
586,1.51498,2.6358,-1,3
587,1.5178,2.6669,-1,3
588,1.52066,2.7001,-1,3
589,1.52355,2.7324,-1,3
590,1.52649,2.7667,-1,3
591,1.52948,2.803,-1,3
592,1.53251,2.8416,-1,3
593,1.53559,2.8819,-1,3
594,1.53871,2.9293,-1,3
595,1.54189,2.9734,-1,3
596,1.54511,3.0236,-1,3
597,1.55174,3.0758,-1,3
598,1.55515,3.1309,-1,3
599,1.55861,3.1883,-1,3
600,1.56213,3.2459,-1,3
601,1.5657,3.305,-1,3
602,1.56935,3.3665,-1,3
603,1.57306,3.4299,-1,3
604,1.57684,3.4897,-1,3
605,1.58067,3.5554,-1,3
606,1.58458,3.618,-1,3
607,1.58854,3.6807,-1,3
608,1.59258,3.7432,-1,3
609,1.59667,3.8063,-1,3
610,1.60084,3.8708,-1,3
611,1.60506,3.9359,-1,3
612,1.60936,4.0012,-1,3
613,1.61373,4.0667,-1,3
614,1.61815,4.1316,-1,3
615,1.62264,4.1967,-1,3
616,1.62718,4.2607,-1,3
617,1.63179,4.3249,-1,3
618,1.63646,4.388,-1,3
619,1.64118,4.4502,-1,3
620,1.64595,4.5112,-1,3
621,1.65077,4.5704,-1,3
622,1.65563,4.6265,-1,3
623,1.66054,4.6858,-1,3
624,1.6655,4.7441,-1,3
625,1.67555,4.7996,-1,3
626,1.68062,4.8525,-1,3
627,1.68573,4.9018,-1,3
628,1.69087,4.9493,-1,3
629,1.69604,4.9941,-1,3
630,1.70123,5.0362,-1,3
631,1.70644,5.0752,-1,3
632,1.71167,5.1123,-1,3
633,1.71692,5.1416,-1,3
634,1.72219,5.1683,-1,3
635,1.72748,5.1928,-1,3
636,1.73278,5.2159,-1,3
637,1.73808,5.2361,-1,3
638,1.7434,5.2536,-1,3
639,1.75406,5.2705,-1,3
640,1.7594,5.2849,-1,3
641,1.76473,5.2977,-1,3
642,1.77008,5.3088,-1,3
643,1.77542,5.3179,-1,3
644,1.78077,5.3254,-1,3
645,1.78612,5.3318,-1,3
646,1.79146,5.3356,-1,3
647,1.7968,5.3391,-1,3
648,1.80214,5.342,-1,3
649,1.80748,5.3422,-1,3
650,1.81282,5.3425,-1,3
651,1.81815,5.3416,-1,3
652,1.82347,5.3395,-1,3
653,1.82879,5.3368,-1,3
654,1.8341,5.3336,-1,3
655,1.83941,5.3298,-1,3
656,1.84471,5.3255,-1,3
657,1.85,5.3203,-1,3
658,1.85529,5.3144,-1,3
659,1.86056,5.3084,-1,3
660,1.86584,5.3018,-1,3
661,1.8711,5.2955,-1,3
662,1.87636,5.2886,-1,3
663,1.88682,5.2793,-1,3
664,1.89203,5.2697,-1,3
665,1.89725,5.2601,-1,3
666,1.89725,5.2495,-1,3
667,1.90762,5.2384,-1,3
668,1.90762,5.2266,-1,3
669,1.91795,5.2145,-1,3
670,1.9231,5.2024,-1,3
671,1.92823,5.1894,-1,3
672,1.93335,5.176,-1,3
673,1.93845,5.1636,-1,3
674,1.94354,5.1495,-1,3
675,1.94862,5.136,-1,3
676,1.95369,5.1237,-1,3
677,1.95875,5.1112,-1,3
678,1.96379,5.0982,-1,3
679,1.9688,5.0844,-1,3
680,1.97381,5.0698,-1,3
681,1.9788,5.0554,-1,3
682,1.98378,5.0403,-1,3
683,1.9937,5.0253,-1,3
684,1.99864,5.0109,-1,3
685,1.99864,4.9947,-1,3
686,2.00355,4.9792,-1,3
687,2.00846,4.9641,-1,3
688,2.01334,4.9493,-1,3
689,2.01822,4.9351,-1,3
690,2.02308,4.9205,-1,3
691,2.02793,4.9061,-1,3
692,2.03276,4.8914,-1,3
693,2.03758,4.877,-1,3
694,2.04718,4.8625,-1,3
695,2.05195,4.8479,-1,3
696,2.0567,4.8315,-1,3
697,2.06143,4.8146,-1,3
698,2.06615,4.7979,-1,3
699,2.07086,4.781,-1,3
700,2.07556,4.7649,-1,3
701,2.08024,4.7482,-1,3
702,2.08491,4.7328,-1,3
703,2.08955,4.7168,-1,3
704,2.09419,4.6995,-1,3
705,2.10341,4.6828,-1,3
706,2.108,4.6666,-1,3
707,2.11258,4.6512,-1,3
708,2.11714,4.6351,-1,3
709,2.12169,4.6189,-1,3
710,2.12622,4.6024,-1,3
711,2.13074,4.5864,-1,3
712,2.13524,4.5699,-1,3
713,2.13973,4.5544,-1,3
714,2.14422,4.5408,-1,3
715,2.14868,4.527,-1,3
716,2.15313,4.5131,-1,3
717,2.15757,4.499,-1,3
718,2.16199,4.4853,-1,3
719,2.1664,4.4716,-1,3
720,2.1708,4.4582,-1,3
721,2.17519,4.445,-1,3
722,2.17957,4.4324,-1,3
723,2.18393,4.4191,-1,3
724,2.18827,4.4055,-1,3
725,2.1926,4.3921,-1,3
726,2.19693,4.3794,-1,3
727,2.20124,4.3669,-1,3
728,2.20554,4.3546,-1,3
729,2.20982,4.3418,-1,3
730,2.21409,4.3287,-1,3
731,2.21835,4.3157,-1,3
732,2.2226,4.3034,-1,3
733,2.22684,4.2915,-1,3
734,2.23106,4.278,-1,3
735,2.23527,4.2642,-1,3
736,2.24366,4.2505,-1,3
737,2.24783,4.2367,-1,3
738,2.25199,4.2231,-1,3
739,2.25614,4.2099,-1,3
740,2.26028,4.1966,-1,3
741,2.2644,4.1832,-1,3
742,2.26852,4.1691,-1,3
743,2.27262,4.1552,-1,3
744,2.2767,4.1428,-1,3
745,2.28077,4.1307,-1,3
746,2.28889,4.1168,-1,3
747,2.29292,4.1031,-1,3
748,2.29292,4.0892,-1,3
749,2.29695,4.0769,-1,3
750,2.30096,4.0644,-1,3
751,2.30496,4.0516,-1,3
752,2.30894,4.0386,-1,3
753,2.31291,4.0261,-1,3
754,2.31687,4.0136,-1,3
755,2.32082,3.9991,-1,3
756,2.32475,3.9858,-1,3
757,2.33257,3.9724,-1,3
758,2.33646,3.9588,-1,3
759,2.34033,3.944,-1,3
760,2.34033,3.9294,-1,3
761,2.3442,3.9162,-1,3
762,2.34805,3.9029,-1,3
763,2.35188,3.8889,-1,3
764,2.3557,3.8749,-1,3
765,2.36331,3.8617,-1,3
766,2.36709,3.8485,-1,3
767,2.37086,3.8348,-1,3
768,2.37461,3.8211,-1,3
769,2.37835,3.8072,-1,3
770,2.38208,3.7934,-1,3
771,2.38579,3.7785,-1,3
772,2.38949,3.7636,-1,3
773,2.39318,3.7486,-1,3
774,2.39685,3.7338,-1,3
775,2.40051,3.7198,-1,3
776,2.40778,3.7043,-1,3
777,2.41139,3.6892,-1,3
778,2.41499,3.6739,-1,3
779,2.41858,3.6587,-1,3
780,2.42216,3.6439,-1,3
781,2.42572,3.6287,-1,3
782,2.42927,3.6136,-1,3
783,2.43281,3.5986,-1,3
784,2.43633,3.5836,-1,3
785,2.43984,3.5687,-1,3
786,2.44333,3.5552,-1,3
787,2.44681,3.5414,-1,3
788,2.45027,3.5279,-1,3
789,2.45373,3.5146,-1,3
790,2.45717,3.5006,-1,3
791,2.46059,3.4867,-1,3
792,2.464,3.4728,-1,3
793,2.4674,3.4588,-1,3
794,2.47078,3.4448,-1,3
795,2.47415,3.4311,-1,3
796,2.47751,3.4177,-1,3
797,2.48085,3.4044,-1,3
798,2.48418,3.391,-1,3
799,2.4875,3.3777,-1,3
800,2.49081,3.3647,-1,3
801,2.49411,3.3517,-1,3
802,2.49739,3.3388,-1,3
803,2.50066,3.3266,-1,3
804,2.50392,3.3142,-1,3
805,2.50717,3.302,-1,3
806,2.5104,3.2897,-1,3
807,2.51363,3.2764,-1,3
808,2.52004,3.2636,-1,3
809,2.52323,3.2505,-1,3
810,2.52642,3.238,-1,3
811,2.52959,3.2257,-1,3
812,2.53275,3.2137,-1,3
813,2.5359,3.2011,-1,3
814,2.53904,3.1901,-1,3
815,2.54219,3.18,-1,3
816,2.54534,3.1709,-1,3
817,2.54848,3.1638,-1,3
818,2.55161,3.1564,-1,3
819,2.55787,3.1507,-1,3
820,2.561,3.1457,-1,3
821,2.56414,3.1419,-1,3
822,2.56414,3.1387,-1,3
823,2.56727,3.1371,-1,3
824,2.5704,3.1353,-1,3
825,2.57353,3.134,-1,3
826,2.57667,3.1333,-1,3
827,2.57982,3.1344,-1,3
828,2.58298,3.1383,-1,3
829,2.58933,3.143,-1,3
830,2.59252,3.149,-1,3
831,2.59573,3.1566,-1,3
832,2.59896,3.1661,-1,3
833,2.6022,3.1768,-1,3
834,2.6022,3.1892,-1,3
835,2.60545,3.2013,-1,3
836,2.60873,3.2148,-1,3
837,2.61202,3.2288,-1,3
838,2.61533,3.2428,-1,3
839,2.61866,3.2602,-1,3
840,2.62201,3.2786,-1,3
