cnt,pos,speed,Dir,Force,
1,0,2.7696,-1,3
2,0.00270987,2.7601,-1,3
3,0.00540996,2.7497,-1,3
4,0.00811005,2.7391,-1,3
5,0.0107999,2.7294,-1,3
6,0.0134699,2.7202,-1,3
7,0.01613,2.71,-1,3
8,0.01877,2.6986,-1,3
9,0.0214,2.6868,-1,3
10,0.02402,2.6747,-1,3
11,0.0266299,2.6629,-1,3
12,0.0292299,2.6515,-1,3
13,0.03181,2.6396,-1,3
14,0.0343699,2.6264,-1,3
15,0.0369198,2.6129,-1,3
16,0.03947,2.6,-1,3
17,0.0420001,2.5874,-1,3
18,0.0445199,2.575,-1,3
19,0.04702,2.562,-1,3
20,0.04951,2.5488,-1,3
21,0.05198,2.5352,-1,3
22,0.05444,2.5203,-1,3
23,0.05933,2.5058,-1,3
24,0.0617499,2.4917,-1,3
25,0.0641599,2.4776,-1,3
26,0.06656,2.4629,-1,3
27,0.0689399,2.4482,-1,3
28,0.07131,2.4336,-1,3
29,0.0736699,2.4192,-1,3
30,0.07602,2.405,-1,3
31,0.0783498,2.3906,-1,3
32,0.0806699,2.3776,-1,3
33,0.0829699,2.3632,-1,3
34,0.0852699,2.3491,-1,3
35,0.0898099,2.3344,-1,3
36,0.0920699,2.3202,-1,3
37,0.0920699,2.3061,-1,3
38,0.09431,2.2932,-1,3
39,0.0987499,2.2787,-1,3
40,0.0987499,2.2644,-1,3
41,0.10314,2.2504,-1,3
42,0.10532,2.2361,-1,3
43,0.10748,2.2231,-1,3
44,0.10963,2.21,-1,3
45,0.11177,2.1975,-1,3
46,0.1139,2.1845,-1,3
47,0.11601,2.1714,-1,3
48,0.11811,2.157,-1,3
49,0.1202,2.1447,-1,3
50,0.12227,2.1317,-1,3
51,0.12433,2.1189,-1,3
52,0.12638,2.1058,-1,3
53,0.13044,2.092,-1,3
54,0.13245,2.0781,-1,3
55,0.13445,2.0639,-1,3
56,0.13643,2.0496,-1,3
57,0.1384,2.0358,-1,3
58,0.14037,2.0222,-1,3
59,0.14231,2.0078,-1,3
60,0.14424,1.9937,-1,3
61,0.14616,1.9794,-1,3
62,0.14807,1.9661,-1,3
63,0.14997,1.9532,-1,3
64,0.15185,1.9403,-1,3
65,0.15372,1.9276,-1,3
66,0.15558,1.9151,-1,3
67,0.15743,1.9026,-1,3
68,0.15926,1.89,-1,3
69,0.16109,1.8781,-1,3
70,0.16291,1.8667,-1,3
71,0.16472,1.8553,-1,3
72,0.16651,1.8433,-1,3
73,0.16828,1.8313,-1,3
74,0.17005,1.8194,-1,3
75,0.1718,1.8076,-1,3
76,0.17354,1.7957,-1,3
77,0.17527,1.7836,-1,3
78,0.17698,1.7715,-1,3
79,0.17868,1.7588,-1,3
80,0.18037,1.7459,-1,3
81,0.18205,1.7331,-1,3
82,0.18371,1.7204,-1,3
83,0.18537,1.7084,-1,3
84,0.18701,1.6964,-1,3
85,0.18864,1.6838,-1,3
86,0.19026,1.6718,-1,3
87,0.19186,1.6596,-1,3
88,0.19345,1.6473,-1,3
89,0.19504,1.6356,-1,3
90,0.19661,1.6237,-1,3
91,0.19816,1.6114,-1,3
92,0.1997,1.5992,-1,3
93,0.20123,1.5863,-1,3
94,0.20275,1.5739,-1,3
95,0.20426,1.5622,-1,3
96,0.20576,1.5503,-1,3
97,0.20724,1.5381,-1,3
98,0.20871,1.5257,-1,3
99,0.21017,1.5122,-1,3
100,0.21306,1.4993,-1,3
101,0.21449,1.4869,-1,3
102,0.2159,1.4738,-1,3
103,0.2173,1.4609,-1,3
104,0.2173,1.4478,-1,3
105,0.22007,1.435,-1,3
106,0.22144,1.4225,-1,3
107,0.2228,1.4105,-1,3
108,0.22415,1.3983,-1,3
109,0.22548,1.3867,-1,3
110,0.22812,1.3745,-1,3
111,0.22812,1.3621,-1,3
112,0.22943,1.3501,-1,3
113,0.23072,1.3382,-1,3
114,0.232,1.3259,-1,3
115,0.23327,1.3142,-1,3
116,0.23452,1.3025,-1,3
117,0.23702,1.2905,-1,3
118,0.23824,1.2786,-1,3
119,0.23945,1.2665,-1,3
120,0.24065,1.2546,-1,3
121,0.24185,1.2437,-1,3
122,0.24304,1.2335,-1,3
123,0.24422,1.2232,-1,3
124,0.24538,1.213,-1,3
125,0.24654,1.2019,-1,3
126,0.24768,1.1908,-1,3
127,0.24882,1.1807,-1,3
128,0.24996,1.1717,-1,3
129,0.25109,1.1635,-1,3
130,0.25221,1.1553,-1,3
131,0.25332,1.1467,-1,3
132,0.25443,1.1389,-1,3
133,0.25555,1.1327,-1,3
134,0.25665,1.1271,-1,3
135,0.25775,1.1217,-1,3
136,0.25886,1.1175,-1,3
137,0.25996,1.1138,-1,3
138,0.26107,1.1108,-1,3
139,0.26329,1.109,-1,3
140,0.2644,1.1083,-1,3
141,0.26552,1.1089,-1,3
142,0.26665,1.1112,-1,3
143,0.26782,1.1167,-1,3
144,0.26902,1.1259,-1,3
145,0.27022,1.136,-1,3
146,0.27141,1.1443,-1,3
147,0.2726,1.1527,-1,3
148,0.27382,1.164,-1,3
149,0.27508,1.1803,-1,3
150,0.27635,1.1974,-1,3
151,0.27894,1.2165,-1,3
152,0.28029,1.2375,-1,3
153,0.28029,1.2579,-1,3
154,0.28166,1.2763,-1,3
155,0.28305,1.2945,-1,3
156,0.28444,1.3148,-1,3
157,0.28584,1.3364,-1,3
158,0.28727,1.3573,-1,3
159,0.28872,1.3752,-1,3
160,0.29019,1.3951,-1,3
161,0.29167,1.4158,-1,3
162,0.29474,1.437,-1,3
163,0.29633,1.4582,-1,3
164,0.29793,1.4802,-1,3
165,0.29793,1.5047,-1,3
166,0.29956,1.5285,-1,3
167,0.30122,1.5545,-1,3
168,0.30293,1.5827,-1,3
169,0.30468,1.6119,-1,3
170,0.30646,1.6448,-1,3
171,0.30827,1.6786,-1,3
172,0.31012,1.7128,-1,3
173,0.31395,1.7476,-1,3
174,0.3159,1.7824,-1,3
175,0.3159,1.8171,-1,3
176,0.31988,1.8551,-1,3
177,0.32193,1.8932,-1,3
178,0.324,1.9296,-1,3
179,0.32611,1.9653,-1,3
180,0.32824,1.9982,-1,3
181,0.33042,2.0307,-1,3
182,0.33264,2.0645,-1,3
183,0.33715,2.0984,-1,3
184,0.33945,2.1335,-1,3
185,0.34179,2.1703,-1,3
186,0.34418,2.2083,-1,3
187,0.34662,2.2474,-1,3
188,0.34909,2.2872,-1,3
189,0.35159,2.3274,-1,3
190,0.35413,2.3675,-1,3
191,0.35671,2.4075,-1,3
192,0.35933,2.4451,-1,3
193,0.36197,2.4824,-1,3
194,0.36464,2.5196,-1,3
195,0.36736,2.5566,-1,3
196,0.3701,2.5924,-1,3
197,0.37288,2.6259,-1,3
198,0.37567,2.6583,-1,3
199,0.3785,2.6903,-1,3
200,0.38135,2.7214,-1,3
201,0.38423,2.7517,-1,3
202,0.38714,2.7835,-1,3
203,0.39303,2.8154,-1,3
204,0.39602,2.8467,-1,3
205,0.39903,2.8763,-1,3
206,0.40207,2.9057,-1,3
207,0.40514,2.9353,-1,3
208,0.40822,2.9642,-1,3
209,0.41132,2.9915,-1,3
210,0.41443,3.0177,-1,3
211,0.41757,3.0426,-1,3
212,0.42071,3.0641,-1,3
213,0.42388,3.0843,-1,3
214,0.42705,3.1045,-1,3
215,0.43344,3.1236,-1,3
216,0.43666,3.141,-1,3
217,0.43988,3.1566,-1,3
218,0.44311,3.1712,-1,3
219,0.44635,3.1856,-1,3
220,0.4496,3.1994,-1,3
221,0.45287,3.2125,-1,3
222,0.45614,3.225,-1,3
223,0.45942,3.2368,-1,3
224,0.46272,3.2476,-1,3
225,0.46603,3.2586,-1,3
226,0.46935,3.2693,-1,3
227,0.47268,3.2803,-1,3
228,0.47602,3.291,-1,3
229,0.47938,3.3022,-1,3
230,0.48274,3.313,-1,3
231,0.48611,3.3238,-1,3
232,0.48948,3.3343,-1,3
233,0.49286,3.3442,-1,3
234,0.49625,3.3531,-1,3
235,0.49964,3.3613,-1,3
236,0.50304,3.3691,-1,3
237,0.50645,3.3765,-1,3
238,0.50986,3.3838,-1,3
239,0.51328,3.3902,-1,3
240,0.5167,3.3962,-1,3
241,0.52012,3.4016,-1,3
242,0.52355,3.4065,-1,3
243,0.52698,3.4112,-1,3
244,0.5304,3.4154,-1,3
245,0.53383,3.4189,-1,3
246,0.53726,3.4222,-1,3
247,0.5407,3.425,-1,3
248,0.54414,3.4275,-1,3
249,0.54758,3.43,-1,3
250,0.55102,3.4324,-1,3
251,0.55447,3.4347,-1,3
252,0.55792,3.437,-1,3
253,0.56137,3.439,-1,3
254,0.56482,3.4417,-1,3
255,0.56828,3.4449,-1,3
256,0.57174,3.4477,-1,3
257,0.5752,3.4505,-1,3
258,0.58213,3.4537,-1,3
259,0.58213,3.4567,-1,3
260,0.58908,3.4596,-1,3
261,0.59255,3.4626,-1,3
262,0.59603,3.4654,-1,3
263,0.59951,3.4683,-1,3
264,0.60299,3.471,-1,3
265,0.60648,3.4739,-1,3
266,0.60997,3.4769,-1,3
267,0.61346,3.4799,-1,3
268,0.62047,3.4835,-1,3
269,0.62398,3.4873,-1,3
270,0.6275,3.4918,-1,3
271,0.63102,3.4962,-1,3
272,0.63454,3.5011,-1,3
273,0.63807,3.5062,-1,3
274,0.64161,3.5114,-1,3
275,0.64515,3.5168,-1,3
276,0.64869,3.5224,-1,3
277,0.65225,3.5286,-1,3
278,0.65581,3.534,-1,3
279,0.65938,3.54,-1,3
280,0.66295,3.546,-1,3
281,0.66654,3.5525,-1,3
282,0.67013,3.5593,-1,3
283,0.67374,3.5667,-1,3
284,0.67735,3.5749,-1,3
285,0.68098,3.5833,-1,3
286,0.68461,3.592,-1,3
287,0.68826,3.6011,-1,3
288,0.69192,3.6109,-1,3
289,0.69559,3.621,-1,3
290,0.69927,3.6313,-1,3
291,0.70296,3.6415,-1,3
292,0.70666,3.6525,-1,3
293,0.71037,3.6633,-1,3
294,0.7141,3.6743,-1,3
295,0.71783,3.6854,-1,3
296,0.72159,3.6975,-1,3
297,0.72535,3.7094,-1,3
298,0.72913,3.7214,-1,3
299,0.73292,3.7329,-1,3
300,0.73671,3.7447,-1,3
301,0.74052,3.7567,-1,3
302,0.74435,3.769,-1,3
303,0.74819,3.7832,-1,3
304,0.75204,3.7968,-1,3
305,0.7559,3.8102,-1,3
306,0.76366,3.823,-1,3
307,0.76755,3.8362,-1,3
308,0.77147,3.8497,-1,3
309,0.77539,3.8639,-1,3
310,0.77933,3.8776,-1,3
311,0.78327,3.8914,-1,3
312,0.78723,3.9041,-1,3
313,0.79119,3.9165,-1,3
314,0.79517,3.9281,-1,3
315,0.79916,3.94,-1,3
316,0.80316,3.9519,-1,3
317,0.80717,3.9634,-1,3
318,0.8152,3.9743,-1,3
319,0.81924,3.9847,-1,3
320,0.82328,3.9953,-1,3
321,0.82733,4.0058,-1,3
322,0.83138,4.0157,-1,3
323,0.83138,4.0236,-1,3
324,0.83544,4.0315,-1,3
325,0.8395,4.0387,-1,3
326,0.84356,4.0451,-1,3
327,0.84763,4.0505,-1,3
328,0.8517,4.0557,-1,3
329,0.85985,4.06,-1,3
330,0.86392,4.0634,-1,3
331,0.868,4.066,-1,3
332,0.87208,4.0685,-1,3
333,0.87615,4.0704,-1,3
334,0.88023,4.072,-1,3
335,0.8843,4.0731,-1,3
336,0.88837,4.074,-1,3
337,0.89244,4.0744,-1,3
338,0.89651,4.0742,-1,3
339,0.90058,4.0733,-1,3
340,0.90464,4.072,-1,3
341,0.9087,4.0697,-1,3
342,0.91275,4.0677,-1,3
343,0.91681,4.0656,-1,3
344,0.92086,4.0631,-1,3
345,0.9249,4.0599,-1,3
346,0.92894,4.0564,-1,3
347,0.93297,4.0525,-1,3
348,0.937,4.0484,-1,3
349,0.94103,4.0444,-1,3
350,0.94906,4.0395,-1,3
351,0.95307,4.0348,-1,3
352,0.95707,4.0295,-1,3
353,0.96107,4.0234,-1,3
354,0.96506,4.0172,-1,3
355,0.96905,4.0111,-1,3
356,0.97303,4.0052,-1,3
357,0.98097,3.9989,-1,3
358,0.98494,3.9924,-1,3
359,0.98889,3.9852,-1,3
360,0.99284,3.9785,-1,3
361,0.99678,3.9721,-1,3
362,1.00072,3.9655,-1,3
363,1.00465,3.9588,-1,3
364,1.00857,3.9523,-1,3
365,1.01248,3.9458,-1,3
366,1.01639,3.9384,-1,3
367,1.02029,3.9313,-1,3
368,1.02418,3.9238,-1,3
369,1.02806,3.917,-1,3
370,1.03194,3.91,-1,3
371,1.03581,3.9027,-1,3
372,1.03967,3.8941,-1,3
373,1.04736,3.8856,-1,3
374,1.0512,3.877,-1,3
375,1.05503,3.8683,-1,3
376,1.05885,3.8597,-1,3
377,1.06266,3.8507,-1,3
378,1.06646,3.8417,-1,3
379,1.07024,3.832,-1,3
380,1.07403,3.8226,-1,3
381,1.0778,3.8129,-1,3
382,1.08156,3.8041,-1,3
383,1.08532,3.7946,-1,3
384,1.0928,3.7845,-1,3
385,1.09652,3.7742,-1,3
386,1.10024,3.7637,-1,3
387,1.10395,3.7536,-1,3
388,1.10764,3.7431,-1,3
389,1.11133,3.7327,-1,3
390,1.115,3.7223,-1,3
391,1.11867,3.7114,-1,3
392,1.12232,3.7006,-1,3
393,1.12597,3.6901,-1,3
394,1.1296,3.6801,-1,3
395,1.13322,3.6699,-1,3
396,1.13684,3.6598,-1,3
397,1.14044,3.6496,-1,3
398,1.14403,3.6393,-1,3
399,1.14762,3.629,-1,3
400,1.15119,3.6185,-1,3
401,1.15475,3.6081,-1,3
402,1.1583,3.5973,-1,3
403,1.16183,3.5868,-1,3
404,1.16536,3.5763,-1,3
405,1.16888,3.5656,-1,3
406,1.17238,3.5546,-1,3
407,1.17588,3.5434,-1,3
408,1.17936,3.5325,-1,3
409,1.18282,3.5209,-1,3
410,1.18628,3.5094,-1,3
411,1.18973,3.498,-1,3
412,1.19316,3.4867,-1,3
413,1.19659,3.4754,-1,3
414,1.2,3.4636,-1,3
415,1.2034,3.452,-1,3
416,1.20679,3.4403,-1,3
417,1.21016,3.4286,-1,3
418,1.21353,3.4167,-1,3
419,1.21688,3.4056,-1,3
420,1.22022,3.3939,-1,3
421,1.22355,3.3823,-1,3
422,1.22687,3.3707,-1,3
423,1.23017,3.3588,-1,3
424,1.23347,3.347,-1,3
425,1.24002,3.3338,-1,3
426,1.24328,3.321,-1,3
427,1.24652,3.308,-1,3
428,1.24976,3.295,-1,3
429,1.25298,3.2821,-1,3
430,1.2562,3.2696,-1,3
431,1.2594,3.2568,-1,3
432,1.26259,3.2437,-1,3
433,1.26577,3.2315,-1,3
434,1.26894,3.2188,-1,3
435,1.27525,3.2069,-1,3
436,1.27838,3.1947,-1,3
437,1.28151,3.1831,-1,3
438,1.28463,3.1718,-1,3
439,1.28774,3.1601,-1,3
440,1.29085,3.1491,-1,3
441,1.29394,3.1382,-1,3
442,1.29703,3.1279,-1,3
443,1.30011,3.1174,-1,3
444,1.30317,3.1076,-1,3
445,1.30624,3.0989,-1,3
446,1.30929,3.0908,-1,3
447,1.31234,3.0826,-1,3
448,1.31538,3.0744,-1,3
449,1.31841,3.0671,-1,3
450,1.32144,3.0594,-1,3
451,1.32447,3.0522,-1,3
452,1.32748,3.0454,-1,3
453,1.3305,3.039,-1,3
454,1.3335,3.0331,-1,3
455,1.33651,3.0274,-1,3
456,1.33951,3.0216,-1,3
457,1.3425,3.0164,-1,3
458,1.3455,3.0118,-1,3
459,1.34849,3.0071,-1,3
460,1.35148,3.0031,-1,3
461,1.35446,2.9997,-1,3
462,1.35745,2.9966,-1,3
463,1.36043,2.9938,-1,3
464,1.36342,2.9911,-1,3
465,1.3664,2.989,-1,3
466,1.36938,2.9875,-1,3
467,1.37237,2.9874,-1,3
468,1.37537,2.9879,-1,3
469,1.38136,2.9886,-1,3
470,1.38136,2.9897,-1,3
471,1.38737,2.9917,-1,3
472,1.38737,2.9947,-1,3
473,1.39341,2.9987,-1,3
474,1.39644,3.0034,-1,3
475,1.39948,3.0087,-1,3
476,1.40252,3.0151,-1,3
477,1.40558,3.0216,-1,3
478,1.40865,3.0285,-1,3
479,1.41173,3.0372,-1,3
480,1.41483,3.0465,-1,3
481,1.41793,3.0565,-1,3
482,1.42106,3.0673,-1,3
483,1.4242,3.0787,-1,3
484,1.42735,3.093,-1,3
485,1.43371,3.1084,-1,3
486,1.43692,3.1245,-1,3
487,1.44014,3.1409,-1,3
488,1.44339,3.1587,-1,3
489,1.44665,3.1769,-1,3
490,1.44994,3.1964,-1,3
491,1.45325,3.2165,-1,3
492,1.45658,3.2371,-1,3
493,1.45993,3.2583,-1,3
494,1.46331,3.2789,-1,3
495,1.46671,3.3002,-1,3
496,1.47015,3.3225,-1,3
497,1.4736,3.3456,-1,3
498,1.47708,3.3695,-1,3
499,1.4806,3.3943,-1,3
500,1.48414,3.4198,-1,3
501,1.48771,3.4464,-1,3
502,1.49132,3.4742,-1,3
503,1.49496,3.5031,-1,3
504,1.49863,3.5324,-1,3
505,1.50234,3.5627,-1,3
506,1.50608,3.5939,-1,3
507,1.50987,3.6265,-1,3
508,1.51368,3.6593,-1,3
509,1.51753,3.6928,-1,3
510,1.52141,3.7268,-1,3
511,1.52533,3.7617,-1,3
512,1.52929,3.7965,-1,3
513,1.53731,3.8352,-1,3
514,1.54138,3.8747,-1,3
515,1.54548,3.9139,-1,3
516,1.54961,3.9531,-1,3
517,1.55378,3.9915,-1,3
518,1.55797,4.0299,-1,3
519,1.56221,4.0684,-1,3
520,1.56647,4.1069,-1,3
521,1.57077,4.1445,-1,3
522,1.57511,4.1824,-1,3
523,1.57948,4.2195,-1,3
524,1.58831,4.256,-1,3
525,1.59277,4.2923,-1,3
526,1.59726,4.3284,-1,3
527,1.60179,4.3646,-1,3
528,1.60635,4.4006,-1,3
529,1.61093,4.4357,-1,3
530,1.61554,4.4699,-1,3
531,1.62018,4.5039,-1,3
532,1.62485,4.5375,-1,3
533,1.62955,4.5672,-1,3
534,1.63427,4.5961,-1,3
535,1.639,4.6258,-1,3
536,1.64854,4.6541,-1,3
537,1.65334,4.6816,-1,3
538,1.65816,4.7079,-1,3
539,1.66299,4.7322,-1,3
540,1.66783,4.7554,-1,3
541,1.67268,4.7767,-1,3
542,1.67755,4.7959,-1,3
543,1.68242,4.8137,-1,3
544,1.68731,4.8301,-1,3
545,1.6922,4.8433,-1,3
546,1.69709,4.8551,-1,3
547,1.70199,4.8654,-1,3
548,1.70689,4.874,-1,3
549,1.7118,4.8821,-1,3
550,1.71671,4.889,-1,3
551,1.72162,4.8948,-1,3
552,1.72653,4.8995,-1,3
553,1.73144,4.9027,-1,3
554,1.73635,4.9051,-1,3
555,1.74125,4.9068,-1,3
556,1.75106,4.9072,-1,3
557,1.75596,4.9065,-1,3
558,1.75596,4.9053,-1,3
559,1.76085,4.9038,-1,3
560,1.76575,4.9019,-1,3
561,1.77063,4.8996,-1,3
562,1.77552,4.897,-1,3
563,1.78039,4.8938,-1,3
564,1.78526,4.8897,-1,3
565,1.79013,4.8856,-1,3
566,1.79499,4.8819,-1,3
567,1.79984,4.8764,-1,3
568,1.80469,4.8707,-1,3
569,1.80952,4.865,-1,3
570,1.81435,4.8585,-1,3
571,1.81917,4.8523,-1,3
572,1.82399,4.8455,-1,3
573,1.8288,4.8391,-1,3
574,1.8336,4.832,-1,3
575,1.83839,4.8241,-1,3
576,1.84316,4.8155,-1,3
577,1.84794,4.8085,-1,3
578,1.8527,4.8004,-1,3
579,1.8622,4.791,-1,3
580,1.8622,4.7814,-1,3
581,1.86693,4.772,-1,3
582,1.87165,4.7623,-1,3
583,1.87636,4.7525,-1,3
584,1.88106,4.743,-1,3
585,1.88575,4.7332,-1,3
586,1.89042,4.7229,-1,3
587,1.89508,4.7107,-1,3
588,1.90438,4.6996,-1,3
589,1.90901,4.6885,-1,3
590,1.91363,4.6772,-1,3
591,1.91823,4.6645,-1,3
592,1.92282,4.6516,-1,3
593,1.9274,4.6382,-1,3
594,1.93197,4.625,-1,3
595,1.93653,4.612,-1,3
596,1.94107,4.5989,-1,3
597,1.9456,4.5847,-1,3
598,1.95011,4.5705,-1,3
599,1.9591,4.5566,-1,3
600,1.96358,4.5427,-1,3
601,1.96804,4.5284,-1,3
602,1.97249,4.514,-1,3
603,1.97249,4.4993,-1,3
604,1.98134,4.4846,-1,3
605,1.98134,4.4696,-1,3
606,1.99015,4.4552,-1,3
607,1.99453,4.4426,-1,3
608,1.9989,4.4295,-1,3
609,2.00326,4.4159,-1,3
610,2.0076,4.4023,-1,3
611,2.01194,4.3895,-1,3
612,2.01626,4.377,-1,3
613,2.02056,4.3645,-1,3
614,2.02486,4.3515,-1,3
615,2.02914,4.3385,-1,3
616,2.0334,4.325,-1,3
617,2.03765,4.3117,-1,3
618,2.04189,4.2986,-1,3
619,2.04612,4.286,-1,3
620,2.05033,4.273,-1,3
621,2.05454,4.2599,-1,3
622,2.05872,4.2465,-1,3
623,2.0629,4.2333,-1,3
624,2.06706,4.2204,-1,3
625,2.07121,4.2077,-1,3
626,2.07535,4.1952,-1,3
627,2.07948,4.1825,-1,3
628,2.08358,4.1693,-1,3
629,2.08768,4.156,-1,3
630,2.09177,4.1432,-1,3
631,2.09584,4.1305,-1,3
632,2.0999,4.1177,-1,3
633,2.10394,4.1047,-1,3
634,2.10798,4.092,-1,3
635,2.112,4.0788,-1,3
636,2.11601,4.0654,-1,3
637,2.12,4.0523,-1,3
638,2.12398,4.0397,-1,3
639,2.12795,4.0268,-1,3
640,2.1319,4.0123,-1,3
641,2.13977,3.9976,-1,3
642,2.14369,3.9832,-1,3
643,2.14759,3.9692,-1,3
644,2.15148,3.9542,-1,3
645,2.15535,3.9395,-1,3
646,2.15921,3.9249,-1,3
647,2.16306,3.9106,-1,3
648,2.16689,3.896,-1,3
649,2.17072,3.8815,-1,3
650,2.17452,3.8681,-1,3
651,2.17832,3.8548,-1,3
652,2.1821,3.8412,-1,3
653,2.18587,3.8279,-1,3
654,2.18962,3.8149,-1,3
655,2.19337,3.8018,-1,3
656,2.1971,3.7888,-1,3
657,2.20081,3.7752,-1,3
658,2.20451,3.7619,-1,3
659,2.20821,3.7488,-1,3
660,2.21188,3.7359,-1,3
661,2.21555,3.7228,-1,3
662,2.2192,3.71,-1,3
663,2.22283,3.6964,-1,3
664,2.22646,3.6831,-1,3
665,2.23006,3.6696,-1,3
666,2.23366,3.6564,-1,3
667,2.23725,3.6435,-1,3
668,2.24082,3.6305,-1,3
669,2.24438,3.6173,-1,3
670,2.24793,3.6046,-1,3
671,2.25147,3.5919,-1,3
672,2.25499,3.5795,-1,3
673,2.25851,3.5674,-1,3
674,2.26201,3.5554,-1,3
675,2.2655,3.5436,-1,3
676,2.26898,3.5322,-1,3
677,2.27246,3.5211,-1,3
678,2.27592,3.51,-1,3
679,2.27937,3.499,-1,3
680,2.28281,3.4878,-1,3
681,2.28624,3.4771,-1,3
682,2.28966,3.4665,-1,3
683,2.29306,3.4557,-1,3
684,2.29646,3.4451,-1,3
685,2.29985,3.435,-1,3
686,2.30323,3.4246,-1,3
687,2.3066,3.4141,-1,3
688,2.30995,3.4038,-1,3
689,2.31331,3.3939,-1,3
690,2.31665,3.3844,-1,3
691,2.31998,3.3749,-1,3
692,2.32331,3.3654,-1,3
693,2.32663,3.3571,-1,3
694,2.32995,3.349,-1,3
695,2.33326,3.3409,-1,3
696,2.33986,3.3328,-1,3
697,2.34315,3.3253,-1,3
698,2.34644,3.3184,-1,3
699,2.34973,3.3119,-1,3
700,2.35301,3.3059,-1,3
701,2.35629,3.3007,-1,3
702,2.35957,3.2964,-1,3
703,2.36285,3.2919,-1,3
704,2.36613,3.288,-1,3
705,2.36941,3.285,-1,3
706,2.37269,3.2832,-1,3
707,2.37597,3.2822,-1,3
708,2.38254,3.2819,-1,3
709,2.38583,3.2823,-1,3
710,2.38913,3.2835,-1,3
711,2.39243,3.2853,-1,3
712,2.39573,3.2877,-1,3
713,2.39905,3.2911,-1,3
714,2.40237,3.2956,-1,3
715,2.4057,3.3006,-1,3
716,2.40904,3.3065,-1,3
717,2.41239,3.3136,-1,3
718,2.41576,3.3219,-1,3
719,2.41914,3.3313,-1,3
720,2.42254,3.3418,-1,3
721,2.42596,3.3533,-1,3
722,2.42939,3.366,-1,3
723,2.43285,3.38,-1,3
724,2.43632,3.3953,-1,3
725,2.43982,3.4123,-1,3
726,2.44334,3.4304,-1,3
727,2.44688,3.4495,-1,3
728,2.45046,3.4717,-1,3
729,2.45767,3.4952,-1,3
730,2.46132,3.5203,-1,3
731,2.465,3.5467,-1,3
732,2.465,3.5748,-1,3
733,2.46871,3.6011,-1,3
734,2.47624,3.6316,-1,3
735,2.48005,3.663,-1,3
736,2.4839,3.696,-1,3
737,2.48779,3.7303,-1,3
738,2.49172,3.7641,-1,3
739,2.49568,3.7988,-1,3
740,2.49969,3.8345,-1,3
741,2.50374,3.871,-1,3
742,2.50783,3.9084,-1,3
743,2.51195,3.9496,-1,3
744,2.51612,3.9886,-1,3
745,2.52034,4.0287,-1,3
746,2.5246,4.0698,-1,3
747,2.5289,4.1114,-1,3
748,2.53325,4.1533,-1,3
749,2.53765,4.1963,-1,3
750,2.54209,4.2396,-1,3
751,2.54657,4.2836,-1,3
752,2.5511,4.3279,-1,3
753,2.55569,4.3734,-1,3
754,2.56031,4.419,-1,3
755,2.56498,4.465,-1,3
756,2.5697,4.5104,-1,3
757,2.57446,4.5559,-1,3
758,2.57926,4.6013,-1,3
759,2.58411,4.6465,-1,3
760,2.589,4.6914,-1,3
761,2.59393,4.7361,-1,3
762,2.5989,4.7796,-1,3
763,2.60391,4.8222,-1,3
764,2.60895,4.8642,-1,3
765,2.61404,4.9057,-1,3
766,2.61916,4.9459,-1,3
767,2.62431,4.9852,-1,3
768,2.62949,5.0233,-1,3
769,2.63471,5.0603,-1,3
770,2.63996,5.0962,-1,3
771,2.64524,5.1307,-1,3
772,2.65054,5.164,-1,3
773,2.65586,5.1957,-1,3
774,2.66122,5.2269,-1,3
775,2.6666,5.2564,-1,3
776,2.67201,5.2848,-1,3
777,2.67743,5.3118,-1,3
778,2.68288,5.3382,-1,3
779,2.68834,5.363,-1,3
780,2.69383,5.3864,-1,3
781,2.69932,5.4084,-1,3
782,2.70484,5.4298,-1,3
783,2.71036,5.45,-1,3
784,2.7159,5.4682,-1,3
785,2.72145,5.4845,-1,3
786,2.72701,5.4999,-1,3
787,2.73256,5.5136,-1,3
788,2.73813,5.5256,-1,3
789,2.7437,5.5357,-1,3
790,2.74927,5.5443,-1,3
791,2.75484,5.5517,-1,3
792,2.76041,5.5576,-1,3
793,2.76598,5.5618,-1,3
794,2.77155,5.5644,-1,3
795,2.77711,5.5662,-1,3
796,2.78268,5.567,-1,3
797,2.78824,5.567,-1,3
798,2.79379,5.5654,-1,3
799,2.79933,5.5634,-1,3
800,2.80487,5.5605,-1,3
801,2.81041,5.5566,-1,3
802,2.81593,5.5519,-1,3
803,2.82146,5.5473,-1,3
804,2.82697,5.5418,-1,3
805,2.83247,5.5358,-1,3
806,2.83797,5.5291,-1,3
807,2.84346,5.5224,-1,3
808,2.84894,5.5156,-1,3
809,2.85442,5.5084,-1,3
810,2.85988,5.5003,-1,3
811,2.86533,5.4923,-1,3
812,2.87077,5.4839,-1,3
813,2.87621,5.4755,-1,3
814,2.88164,5.467,-1,3
815,2.88705,5.4576,-1,3
816,2.89244,5.4473,-1,3
817,2.89783,5.437,-1,3
818,2.90321,5.4267,-1,3
819,2.90858,5.4163,-1,3
820,2.91394,5.4061,-1,3
821,2.91928,5.3948,-1,3
822,2.92461,5.3837,-1,3
823,2.93524,5.3704,-1,3
824,2.94053,5.3569,-1,3
825,2.94581,5.3436,-1,3
826,2.95107,5.3305,-1,3
827,2.95633,5.3172,-1,3
828,2.96157,5.3034,-1,3
829,2.9668,5.2891,-1,3
830,2.97201,5.2743,-1,3
831,2.9772,5.2601,-1,3
832,2.98756,5.2444,-1,3
833,2.99272,5.2296,-1,3
834,2.99787,5.2149,-1,3
835,3.00299,5.1996,-1,3
836,3.00811,5.1848,-1,3
837,3.0132,5.1693,-1,3
838,3.0183,5.1541,-1,3
839,3.02337,5.1383,-1,3
840,3.02842,5.1227,-1,3
841,3.03346,5.1073,-1,3
842,3.03849,5.0931,-1,3
843,3.04351,5.0792,-1,3
