cnt,pos,speed,Dir,Force,
1,0,1.01,-1,3
2,0.00108981,1.0273,-1,3
3,0.00219989,1.0443,-1,3
4,0.00333977,1.062,-1,3
5,0.00449991,1.0791,-1,3
6,0.00567985,1.0942,-1,3
7,0.00685,1.1097,-1,3
8,0.00804996,1.1273,-1,3
9,0.00928998,1.146,-1,3
10,0.0105398,1.1633,-1,3
11,0.0117898,1.1797,-1,3
12,0.0130699,1.1976,-1,3
13,0.01437,1.2173,-1,3
14,0.0156999,1.2362,-1,3
15,0.0170398,1.2535,-1,3
16,0.0184,1.2721,-1,3
17,0.0197799,1.2926,-1,3
18,0.0226099,1.3155,-1,3
19,0.02405,1.3363,-1,3
20,0.0255098,1.3571,-1,3
21,0.0255098,1.3804,-1,3
22,0.027,1.4049,-1,3
23,0.0285199,1.4279,-1,3
24,0.0316,1.4495,-1,3
25,0.03317,1.4723,-1,3
26,0.03476,1.496,-1,3
27,0.0363798,1.5194,-1,3
28,0.0380199,1.5408,-1,3
29,0.03968,1.565,-1,3
30,0.0413699,1.59,-1,3
31,0.0430799,1.6119,-1,3
32,0.0448098,1.6334,-1,3
33,0.0465698,1.6557,-1,3
34,0.0483398,1.6788,-1,3
35,0.0501399,1.7018,-1,3
36,0.0519698,1.7276,-1,3
37,0.0538199,1.7527,-1,3
38,0.05758,1.7775,-1,3
39,0.05949,1.8008,-1,3
40,0.06144,1.8243,-1,3
41,0.0633998,1.8495,-1,3
42,0.0653799,1.8744,-1,3
43,0.06739,1.8996,-1,3
44,0.0694199,1.9248,-1,3
45,0.0714698,1.9501,-1,3
46,0.07354,1.9724,-1,3
47,0.07565,1.9988,-1,3
48,0.0799298,2.0242,-1,3
49,0.0820899,2.0487,-1,3
50,0.0842798,2.0737,-1,3
51,0.0865099,2.0998,-1,3
52,0.0887399,2.1255,-1,3
53,0.0909998,2.1505,-1,3
54,0.0932899,2.1765,-1,3
55,0.0955999,2.2023,-1,3
56,0.09793,2.2279,-1,3
57,0.10028,2.2498,-1,3
58,0.10265,2.2727,-1,3
59,0.10505,2.2959,-1,3
60,0.10746,2.3182,-1,3
61,0.1099,2.3396,-1,3
62,0.11236,2.3612,-1,3
63,0.11483,2.3829,-1,3
64,0.11733,2.4041,-1,3
65,0.11984,2.4245,-1,3
66,0.12238,2.4446,-1,3
67,0.12493,2.4652,-1,3
68,0.1275,2.4852,-1,3
69,0.13009,2.5044,-1,3
70,0.1327,2.5235,-1,3
71,0.13532,2.5423,-1,3
72,0.13796,2.5607,-1,3
73,0.14062,2.5787,-1,3
74,0.14329,2.5962,-1,3
75,0.14598,2.6136,-1,3
76,0.14868,2.6303,-1,3
77,0.15139,2.6463,-1,3
78,0.15412,2.6618,-1,3
79,0.15687,2.6774,-1,3
80,0.15962,2.692,-1,3
81,0.16239,2.7064,-1,3
82,0.16517,2.7203,-1,3
83,0.16796,2.7336,-1,3
84,0.17076,2.7465,-1,3
85,0.17357,2.759,-1,3
86,0.17639,2.7712,-1,3
87,0.17922,2.7829,-1,3
88,0.18206,2.7951,-1,3
89,0.18777,2.8067,-1,3
90,0.19064,2.818,-1,3
91,0.19352,2.829,-1,3
92,0.1964,2.8396,-1,3
93,0.19929,2.8498,-1,3
94,0.20219,2.8592,-1,3
95,0.2051,2.8687,-1,3
96,0.20801,2.8775,-1,3
97,0.21093,2.8864,-1,3
98,0.21678,2.894,-1,3
99,0.21971,2.9013,-1,3
100,0.22264,2.9081,-1,3
101,0.22558,2.9145,-1,3
102,0.22853,2.9206,-1,3
103,0.23148,2.9261,-1,3
104,0.23443,2.9317,-1,3
105,0.23738,2.9364,-1,3
106,0.24034,2.9413,-1,3
107,0.2433,2.9451,-1,3
108,0.24626,2.9487,-1,3
109,0.24923,2.9519,-1,3
110,0.25219,2.9548,-1,3
111,0.25516,2.9571,-1,3
112,0.25812,2.9593,-1,3
113,0.26109,2.9616,-1,3
114,0.26406,2.9632,-1,3
115,0.26703,2.9649,-1,3
116,0.27,2.9659,-1,3
117,0.27297,2.9669,-1,3
118,0.27594,2.9676,-1,3
119,0.27891,2.9684,-1,3
120,0.28188,2.9688,-1,3
121,0.28485,2.969,-1,3
122,0.28781,2.969,-1,3
123,0.29374,2.9685,-1,3
124,0.2967,2.9678,-1,3
125,0.29966,2.9664,-1,3
126,0.29966,2.9654,-1,3
127,0.30557,2.9641,-1,3
128,0.30853,2.9625,-1,3
129,0.31148,2.9604,-1,3
130,0.31443,2.9583,-1,3
131,0.31737,2.9561,-1,3
132,0.32031,2.9537,-1,3
133,0.3262,2.9512,-1,3
134,0.3262,2.9482,-1,3
135,0.32913,2.9454,-1,3
136,0.33206,2.9425,-1,3
137,0.33499,2.9399,-1,3
138,0.33792,2.9372,-1,3
139,0.34084,2.9342,-1,3
140,0.34375,2.9307,-1,3
141,0.34667,2.9272,-1,3
142,0.35249,2.9239,-1,3
143,0.35539,2.9202,-1,3
144,0.35829,2.9168,-1,3
145,0.35829,2.9131,-1,3
146,0.36118,2.9094,-1,3
147,0.36407,2.9053,-1,3
148,0.36695,2.9011,-1,3
149,0.36983,2.8972,-1,3
150,0.37271,2.8936,-1,3
151,0.37558,2.8896,-1,3
152,0.37845,2.8851,-1,3
153,0.38131,2.8806,-1,3
154,0.38702,2.8763,-1,3
155,0.38987,2.872,-1,3
156,0.38987,2.8668,-1,3
157,0.39271,2.8619,-1,3
158,0.39555,2.8569,-1,3
159,0.39838,2.8517,-1,3
160,0.4012,2.8466,-1,3
161,0.40402,2.8417,-1,3
162,0.40684,2.837,-1,3
163,0.40965,2.8316,-1,3
164,0.41245,2.8259,-1,3
165,0.41804,2.82,-1,3
166,0.42083,2.8146,-1,3
167,0.42361,2.8088,-1,3
168,0.42638,2.8029,-1,3
169,0.42916,2.7971,-1,3
170,0.43192,2.7909,-1,3
171,0.43467,2.7844,-1,3
172,0.43742,2.7776,-1,3
173,0.44017,2.7718,-1,3
174,0.44291,2.7654,-1,3
175,0.44837,2.7591,-1,3
176,0.45109,2.7523,-1,3
177,0.4538,2.7454,-1,3
178,0.4565,2.7383,-1,3
179,0.45921,2.7312,-1,3
180,0.4619,2.7246,-1,3
181,0.46459,2.7177,-1,3
182,0.46727,2.7108,-1,3
183,0.46995,2.7039,-1,3
184,0.47262,2.6977,-1,3
185,0.47528,2.6914,-1,3
186,0.47794,2.6856,-1,3
187,0.48059,2.6795,-1,3
188,0.48324,2.6736,-1,3
189,0.48588,2.6675,-1,3
190,0.48851,2.6608,-1,3
191,0.49114,2.6551,-1,3
192,0.49376,2.6494,-1,3
193,0.49899,2.6428,-1,3
194,0.5016,2.6363,-1,3
195,0.5042,2.6298,-1,3
196,0.50679,2.6233,-1,3
197,0.50938,2.6172,-1,3
198,0.51197,2.611,-1,3
199,0.51455,2.6049,-1,3
200,0.51712,2.5995,-1,3
201,0.51969,2.5935,-1,3
202,0.52482,2.5872,-1,3
203,0.52738,2.5816,-1,3
204,0.52993,2.576,-1,3
205,0.53247,2.5708,-1,3
206,0.53501,2.5653,-1,3
207,0.53755,2.56,-1,3
208,0.54008,2.5549,-1,3
209,0.54261,2.5499,-1,3
210,0.54514,2.5447,-1,3
211,0.54766,2.5399,-1,3
212,0.55018,2.5354,-1,3
213,0.55269,2.5312,-1,3
214,0.5552,2.5271,-1,3
215,0.5577,2.5231,-1,3
216,0.56021,2.5194,-1,3
217,0.5627,2.5152,-1,3
218,0.5652,2.5111,-1,3
219,0.56768,2.507,-1,3
220,0.57017,2.5034,-1,3
221,0.57265,2.4993,-1,3
222,0.57513,2.4956,-1,3
223,0.57761,2.492,-1,3
224,0.58008,2.4881,-1,3
225,0.58254,2.484,-1,3
226,0.58501,2.4804,-1,3
227,0.58747,2.4771,-1,3
228,0.58993,2.4735,-1,3
229,0.59238,2.4699,-1,3
230,0.59483,2.4663,-1,3
231,0.59728,2.4631,-1,3
232,0.59973,2.4595,-1,3
233,0.60217,2.4562,-1,3
234,0.60461,2.453,-1,3
235,0.60704,2.4499,-1,3
236,0.60947,2.4462,-1,3
237,0.61433,2.4427,-1,3
238,0.61433,2.4394,-1,3
239,0.61917,2.4361,-1,3
240,0.62159,2.4325,-1,3
241,0.624,2.429,-1,3
242,0.624,2.4259,-1,3
243,0.62882,2.4224,-1,3
244,0.63123,2.4191,-1,3
245,0.63363,2.416,-1,3
246,0.63603,2.4131,-1,3
247,0.63843,2.4099,-1,3
248,0.64083,2.4072,-1,3
249,0.64322,2.4045,-1,3
250,0.64561,2.4017,-1,3
251,0.648,2.3991,-1,3
252,0.65038,2.3964,-1,3
253,0.65277,2.3943,-1,3
254,0.65753,2.3916,-1,3
255,0.65992,2.3893,-1,3
256,0.66229,2.3871,-1,3
257,0.66467,2.3852,-1,3
258,0.66705,2.3833,-1,3
259,0.66942,2.3815,-1,3
260,0.6718,2.3803,-1,3
261,0.67417,2.3789,-1,3
262,0.67654,2.3775,-1,3
263,0.67892,2.3762,-1,3
264,0.68129,2.3757,-1,3
265,0.68367,2.375,-1,3
266,0.68604,2.3744,-1,3
267,0.69079,2.3745,-1,3
268,0.69317,2.3743,-1,3
269,0.69555,2.3747,-1,3
270,0.69793,2.3756,-1,3
271,0.70032,2.3767,-1,3
272,0.7027,2.3785,-1,3
273,0.70509,2.3798,-1,3
274,0.70748,2.3818,-1,3
275,0.70989,2.3846,-1,3
276,0.7147,2.3879,-1,3
277,0.71711,2.3916,-1,3
278,0.71953,2.3961,-1,3
279,0.72196,2.401,-1,3
280,0.72439,2.4057,-1,3
281,0.72683,2.4114,-1,3
282,0.72928,2.4174,-1,3
283,0.73174,2.4244,-1,3
284,0.7342,2.4315,-1,3
285,0.73668,2.439,-1,3
286,0.73916,2.4469,-1,3
287,0.74166,2.4549,-1,3
288,0.74417,2.4636,-1,3
289,0.74668,2.4727,-1,3
290,0.74921,2.4825,-1,3
291,0.75175,2.4924,-1,3
292,0.75431,2.503,-1,3
293,0.75688,2.5141,-1,3
294,0.75946,2.526,-1,3
295,0.76206,2.5381,-1,3
296,0.76467,2.5507,-1,3
297,0.7673,2.5641,-1,3
298,0.76994,2.5779,-1,3
299,0.77261,2.5925,-1,3
300,0.77529,2.6078,-1,3
301,0.77799,2.6235,-1,3
302,0.7807,2.6397,-1,3
303,0.78344,2.6568,-1,3
304,0.7862,2.6745,-1,3
305,0.78898,2.6926,-1,3
306,0.79178,2.7117,-1,3
307,0.79461,2.7312,-1,3
308,0.79746,2.7515,-1,3
309,0.80033,2.7724,-1,3
310,0.80323,2.7939,-1,3
311,0.80615,2.8163,-1,3
312,0.8091,2.8393,-1,3
313,0.81207,2.863,-1,3
314,0.81508,2.8873,-1,3
315,0.8181,2.9122,-1,3
316,0.82116,2.9407,-1,3
317,0.82736,2.9697,-1,3
318,0.8305,2.9992,-1,3
319,0.83367,3.0285,-1,3
320,0.83687,3.059,-1,3
321,0.84011,3.0907,-1,3
322,0.84338,3.1229,-1,3
323,0.84668,3.1549,-1,3
324,0.85001,3.1874,-1,3
325,0.85337,3.2207,-1,3
326,0.86019,3.2546,-1,3
327,0.86365,3.2895,-1,3
328,0.86714,3.3241,-1,3
329,0.87066,3.36,-1,3
330,0.87422,3.3948,-1,3
331,0.8778,3.4296,-1,3
332,0.88143,3.465,-1,3
333,0.88509,3.5018,-1,3
334,0.88879,3.5389,-1,3
335,0.89252,3.5754,-1,3
336,0.89627,3.6085,-1,3
337,0.90006,3.6415,-1,3
338,0.90389,3.6753,-1,3
339,0.91164,3.7121,-1,3
340,0.91557,3.7494,-1,3
341,0.91952,3.7855,-1,3
342,0.92349,3.8205,-1,3
343,0.9275,3.8553,-1,3
344,0.93155,3.8902,-1,3
345,0.93563,3.9257,-1,3
346,0.93974,3.9604,-1,3
347,0.94386,3.994,-1,3
348,0.94802,4.0269,-1,3
349,0.95221,4.0566,-1,3
350,0.95643,4.086,-1,3
351,0.96067,4.115,-1,3
352,0.96493,4.1435,-1,3
353,0.96921,4.1705,-1,3
354,0.97352,4.1966,-1,3
355,0.97785,4.2219,-1,3
356,0.9822,4.2468,-1,3
357,0.98658,4.2711,-1,3
358,0.99097,4.2946,-1,3
359,0.99538,4.3168,-1,3
360,0.99981,4.3378,-1,3
361,1.00425,4.3583,-1,3
362,1.00871,4.3786,-1,3
363,1.01319,4.3984,-1,3
364,1.01768,4.4165,-1,3
365,1.02218,4.4334,-1,3
366,1.0267,4.4498,-1,3
367,1.03123,4.4658,-1,3
368,1.03577,4.4807,-1,3
369,1.04033,4.4946,-1,3
370,1.04489,4.508,-1,3
371,1.04946,4.5207,-1,3
372,1.05404,4.5324,-1,3
373,1.05862,4.5429,-1,3
374,1.06321,4.5531,-1,3
375,1.06781,4.5625,-1,3
376,1.07241,4.5711,-1,3
377,1.07702,4.5783,-1,3
378,1.08163,4.5852,-1,3
379,1.08624,4.5915,-1,3
380,1.09548,4.5971,-1,3
381,1.1001,4.6022,-1,3
382,1.10472,4.6064,-1,3
383,1.10934,4.6099,-1,3
384,1.11396,4.6129,-1,3
385,1.11859,4.6158,-1,3
386,1.12321,4.6181,-1,3
387,1.12784,4.6201,-1,3
388,1.13246,4.6211,-1,3
389,1.13707,4.6214,-1,3
390,1.14169,4.6215,-1,3
391,1.14631,4.6212,-1,3
392,1.15553,4.6199,-1,3
393,1.16013,4.6181,-1,3
394,1.16013,4.6155,-1,3
395,1.16473,4.6126,-1,3
396,1.16932,4.6097,-1,3
397,1.17391,4.6063,-1,3
398,1.1785,4.6031,-1,3
399,1.18308,4.5993,-1,3
400,1.18765,4.5945,-1,3
401,1.19222,4.5887,-1,3
402,1.19678,4.5836,-1,3
403,1.20588,4.5781,-1,3
404,1.21042,4.5722,-1,3
405,1.21494,4.5652,-1,3
406,1.21946,4.5574,-1,3
407,1.22398,4.5499,-1,3
408,1.22848,4.5418,-1,3
409,1.23298,4.5336,-1,3
410,1.23747,4.5255,-1,3
411,1.24195,4.5172,-1,3
412,1.25086,4.5066,-1,3
413,1.25531,4.4965,-1,3
414,1.25974,4.4866,-1,3
415,1.26418,4.4771,-1,3
416,1.2686,4.467,-1,3
417,1.273,4.4559,-1,3
418,1.27739,4.444,-1,3
419,1.28176,4.4322,-1,3
420,1.28614,4.4203,-1,3
421,1.2905,4.4091,-1,3
422,1.29486,4.3996,-1,3
423,1.2992,4.3896,-1,3
424,1.30353,4.379,-1,3
425,1.30785,4.3675,-1,3
426,1.31215,4.3557,-1,3
427,1.31644,4.3442,-1,3
428,1.32072,4.3329,-1,3
429,1.32498,4.3216,-1,3
430,1.32923,4.3098,-1,3
431,1.33348,4.2974,-1,3
432,1.33771,4.2849,-1,3
433,1.34192,4.2721,-1,3
434,1.34612,4.2589,-1,3
435,1.35031,4.2459,-1,3
436,1.35449,4.2335,-1,3
437,1.35865,4.2208,-1,3
438,1.36279,4.208,-1,3
439,1.36693,4.1948,-1,3
440,1.37105,4.1819,-1,3
441,1.37516,4.1685,-1,3
442,1.37926,4.155,-1,3
443,1.38334,4.1412,-1,3
444,1.3874,4.1279,-1,3
445,1.39146,4.1145,-1,3
446,1.3955,4.0998,-1,3
447,1.39953,4.0853,-1,3
448,1.40755,4.071,-1,3
449,1.41154,4.0566,-1,3
450,1.41551,4.0417,-1,3
451,1.41551,4.0273,-1,3
452,1.42342,4.0123,-1,3
453,1.42736,3.9979,-1,3
454,1.43128,3.9833,-1,3
455,1.43519,3.969,-1,3
456,1.43909,3.9558,-1,3
457,1.44297,3.9423,-1,3
458,1.44683,3.9285,-1,3
459,1.45069,3.9147,-1,3
460,1.45453,3.9016,-1,3
461,1.45836,3.8883,-1,3
462,1.46218,3.8753,-1,3
463,1.46598,3.8617,-1,3
464,1.46976,3.8469,-1,3
465,1.47354,3.8324,-1,3
466,1.48105,3.818,-1,3
467,1.48479,3.8036,-1,3
468,1.48479,3.7893,-1,3
469,1.48851,3.7763,-1,3
470,1.49222,3.7627,-1,3
471,1.49592,3.7494,-1,3
472,1.4996,3.7364,-1,3
473,1.50328,3.7236,-1,3
474,1.50693,3.7121,-1,3
475,1.51058,3.7001,-1,3
476,1.51421,3.6879,-1,3
477,1.52144,3.6746,-1,3
478,1.52503,3.6617,-1,3
479,1.52861,3.6473,-1,3
480,1.53217,3.633,-1,3
481,1.53572,3.6186,-1,3
482,1.53927,3.6044,-1,3
483,1.5428,3.5899,-1,3
484,1.54631,3.5753,-1,3
485,1.54981,3.5609,-1,3
486,1.5533,3.5465,-1,3
487,1.56023,3.5321,-1,3
488,1.56368,3.5173,-1,3
489,1.56711,3.503,-1,3
490,1.57053,3.4886,-1,3
491,1.57394,3.474,-1,3
492,1.57733,3.4592,-1,3
493,1.58071,3.4445,-1,3
494,1.58408,3.4296,-1,3
495,1.58743,3.4148,-1,3
496,1.59077,3.3999,-1,3
497,1.5941,3.3865,-1,3
498,1.59741,3.3733,-1,3
499,1.60071,3.3597,-1,3
500,1.60399,3.3461,-1,3
501,1.60726,3.3326,-1,3
502,1.61052,3.3191,-1,3
503,1.61377,3.306,-1,3
504,1.61701,3.2929,-1,3
505,1.62023,3.2796,-1,3
506,1.62343,3.2667,-1,3
507,1.62663,3.2535,-1,3
508,1.62981,3.2402,-1,3
509,1.63298,3.227,-1,3
510,1.63613,3.2139,-1,3
511,1.63927,3.2006,-1,3
512,1.6424,3.1874,-1,3
513,1.64551,3.1741,-1,3
514,1.64862,3.161,-1,3
515,1.65171,3.1479,-1,3
516,1.65478,3.1347,-1,3
517,1.65785,3.1214,-1,3
518,1.6609,3.1084,-1,3
519,1.66393,3.0953,-1,3
520,1.66696,3.0823,-1,3
521,1.66997,3.0694,-1,3
522,1.67297,3.0566,-1,3
523,1.67595,3.0435,-1,3
524,1.67893,3.0307,-1,3
525,1.68189,3.018,-1,3
526,1.68484,3.0055,-1,3
527,1.68778,2.9932,-1,3
528,1.6907,2.9808,-1,3
529,1.69362,2.9687,-1,3
530,1.69652,2.9567,-1,3
531,1.7023,2.944,-1,3
532,1.70517,2.9313,-1,3
533,1.70804,2.9193,-1,3
534,1.71089,2.9077,-1,3
535,1.71375,2.8968,-1,3
536,1.7166,2.8864,-1,3
537,1.71944,2.8766,-1,3
538,1.72228,2.8675,-1,3
539,1.72511,2.8594,-1,3
540,1.73077,2.8519,-1,3
541,1.73077,2.8464,-1,3
542,1.73643,2.8415,-1,3
543,1.73643,2.8379,-1,3
544,1.74209,2.8351,-1,3
545,1.74493,2.834,-1,3
546,1.74777,2.8338,-1,3
547,1.75062,2.8345,-1,3
548,1.75347,2.836,-1,3
549,1.75633,2.8384,-1,3
550,1.75919,2.8419,-1,3
551,1.76207,2.8462,-1,3
552,1.76495,2.8527,-1,3
553,1.76786,2.8607,-1,3
554,1.77079,2.8703,-1,3
555,1.77374,2.8809,-1,3
556,1.7767,2.8928,-1,3
557,1.77968,2.9061,-1,3
558,1.78269,2.9218,-1,3
559,1.78572,2.939,-1,3
560,1.78878,2.959,-1,3
561,1.79189,2.9819,-1,3
562,1.79502,3.0062,-1,3
563,1.79818,3.0314,-1,3
564,1.80138,3.0585,-1,3
565,1.80461,3.0871,-1,3
566,1.80788,3.1181,-1,3
567,1.81456,3.156,-1,3
568,1.81796,3.1954,-1,3
569,1.82141,3.2372,-1,3
570,1.8249,3.2803,-1,3
571,1.82845,3.3247,-1,3
572,1.83204,3.3708,-1,3
573,1.83568,3.4187,-1,3
574,1.83938,3.4685,-1,3
575,1.84312,3.5198,-1,3
576,1.84692,3.5721,-1,3
577,1.85077,3.6211,-1,3
578,1.85468,3.6715,-1,3
579,1.85864,3.7284,-1,3
580,1.86672,3.7858,-1,3
581,1.86672,3.8442,-1,3
582,1.87085,3.8977,-1,3
583,1.87503,3.952,-1,3
584,1.87927,4.0066,-1,3
585,1.88357,4.0618,-1,3
586,1.88793,4.1178,-1,3
587,1.89235,4.1744,-1,3
588,1.89682,4.2371,-1,3
589,1.90135,4.2947,-1,3
590,1.9106,4.353,-1,3
591,1.91531,4.4115,-1,3
592,1.91531,4.4755,-1,3
593,1.92008,4.5394,-1,3
594,1.9249,4.5975,-1,3
595,1.92978,4.6558,-1,3
596,1.93472,4.7141,-1,3
597,1.93972,4.7718,-1,3
598,1.94476,4.8232,-1,3
599,1.94986,4.8792,-1,3
600,1.95502,4.9344,-1,3
601,1.96548,4.9887,-1,3
602,1.97078,5.0425,-1,3
603,1.97614,5.0957,-1,3
604,1.97614,5.1533,-1,3
605,1.98153,5.2049,-1,3
606,1.99247,5.2596,-1,3
607,1.99247,5.3134,-1,3
608,2.00357,5.3661,-1,3
609,2.00918,5.4118,-1,3
610,2.01483,5.4564,-1,3
611,2.02052,5.4994,-1,3
612,2.02624,5.5413,-1,3
613,2.032,5.5816,-1,3
614,2.03779,5.6238,-1,3
615,2.04946,5.6695,-1,3
616,2.04946,5.7086,-1,3
617,2.06124,5.7454,-1,3
618,2.06716,5.7804,-1,3
619,2.07311,5.8139,-1,3
620,2.07907,5.8454,-1,3
621,2.08506,5.8751,-1,3
622,2.09106,5.9025,-1,3
623,2.09706,5.9276,-1,3
624,2.10308,5.9474,-1,3
625,2.10911,5.9649,-1,3
626,2.11516,5.9818,-1,3
627,2.12122,5.9976,-1,3
628,2.12728,6.0116,-1,3
629,2.13334,6.0233,-1,3
630,2.13941,6.0333,-1,3
631,2.14548,6.0417,-1,3
632,2.15155,6.0495,-1,3
633,2.16371,6.0567,-1,3
634,2.16978,6.0625,-1,3
635,2.17586,6.067,-1,3
636,2.18193,6.0691,-1,3
637,2.188,6.0702,-1,3
638,2.19406,6.0704,-1,3
639,2.20012,6.0705,-1,3
640,2.20619,6.0703,-1,3
641,2.21224,6.0693,-1,3
642,2.22431,6.0642,-1,3
643,2.23034,6.0586,-1,3
644,2.23636,6.0531,-1,3
645,2.24237,6.0467,-1,3
646,2.24837,6.0397,-1,3
647,2.25435,6.0314,-1,3
648,2.26033,6.0222,-1,3
649,2.26629,6.0125,-1,3
650,2.27224,6.0013,-1,3
651,2.27819,5.99,-1,3
652,2.28411,5.9799,-1,3
653,2.29002,5.9688,-1,3
654,2.29592,5.9562,-1,3
655,2.3018,5.9434,-1,3
656,2.30767,5.9306,-1,3
657,2.31354,5.9184,-1,3
658,2.31938,5.9055,-1,3
659,2.32521,5.8919,-1,3
660,2.33102,5.8779,-1,3
661,2.33682,5.8636,-1,3
662,2.34261,5.8499,-1,3
663,2.34838,5.8359,-1,3
664,2.35414,5.8225,-1,3
665,2.35989,5.8088,-1,3
666,2.36562,5.7946,-1,3
667,2.37133,5.7798,-1,3
668,2.37704,5.7659,-1,3
669,2.38272,5.7512,-1,3
670,2.38839,5.7372,-1,3
671,2.39405,5.7226,-1,3
672,2.39969,5.7084,-1,3
673,2.40532,5.6938,-1,3
674,2.41093,5.679,-1,3
675,2.41653,5.6638,-1,3
676,2.42211,5.6486,-1,3
677,2.42767,5.6333,-1,3
678,2.43321,5.6174,-1,3
679,2.43874,5.6019,-1,3
680,2.44426,5.5862,-1,3
681,2.44975,5.5705,-1,3
682,2.45524,5.5543,-1,3
683,2.4607,5.5383,-1,3
684,2.46615,5.52,-1,3
685,2.477,5.5022,-1,3
686,2.4824,5.4847,-1,3
687,2.48779,5.4671,-1,3
688,2.49315,5.4491,-1,3
689,2.4985,5.4314,-1,3
690,2.50384,5.4138,-1,3
691,2.50917,5.3967,-1,3
692,2.51448,5.3792,-1,3
693,2.51977,5.3615,-1,3
694,2.52504,5.345,-1,3
695,2.53557,5.3289,-1,3
696,2.54081,5.3129,-1,3
697,2.54604,5.2973,-1,3
698,2.55125,5.2816,-1,3
699,2.55644,5.2661,-1,3
700,2.56163,5.2508,-1,3
701,2.5668,5.2358,-1,3
702,2.57196,5.2209,-1,3
703,2.57711,5.2063,-1,3
704,2.58224,5.1925,-1,3
705,2.58735,5.1789,-1,3
706,2.59246,5.1655,-1,3
707,2.59756,5.1523,-1,3
708,2.60264,5.1394,-1,3
709,2.6077,5.126,-1,3
710,2.61276,5.1129,-1,3
711,2.6178,5.0995,-1,3
712,2.62283,5.0862,-1,3
713,2.62784,5.0731,-1,3
714,2.63284,5.0605,-1,3
715,2.63782,5.0471,-1,3
716,2.6428,5.0337,-1,3
717,2.64776,5.0201,-1,3
718,2.65271,5.0072,-1,3
719,2.65765,4.9945,-1,3
720,2.66257,4.9813,-1,3
721,2.66748,4.9677,-1,3
722,2.67237,4.9547,-1,3
723,2.68213,4.9407,-1,3
724,2.68699,4.9267,-1,3
725,2.69184,4.9133,-1,3
726,2.69667,4.8991,-1,3
727,2.7015,4.8851,-1,3
728,2.7063,4.8707,-1,3
729,2.7111,4.8573,-1,3
730,2.71589,4.8436,-1,3
731,2.72066,4.8297,-1,3
732,2.72542,4.816,-1,3
733,2.73017,4.8036,-1,3
734,2.7349,4.7908,-1,3
735,2.73962,4.7768,-1,3
736,2.74903,4.7637,-1,3
737,2.75371,4.7498,-1,3
738,2.75371,4.736,-1,3
739,2.75838,4.7228,-1,3
740,2.76304,4.7101,-1,3
741,2.76768,4.6975,-1,3
742,2.77231,4.6846,-1,3
743,2.77693,4.6704,-1,3
744,2.78613,4.6563,-1,3
745,2.79071,4.6432,-1,3
746,2.79528,4.6296,-1,3
747,2.79983,4.6164,-1,3
748,2.80436,4.6032,-1,3
749,2.80436,4.5891,-1,3
750,2.80889,4.5761,-1,3
751,2.8134,4.5632,-1,3
752,2.81791,4.5502,-1,3
753,2.82239,4.5382,-1,3
754,2.82687,4.5248,-1,3
755,2.83132,4.511,-1,3
756,2.8402,4.4977,-1,3
757,2.84462,4.4846,-1,3
758,2.84902,4.4715,-1,3
759,2.84902,4.4576,-1,3
760,2.85341,4.4423,-1,3
761,2.86214,4.4267,-1,3
762,2.86214,4.4112,-1,3
763,2.87082,4.3958,-1,3
764,2.87514,4.382,-1,3
765,2.87944,4.368,-1,3
766,2.88373,4.3537,-1,3
767,2.88801,4.3388,-1,3
768,2.89651,4.3229,-1,3
769,2.90075,4.3076,-1,3
770,2.90497,4.292,-1,3
771,2.90497,4.2764,-1,3
772,2.91335,4.2602,-1,3
773,2.91335,4.2439,-1,3
774,2.92168,4.2275,-1,3
775,2.92582,4.2119,-1,3
776,2.92996,4.1965,-1,3
777,2.93408,4.1816,-1,3
778,2.93819,4.1679,-1,3
779,2.94228,4.1537,-1,3
780,2.94636,4.1394,-1,3
781,2.95043,4.1258,-1,3
782,2.95449,4.1134,-1,3
783,2.95854,4.1019,-1,3
784,2.96258,4.0905,-1,3
785,2.96661,4.0788,-1,3
786,2.97063,4.0671,-1,3
787,2.97463,4.0551,-1,3
788,2.97862,4.0422,-1,3
789,2.98658,4.03,-1,3
790,2.99054,4.0189,-1,3
791,2.99449,4.0076,-1,3
792,2.99843,3.9956,-1,3
793,3.00236,3.9831,-1,3
794,3.00628,3.971,-1,3
795,3.0102,3.9597,-1,3
796,3.0141,3.9484,-1,3
797,3.018,3.9379,-1,3
798,3.02188,3.9271,-1,3
799,3.02962,3.9165,-1,3
800,3.03348,3.9061,-1,3
801,3.03734,3.897,-1,3
802,3.0412,3.8886,-1,3
803,3.04505,3.8802,-1,3
804,3.04888,3.8721,-1,3
805,3.05273,3.8645,-1,3
806,3.05656,3.8577,-1,3
807,3.0604,3.8515,-1,3
808,3.06423,3.8472,-1,3
809,3.06806,3.8434,-1,3
810,3.07188,3.8396,-1,3
811,3.0757,3.836,-1,3
812,3.07953,3.8327,-1,3
813,3.08335,3.8306,-1,3
814,3.08717,3.8287,-1,3
815,3.091,3.8271,-1,3
816,3.09482,3.826,-1,3
817,3.09865,3.8254,-1,3
818,3.10248,3.8255,-1,3
819,3.10632,3.8262,-1,3
820,3.11016,3.8276,-1,3
821,3.114,3.8291,-1,3
822,3.11784,3.8312,-1,3
823,3.12169,3.8338,-1,3
824,3.12555,3.8377,-1,3
825,3.12942,3.8419,-1,3
826,3.13329,3.8463,-1,3
827,3.13716,3.851,-1,3
828,3.14105,3.8567,-1,3
829,3.14495,3.8628,-1,3
830,3.14885,3.8698,-1,3
831,3.15277,3.8774,-1,3
832,3.1567,3.887,-1,3
833,3.16459,3.8973,-1,3
834,3.16856,3.9084,-1,3
835,3.17255,3.9207,-1,3
836,3.17656,3.9342,-1,3
837,3.18059,3.9498,-1,3
838,3.18464,3.9664,-1,3
839,3.18872,3.9852,-1,3
840,3.19284,4.0059,-1,3
841,3.20118,4.0332,-1,3
