cnt,pos,speed,Dir,Force,
1,0,1.6417,-1,3
2,0.00159001,1.6326,-1,3
3,0.00317001,1.6237,-1,3
4,0.00474,1.6141,-1,3
5,0.00629997,1.6048,-1,3
6,0.00785995,1.5961,-1,3
7,0.0094099,1.5869,-1,3
8,0.0109401,1.5773,-1,3
9,0.01246,1.5676,-1,3
10,0.0139699,1.5575,-1,3
11,0.01547,1.5475,-1,3
12,0.0169699,1.5381,-1,3
13,0.01845,1.5284,-1,3
14,0.0199299,1.5188,-1,3
15,0.02139,1.5089,-1,3
16,0.02285,1.4988,-1,3
17,0.0243001,1.4895,-1,3
18,0.0257399,1.4807,-1,3
19,0.0271699,1.4718,-1,3
20,0.02859,1.4623,-1,3
21,0.03001,1.4535,-1,3
22,0.03142,1.4446,-1,3
23,0.03282,1.4363,-1,3
24,0.03421,1.4277,-1,3
25,0.0355899,1.4192,-1,3
26,0.0369599,1.411,-1,3
27,0.0383301,1.4023,-1,3
28,0.0397,1.3945,-1,3
29,0.04105,1.3869,-1,3
30,0.0423899,1.3794,-1,3
31,0.0450699,1.3715,-1,3
32,0.0464001,1.364,-1,3
33,0.04772,1.3561,-1,3
34,0.0490301,1.3486,-1,3
35,0.0503399,1.3414,-1,3
36,0.05165,1.3343,-1,3
37,0.0529499,1.3283,-1,3
38,0.05426,1.3223,-1,3
39,0.0555501,1.3162,-1,3
40,0.0568299,1.3102,-1,3
41,0.05811,1.3046,-1,3
42,0.0593901,1.2993,-1,3
43,0.0606699,1.2951,-1,3
44,0.06195,1.2914,-1,3
45,0.06322,1.2875,-1,3
46,0.0644901,1.2837,-1,3
47,0.0657499,1.2797,-1,3
48,0.0670099,1.2753,-1,3
49,0.06827,1.2719,-1,3
50,0.06953,1.2694,-1,3
51,0.07078,1.2668,-1,3
52,0.0720301,1.2636,-1,3
53,0.0732801,1.2606,-1,3
54,0.0745299,1.2578,-1,3
55,0.0757699,1.2553,-1,3
56,0.0770099,1.253,-1,3
57,0.0795,1.2507,-1,3
58,0.08073,1.2485,-1,3
59,0.08197,1.246,-1,3
60,0.08321,1.2441,-1,3
61,0.08444,1.2423,-1,3
62,0.08568,1.2409,-1,3
63,0.08691,1.2392,-1,3
64,0.08815,1.238,-1,3
65,0.08938,1.2367,-1,3
66,0.09061,1.2352,-1,3
67,0.09307,1.2345,-1,3
68,0.0943,1.2337,-1,3
69,0.09554,1.2333,-1,3
70,0.09677,1.233,-1,3
71,0.098,1.2328,-1,3
72,0.0992401,1.2325,-1,3
73,0.10047,1.2325,-1,3
74,0.10171,1.233,-1,3
75,0.10295,1.234,-1,3
76,0.10419,1.2351,-1,3
77,0.10543,1.2358,-1,3
78,0.10668,1.2376,-1,3
79,0.10793,1.2392,-1,3
80,0.10918,1.2408,-1,3
81,0.11043,1.2428,-1,3
82,0.11169,1.2455,-1,3
83,0.11295,1.2479,-1,3
84,0.11421,1.2498,-1,3
85,0.11547,1.2521,-1,3
86,0.11674,1.255,-1,3
87,0.11801,1.2581,-1,3
88,0.11929,1.2605,-1,3
89,0.12056,1.2636,-1,3
90,0.12184,1.2666,-1,3
91,0.12312,1.2691,-1,3
92,0.12441,1.2716,-1,3
93,0.1257,1.2747,-1,3
94,0.12699,1.2778,-1,3
95,0.12828,1.2805,-1,3
96,0.12958,1.2833,-1,3
97,0.13087,1.286,-1,3
98,0.13217,1.2888,-1,3
99,0.13348,1.2912,-1,3
100,0.13478,1.2938,-1,3
101,0.1361,1.297,-1,3
102,0.13741,1.2998,-1,3
103,0.13873,1.3027,-1,3
104,0.14005,1.3059,-1,3
105,0.14137,1.3093,-1,3
106,0.1427,1.3122,-1,3
107,0.14403,1.3154,-1,3
108,0.14536,1.3189,-1,3
109,0.1467,1.3221,-1,3
110,0.14804,1.3255,-1,3
111,0.14938,1.3289,-1,3
112,0.15073,1.3324,-1,3
113,0.15208,1.3352,-1,3
114,0.15343,1.3381,-1,3
115,0.15478,1.341,-1,3
116,0.15614,1.3438,-1,3
117,0.15749,1.3465,-1,3
118,0.15886,1.3492,-1,3
119,0.16022,1.3519,-1,3
120,0.16158,1.354,-1,3
121,0.16295,1.3562,-1,3
122,0.16431,1.3584,-1,3
123,0.16568,1.3606,-1,3
124,0.16705,1.3626,-1,3
125,0.16843,1.3644,-1,3
126,0.1698,1.3661,-1,3
127,0.17117,1.3673,-1,3
128,0.17254,1.3684,-1,3
129,0.17529,1.3696,-1,3
130,0.17666,1.3706,-1,3
131,0.17803,1.3712,-1,3
132,0.1794,1.3713,-1,3
133,0.18078,1.3716,-1,3
134,0.18215,1.3718,-1,3
135,0.18352,1.3717,-1,3
136,0.18489,1.3712,-1,3
137,0.18625,1.3709,-1,3
138,0.18762,1.3704,-1,3
139,0.18899,1.3697,-1,3
140,0.19035,1.3688,-1,3
141,0.19171,1.3679,-1,3
142,0.19307,1.367,-1,3
143,0.19443,1.3657,-1,3
144,0.19579,1.3644,-1,3
145,0.19715,1.3633,-1,3
146,0.19851,1.3621,-1,3
147,0.19986,1.3607,-1,3
148,0.20121,1.359,-1,3
149,0.20256,1.3573,-1,3
150,0.20391,1.3555,-1,3
151,0.20659,1.3533,-1,3
152,0.20793,1.351,-1,3
153,0.20927,1.3485,-1,3
154,0.2106,1.3458,-1,3
155,0.21193,1.3428,-1,3
156,0.21325,1.34,-1,3
157,0.21458,1.337,-1,3
158,0.21589,1.3338,-1,3
159,0.21721,1.3303,-1,3
160,0.21852,1.3266,-1,3
161,0.22113,1.3228,-1,3
162,0.22243,1.319,-1,3
163,0.22373,1.3156,-1,3
164,0.22503,1.3119,-1,3
165,0.22632,1.3078,-1,3
166,0.2276,1.3037,-1,3
167,0.22888,1.2995,-1,3
168,0.23016,1.2956,-1,3
169,0.23144,1.2919,-1,3
170,0.23271,1.2884,-1,3
171,0.23398,1.2852,-1,3
172,0.23525,1.2815,-1,3
173,0.2365,1.2774,-1,3
174,0.23776,1.2736,-1,3
175,0.23902,1.2705,-1,3
176,0.24027,1.2673,-1,3
177,0.24152,1.2639,-1,3
178,0.24276,1.2603,-1,3
179,0.24401,1.2569,-1,3
180,0.24525,1.2537,-1,3
181,0.24649,1.2501,-1,3
182,0.24772,1.2472,-1,3
183,0.24895,1.2445,-1,3
184,0.25018,1.2414,-1,3
185,0.2514,1.2382,-1,3
186,0.25263,1.2356,-1,3
187,0.25385,1.2333,-1,3
188,0.25507,1.2305,-1,3
189,0.25628,1.2277,-1,3
190,0.2575,1.2251,-1,3
191,0.25871,1.2229,-1,3
192,0.25992,1.2204,-1,3
193,0.26113,1.218,-1,3
194,0.26234,1.216,-1,3
195,0.26354,1.2139,-1,3
196,0.26474,1.211,-1,3
197,0.26594,1.2086,-1,3
198,0.26714,1.2069,-1,3
199,0.26953,1.2047,-1,3
200,0.27072,1.2026,-1,3
201,0.27191,1.2004,-1,3
202,0.2731,1.1985,-1,3
203,0.27429,1.1964,-1,3
204,0.27548,1.1944,-1,3
205,0.27667,1.1928,-1,3
206,0.27785,1.1916,-1,3
207,0.27903,1.1897,-1,3
208,0.28022,1.1881,-1,3
209,0.2814,1.1877,-1,3
210,0.28259,1.1863,-1,3
211,0.28377,1.1853,-1,3
212,0.28614,1.185,-1,3
213,0.28733,1.185,-1,3
214,0.28733,1.1849,-1,3
215,0.28851,1.1846,-1,3
216,0.2897,1.1847,-1,3
217,0.29089,1.1856,-1,3
218,0.29207,1.1862,-1,3
219,0.29326,1.1866,-1,3
220,0.29565,1.1881,-1,3
221,0.29684,1.1894,-1,3
222,0.29804,1.1903,-1,3
223,0.29924,1.1915,-1,3
224,0.30044,1.1934,-1,3
225,0.30165,1.1951,-1,3
226,0.30285,1.1965,-1,3
227,0.30406,1.1986,-1,3
228,0.30527,1.2012,-1,3
229,0.30649,1.2039,-1,3
230,0.30893,1.2065,-1,3
231,0.31016,1.2097,-1,3
232,0.31139,1.2131,-1,3
233,0.31262,1.2169,-1,3
234,0.31387,1.2206,-1,3
235,0.31511,1.2248,-1,3
236,0.31636,1.2293,-1,3
237,0.31761,1.2334,-1,3
238,0.31887,1.2379,-1,3
239,0.32014,1.2426,-1,3
240,0.32141,1.2475,-1,3
241,0.32268,1.2526,-1,3
242,0.32397,1.2581,-1,3
243,0.32526,1.2632,-1,3
244,0.32655,1.2684,-1,3
245,0.32786,1.2745,-1,3
246,0.32917,1.2813,-1,3
247,0.33049,1.288,-1,3
248,0.33182,1.2947,-1,3
249,0.33316,1.3018,-1,3
250,0.3345,1.3093,-1,3
251,0.33585,1.3168,-1,3
252,0.33722,1.3247,-1,3
253,0.3386,1.3338,-1,3
254,0.33998,1.343,-1,3
255,0.34138,1.3518,-1,3
256,0.34278,1.3609,-1,3
257,0.34419,1.3704,-1,3
258,0.34562,1.3805,-1,3
259,0.34706,1.3901,-1,3
260,0.3485,1.3998,-1,3
261,0.34995,1.4097,-1,3
262,0.35141,1.4195,-1,3
263,0.35288,1.4286,-1,3
264,0.35436,1.4374,-1,3
265,0.35584,1.4462,-1,3
266,0.35733,1.4545,-1,3
267,0.35882,1.4626,-1,3
268,0.36032,1.4699,-1,3
269,0.36184,1.4785,-1,3
270,0.3634,1.4898,-1,3
271,0.36501,1.5055,-1,3
272,0.36665,1.5237,-1,3
273,0.36829,1.5406,-1,3
274,0.36992,1.5575,-1,3
275,0.37324,1.5772,-1,3
276,0.37495,1.5994,-1,3
277,0.37667,1.6219,-1,3
278,0.37839,1.6436,-1,3
279,0.38012,1.6648,-1,3
280,0.38188,1.6852,-1,3
281,0.38366,1.703,-1,3
282,0.38547,1.7187,-1,3
283,0.38727,1.7358,-1,3
284,0.38909,1.7557,-1,3
285,0.3928,1.7746,-1,3
286,0.3947,1.7929,-1,3
287,0.3966,1.8109,-1,3
288,0.3966,1.8297,-1,3
289,0.3985,1.8471,-1,3
290,0.40043,1.8637,-1,3
291,0.40239,1.8808,-1,3
292,0.40437,1.8991,-1,3
293,0.40636,1.9174,-1,3
294,0.40835,1.9352,-1,3
295,0.41037,1.9538,-1,3
296,0.41449,1.9716,-1,3
297,0.41656,1.9886,-1,3
298,0.41656,2.0065,-1,3
299,0.41865,2.0244,-1,3
300,0.42291,2.0465,-1,3
301,0.42291,2.0661,-1,3
302,0.42722,2.0837,-1,3
303,0.42941,2.1025,-1,3
304,0.43161,2.1214,-1,3
305,0.43385,2.1391,-1,3
306,0.43609,2.156,-1,3
307,0.43833,2.1739,-1,3
308,0.4429,2.1955,-1,3
309,0.44522,2.2188,-1,3
310,0.44522,2.2363,-1,3
311,0.44988,2.2547,-1,3
312,0.45225,2.2751,-1,3
313,0.45463,2.2959,-1,3
314,0.45703,2.3146,-1,3
315,0.45944,2.3321,-1,3
316,0.46187,2.3511,-1,3
317,0.46431,2.3711,-1,3
318,0.46678,2.3877,-1,3
319,0.46926,2.4035,-1,3
320,0.47175,2.4205,-1,3
321,0.47426,2.4378,-1,3
322,0.47679,2.4544,-1,3
323,0.47933,2.4698,-1,3
324,0.48189,2.4857,-1,3
325,0.48446,2.5022,-1,3
326,0.48704,2.5179,-1,3
327,0.48965,2.5337,-1,3
328,0.49227,2.5485,-1,3
329,0.4949,2.564,-1,3
330,0.49754,2.5795,-1,3
331,0.50021,2.595,-1,3
332,0.50289,2.6099,-1,3
333,0.50558,2.625,-1,3
334,0.50829,2.6402,-1,3
335,0.51101,2.6554,-1,3
336,0.51375,2.6708,-1,3
337,0.51651,2.6856,-1,3
338,0.51928,2.701,-1,3
339,0.52206,2.7164,-1,3
340,0.52486,2.7315,-1,3
341,0.52768,2.7465,-1,3
342,0.53051,2.7616,-1,3
343,0.53335,2.7766,-1,3
344,0.53621,2.7935,-1,3
345,0.54197,2.8099,-1,3
346,0.54488,2.8264,-1,3
347,0.54779,2.8426,-1,3
348,0.55073,2.859,-1,3
349,0.55367,2.8752,-1,3
350,0.55664,2.8919,-1,3
351,0.55962,2.9082,-1,3
352,0.56261,2.9244,-1,3
353,0.56562,2.9409,-1,3
354,0.56864,2.9553,-1,3
355,0.57167,2.9699,-1,3
356,0.57471,2.9854,-1,3
357,0.57778,3.0009,-1,3
358,0.58393,3.0161,-1,3
359,0.58703,3.0313,-1,3
360,0.59014,3.0459,-1,3
361,0.59326,3.0603,-1,3
362,0.5964,3.0746,-1,3
363,0.59954,3.0882,-1,3
364,0.6027,3.1017,-1,3
365,0.60586,3.1148,-1,3
366,0.60904,3.1263,-1,3
367,0.61222,3.1377,-1,3
368,0.61862,3.1495,-1,3
369,0.62183,3.1607,-1,3
370,0.62505,3.1719,-1,3
371,0.62828,3.1824,-1,3
372,0.63152,3.1924,-1,3
373,0.63476,3.2021,-1,3
374,0.63801,3.2115,-1,3
375,0.64126,3.2208,-1,3
376,0.64453,3.2296,-1,3
377,0.64779,3.2374,-1,3
378,0.65106,3.244,-1,3
379,0.65434,3.2506,-1,3
380,0.65762,3.2565,-1,3
381,0.6609,3.2621,-1,3
382,0.66419,3.2674,-1,3
383,0.66748,3.2721,-1,3
384,0.67077,3.2766,-1,3
385,0.67407,3.2804,-1,3
386,0.67736,3.2834,-1,3
387,0.68065,3.2865,-1,3
388,0.68395,3.289,-1,3
389,0.68724,3.2908,-1,3
390,0.69054,3.2924,-1,3
391,0.69384,3.2937,-1,3
392,0.69713,3.2946,-1,3
393,0.70043,3.2954,-1,3
394,0.70372,3.2951,-1,3
395,0.70702,3.295,-1,3
396,0.71031,3.2949,-1,3
397,0.7136,3.2943,-1,3
398,0.71688,3.2933,-1,3
399,0.72016,3.2919,-1,3
400,0.72344,3.2897,-1,3
401,0.72671,3.2873,-1,3
402,0.72998,3.2849,-1,3
403,0.73325,3.2823,-1,3
404,0.73652,3.2801,-1,3
405,0.73979,3.2772,-1,3
406,0.74304,3.2736,-1,3
407,0.7463,3.2699,-1,3
408,0.74955,3.2663,-1,3
409,0.75279,3.2624,-1,3
410,0.75927,3.2587,-1,3
411,0.76251,3.2548,-1,3
412,0.76573,3.2504,-1,3
413,0.76895,3.2452,-1,3
414,0.77217,3.2398,-1,3
415,0.77538,3.2343,-1,3
416,0.77858,3.2292,-1,3
417,0.78179,3.2242,-1,3
418,0.78498,3.2189,-1,3
419,0.78817,3.2138,-1,3
420,0.79453,3.2078,-1,3
421,0.7977,3.2014,-1,3
422,0.80087,3.1952,-1,3
423,0.80403,3.1893,-1,3
424,0.80718,3.1832,-1,3
425,0.81033,3.1768,-1,3
426,0.81347,3.1704,-1,3
427,0.8166,3.1634,-1,3
428,0.81973,3.1567,-1,3
429,0.82285,3.1498,-1,3
430,0.82597,3.1434,-1,3
431,0.82907,3.1371,-1,3
432,0.83217,3.1304,-1,3
433,0.83527,3.124,-1,3
434,0.83836,3.1177,-1,3
435,0.84144,3.1114,-1,3
436,0.84452,3.1049,-1,3
437,0.84759,3.0987,-1,3
438,0.85065,3.0925,-1,3
439,0.85371,3.0861,-1,3
440,0.85677,3.0801,-1,3
441,0.85982,3.0743,-1,3
442,0.86286,3.0681,-1,3
443,0.86893,3.0617,-1,3
444,0.87195,3.0553,-1,3
445,0.87498,3.0491,-1,3
446,0.87799,3.0431,-1,3
447,0.881,3.0373,-1,3
448,0.88401,3.0311,-1,3
449,0.88701,3.0252,-1,3
450,0.89,3.0192,-1,3
451,0.89299,3.0131,-1,3
452,0.89597,3.0078,-1,3
453,0.89895,3.0027,-1,3
454,0.90193,2.9969,-1,3
455,0.90489,2.9917,-1,3
456,0.90786,2.9865,-1,3
457,0.91082,2.9811,-1,3
458,0.91377,2.9762,-1,3
459,0.91672,2.9707,-1,3
460,0.92261,2.9656,-1,3
461,0.92555,2.9607,-1,3
462,0.92848,2.9554,-1,3
463,0.93141,2.95,-1,3
464,0.93141,2.9457,-1,3
465,0.93433,2.9411,-1,3
466,0.93725,2.9371,-1,3
467,0.94017,2.9328,-1,3
468,0.94308,2.9284,-1,3
469,0.94599,2.9248,-1,3
470,0.94889,2.9208,-1,3
471,0.95179,2.9171,-1,3
472,0.95469,2.9138,-1,3
473,0.95758,2.9105,-1,3
474,0.96047,2.9068,-1,3
475,0.96336,2.9031,-1,3
476,0.96624,2.8989,-1,3
477,0.96912,2.8953,-1,3
478,0.972,2.8921,-1,3
479,0.97487,2.8887,-1,3
480,0.97774,2.8853,-1,3
481,0.98061,2.882,-1,3
482,0.98347,2.8783,-1,3
483,0.98634,2.8752,-1,3
484,0.9892,2.8722,-1,3
485,0.9949,2.8688,-1,3
486,0.9949,2.8651,-1,3
487,1.00059,2.8616,-1,3
488,1.00344,2.8581,-1,3
489,1.00628,2.8546,-1,3
490,1.00628,2.8512,-1,3
491,1.01194,2.8475,-1,3
492,1.01477,2.844,-1,3
493,1.0176,2.8404,-1,3
494,1.02042,2.8366,-1,3
495,1.02324,2.8331,-1,3
496,1.02605,2.8294,-1,3
497,1.02886,2.8259,-1,3
498,1.03446,2.8215,-1,3
499,1.03446,2.8172,-1,3
500,1.03726,2.8133,-1,3
501,1.04005,2.8086,-1,3
502,1.04562,2.804,-1,3
503,1.04839,2.7991,-1,3
504,1.05117,2.7943,-1,3
505,1.05394,2.7894,-1,3
506,1.0567,2.7847,-1,3
507,1.05945,2.7796,-1,3
508,1.06221,2.7749,-1,3
509,1.06496,2.7701,-1,3
510,1.0677,2.7648,-1,3
511,1.07044,2.7602,-1,3
512,1.07317,2.7555,-1,3
513,1.0759,2.7507,-1,3
514,1.07863,2.7459,-1,3
515,1.08406,2.7406,-1,3
516,1.08677,2.7355,-1,3
517,1.08948,2.7302,-1,3
518,1.09218,2.7252,-1,3
519,1.09488,2.7203,-1,3
520,1.09757,2.7153,-1,3
521,1.10026,2.7099,-1,3
522,1.10294,2.705,-1,3
523,1.10562,2.6999,-1,3
524,1.10829,2.6947,-1,3
525,1.11096,2.6902,-1,3
526,1.11363,2.6855,-1,3
527,1.11628,2.6809,-1,3
528,1.11894,2.6763,-1,3
529,1.12159,2.6715,-1,3
530,1.12424,2.6667,-1,3
531,1.12688,2.6624,-1,3
532,1.12952,2.6577,-1,3
533,1.13215,2.6533,-1,3
534,1.13478,2.6488,-1,3
535,1.1374,2.6442,-1,3
536,1.14003,2.6398,-1,3
537,1.14264,2.6357,-1,3
538,1.14525,2.6311,-1,3
539,1.14786,2.627,-1,3
540,1.15047,2.6233,-1,3
541,1.15307,2.6193,-1,3
542,1.15567,2.6153,-1,3
543,1.15827,2.6117,-1,3
544,1.16087,2.6084,-1,3
545,1.16345,2.6049,-1,3
546,1.16604,2.6016,-1,3
547,1.16863,2.5984,-1,3
548,1.17121,2.5953,-1,3
549,1.17379,2.5925,-1,3
550,1.17637,2.5896,-1,3
551,1.17894,2.5868,-1,3
552,1.18152,2.5845,-1,3
553,1.18409,2.5821,-1,3
554,1.18666,2.5797,-1,3
555,1.18923,2.5781,-1,3
556,1.1918,2.5764,-1,3
557,1.19437,2.5744,-1,3
558,1.19694,2.5736,-1,3
559,1.19951,2.5726,-1,3
560,1.20208,2.5716,-1,3
561,1.20465,2.5714,-1,3
562,1.20723,2.5714,-1,3
563,1.2098,2.5713,-1,3
564,1.21238,2.5717,-1,3
565,1.21496,2.5724,-1,3
566,1.22012,2.5738,-1,3
567,1.22271,2.576,-1,3
568,1.2253,2.5777,-1,3
569,1.2279,2.5802,-1,3
570,1.23049,2.5828,-1,3
571,1.23309,2.5853,-1,3
572,1.2357,2.589,-1,3
573,1.23832,2.5937,-1,3
574,1.24094,2.5982,-1,3
575,1.24357,2.6026,-1,3
576,1.2462,2.6076,-1,3
577,1.24884,2.6124,-1,3
578,1.25148,2.6184,-1,3
579,1.25414,2.6245,-1,3
580,1.2568,2.6315,-1,3
581,1.26214,2.6395,-1,3
582,1.26214,2.6469,-1,3
583,1.26483,2.6535,-1,3
584,1.26752,2.6607,-1,3
585,1.27022,2.6683,-1,3
586,1.27293,2.6773,-1,3
587,1.27565,2.687,-1,3
588,1.28113,2.6963,-1,3
589,1.28388,2.7059,-1,3
590,1.28664,2.7152,-1,3
591,1.28942,2.7253,-1,3
592,1.29222,2.7367,-1,3
593,1.29503,2.7496,-1,3
594,1.29786,2.7625,-1,3
595,1.30069,2.7761,-1,3
596,1.30355,2.789,-1,3
597,1.30642,2.8042,-1,3
598,1.3122,2.82,-1,3
599,1.31511,2.8359,-1,3
600,1.31805,2.8538,-1,3
601,1.32101,2.8714,-1,3
602,1.32397,2.8883,-1,3
603,1.32696,2.9052,-1,3
604,1.32997,2.9239,-1,3
605,1.33299,2.9429,-1,3
606,1.33604,2.962,-1,3
607,1.3391,2.9797,-1,3
608,1.34218,2.9976,-1,3
609,1.34528,3.0164,-1,3
610,1.34839,3.0344,-1,3
611,1.35154,3.0531,-1,3
612,1.3547,3.0729,-1,3
613,1.35789,3.0931,-1,3
614,1.3611,3.1131,-1,3
615,1.36432,3.133,-1,3
616,1.36757,3.1533,-1,3
617,1.37084,3.1747,-1,3
618,1.37414,3.1962,-1,3
619,1.37746,3.218,-1,3
620,1.3808,3.2402,-1,3
621,1.38416,3.2623,-1,3
622,1.38755,3.2846,-1,3
623,1.39096,3.3071,-1,3
624,1.3944,3.3301,-1,3
625,1.39786,3.3537,-1,3
626,1.40134,3.3776,-1,3
627,1.40486,3.4012,-1,3
628,1.4084,3.426,-1,3
629,1.41196,3.4506,-1,3
630,1.41555,3.4756,-1,3
631,1.41917,3.5038,-1,3
632,1.42648,3.532,-1,3
633,1.43018,3.5608,-1,3
634,1.43391,3.5896,-1,3
635,1.43766,3.6189,-1,3
636,1.44144,3.6485,-1,3
637,1.44525,3.6783,-1,3
638,1.44909,3.7074,-1,3
639,1.45295,3.7368,-1,3
640,1.45683,3.7662,-1,3
641,1.46074,3.7932,-1,3
642,1.46468,3.8198,-1,3
643,1.46864,3.8484,-1,3
644,1.47263,3.8765,-1,3
645,1.47664,3.9045,-1,3
646,1.48067,3.9297,-1,3
647,1.48472,3.954,-1,3
648,1.4888,3.9809,-1,3
649,1.4929,4.0072,-1,3
650,1.50117,4.0332,-1,3
651,1.50533,4.0582,-1,3
652,1.50952,4.0829,-1,3
653,1.51372,4.105,-1,3
654,1.51795,4.1269,-1,3
655,1.5222,4.148,-1,3
656,1.52646,4.1723,-1,3
657,1.53073,4.1965,-1,3
658,1.53503,4.2174,-1,3
659,1.53934,4.2378,-1,3
660,1.54367,4.2576,-1,3
661,1.55236,4.2763,-1,3
662,1.55672,4.2944,-1,3
663,1.5611,4.3112,-1,3
664,1.56549,4.3273,-1,3
665,1.56988,4.342,-1,3
666,1.57428,4.3547,-1,3
667,1.57869,4.3662,-1,3
668,1.58311,4.3767,-1,3
669,1.58753,4.3865,-1,3
670,1.59196,4.3952,-1,3
671,1.59639,4.403,-1,3
672,1.60082,4.4097,-1,3
673,1.60527,4.4167,-1,3
674,1.60972,4.4232,-1,3
675,1.61417,4.4296,-1,3
676,1.61863,4.4345,-1,3
677,1.62308,4.4388,-1,3
678,1.62753,4.442,-1,3
679,1.63198,4.4451,-1,3
680,1.63644,4.4481,-1,3
681,1.6409,4.4515,-1,3
682,1.64536,4.4542,-1,3
683,1.64982,4.4555,-1,3
684,1.65427,4.4557,-1,3
685,1.65873,4.4553,-1,3
686,1.66318,4.4553,-1,3
687,1.66763,4.4552,-1,3
688,1.67208,4.4553,-1,3
689,1.67652,4.454,-1,3
690,1.68096,4.4518,-1,3
691,1.68539,4.4489,-1,3
692,1.68983,4.4461,-1,3
693,1.69425,4.443,-1,3
694,1.69868,4.4399,-1,3
695,1.70309,4.4362,-1,3
696,1.7075,4.4315,-1,3
697,1.71189,4.4261,-1,3
698,1.71629,4.4208,-1,3
699,1.72068,4.4159,-1,3
700,1.72507,4.4105,-1,3
701,1.72944,4.4046,-1,3
702,1.73381,4.398,-1,3
703,1.73816,4.391,-1,3
704,1.74251,4.3835,-1,3
705,1.75119,4.3755,-1,3
706,1.75551,4.3674,-1,3
707,1.75983,4.3593,-1,3
708,1.76414,4.3501,-1,3
709,1.76843,4.3404,-1,3
710,1.77272,4.331,-1,3
711,1.777,4.3217,-1,3
712,1.78127,4.3123,-1,3
713,1.78553,4.3028,-1,3
714,1.78978,4.2927,-1,3
715,1.79402,4.2834,-1,3
716,1.79825,4.2741,-1,3
717,1.80248,4.265,-1,3
718,1.80669,4.2549,-1,3
719,1.8109,4.2444,-1,3
720,1.81509,4.2347,-1,3
721,1.81927,4.2249,-1,3
722,1.82345,4.2153,-1,3
723,1.82761,4.2057,-1,3
724,1.83177,4.1967,-1,3
725,1.83592,4.1869,-1,3
726,1.84005,4.1772,-1,3
727,1.84418,4.1671,-1,3
728,1.8524,4.1573,-1,3
729,1.85649,4.1478,-1,3
730,1.86058,4.1373,-1,3
731,1.86465,4.1264,-1,3
732,1.86872,4.1153,-1,3
733,1.87278,4.1045,-1,3
734,1.87682,4.0931,-1,3
735,1.88085,4.0819,-1,3
736,1.88487,4.0707,-1,3
737,1.88889,4.0584,-1,3
738,1.89289,4.0468,-1,3
739,1.90086,4.0352,-1,3
740,1.90483,4.0234,-1,3
741,1.90878,4.0116,-1,3
742,1.91273,3.9999,-1,3
743,1.91667,3.9883,-1,3
744,1.9206,3.9769,-1,3
745,1.92452,3.9654,-1,3
746,1.92842,3.9535,-1,3
747,1.93232,3.943,-1,3
748,1.93621,3.9328,-1,3
749,1.94009,3.9227,-1,3
750,1.94395,3.9127,-1,3
751,1.94781,3.9027,-1,3
752,1.95166,3.8924,-1,3
753,1.95549,3.8819,-1,3
754,1.95932,3.8716,-1,3
755,1.96314,3.8617,-1,3
756,1.96694,3.8519,-1,3
757,1.97074,3.8421,-1,3
758,1.97453,3.832,-1,3
759,1.97831,3.8221,-1,3
760,1.98208,3.8123,-1,3
761,1.98583,3.8023,-1,3
762,1.98958,3.7925,-1,3
763,1.99332,3.7828,-1,3
764,1.99705,3.7733,-1,3
765,2.00077,3.7638,-1,3
766,2.00448,3.7544,-1,3
767,2.00819,3.745,-1,3
768,2.01188,3.7358,-1,3
769,2.01556,3.7259,-1,3
770,2.01924,3.7162,-1,3
771,2.0229,3.7068,-1,3
772,2.02655,3.6973,-1,3
773,2.0302,3.6878,-1,3
774,2.03383,3.678,-1,3
775,2.03745,3.6679,-1,3
776,2.04106,3.6578,-1,3
777,2.04466,3.6472,-1,3
778,2.04825,3.6369,-1,3
779,2.05541,3.6261,-1,3
780,2.05897,3.6149,-1,3
781,2.06252,3.6036,-1,3
782,2.06605,3.5921,-1,3
783,2.06958,3.5806,-1,3
784,2.0731,3.5688,-1,3
785,2.0766,3.5572,-1,3
786,2.0801,3.5459,-1,3
787,2.08359,3.5347,-1,3
788,2.08706,3.5231,-1,3
789,2.09052,3.5118,-1,3
790,2.09397,3.5009,-1,3
791,2.09742,3.4888,-1,3
792,2.10084,3.4767,-1,3
793,2.10767,3.4645,-1,3
794,2.11106,3.4525,-1,3
795,2.11445,3.4405,-1,3
796,2.11782,3.4282,-1,3
797,2.12119,3.4158,-1,3
798,2.12454,3.4033,-1,3
799,2.12788,3.3912,-1,3
800,2.1312,3.3787,-1,3
801,2.13452,3.3676,-1,3
802,2.13783,3.3565,-1,3
803,2.14441,3.3441,-1,3
804,2.14768,3.332,-1,3
805,2.15094,3.3197,-1,3
806,2.1542,3.3076,-1,3
807,2.15744,3.2956,-1,3
808,2.16067,3.2838,-1,3
809,2.16389,3.2721,-1,3
810,2.16711,3.2611,-1,3
811,2.17032,3.2498,-1,3
812,2.17351,3.2387,-1,3
813,2.1767,3.2293,-1,3
814,2.17988,3.2199,-1,3
815,2.18305,3.2108,-1,3
816,2.18621,3.2017,-1,3
817,2.18937,3.1929,-1,3
818,2.19251,3.1842,-1,3
819,2.19566,3.1761,-1,3
820,2.19879,3.1678,-1,3
821,2.20192,3.1599,-1,3
822,2.20503,3.1522,-1,3
823,2.20815,3.1446,-1,3
824,2.21125,3.1371,-1,3
825,2.21435,3.1298,-1,3
826,2.21744,3.1227,-1,3
827,2.22053,3.1158,-1,3
828,2.22361,3.1092,-1,3
829,2.22669,3.1032,-1,3
830,2.22977,3.0978,-1,3
831,2.23284,3.0928,-1,3
832,2.23591,3.0881,-1,3
833,2.23897,3.0829,-1,3
834,2.24203,3.0785,-1,3
835,2.2451,3.0749,-1,3
836,2.24816,3.0722,-1,3
837,2.25123,3.07,-1,3
838,2.25428,3.0677,-1,3
839,2.25734,3.065,-1,3
840,2.2604,3.0629,-1,3
