cnt,pos,speed,Dir,Force,
1,0,1.0041,-1,3
2,0.00106001,1.0153,-1,3
3,0.00213003,1.0248,-1,3
4,0.00430012,1.0352,-1,3
5,0.00540996,1.0465,-1,3
6,0.00652003,1.0588,-1,3
7,0.00765014,1.0705,-1,3
8,0.00876999,1.0812,-1,3
9,0.00991011,1.0915,-1,3
10,0.01106,1.1028,-1,3
11,0.0122302,1.1152,-1,3
12,0.0134101,1.1268,-1,3
13,0.01459,1.1375,-1,3
14,0.01578,1.148,-1,3
15,0.0169899,1.1589,-1,3
16,0.0182099,1.169,-1,3
17,0.0194399,1.1791,-1,3
18,0.0206699,1.1899,-1,3
19,0.02192,1.2014,-1,3
20,0.02318,1.212,-1,3
21,0.0244501,1.2217,-1,3
22,0.0257301,1.2318,-1,3
23,0.02702,1.2429,-1,3
24,0.0283201,1.2535,-1,3
25,0.0296299,1.2636,-1,3
26,0.0309501,1.2743,-1,3
27,0.03228,1.2847,-1,3
28,0.03497,1.2962,-1,3
29,0.03634,1.3077,-1,3
30,0.03771,1.319,-1,3
31,0.0390902,1.3304,-1,3
32,0.0404902,1.342,-1,3
33,0.0418901,1.3532,-1,3
34,0.0433002,1.3644,-1,3
35,0.0447299,1.3756,-1,3
36,0.04616,1.3866,-1,3
37,0.0476,1.3981,-1,3
38,0.0505199,1.4092,-1,3
39,0.0505199,1.4196,-1,3
40,0.05199,1.4304,-1,3
41,0.0534701,1.4414,-1,3
42,0.0564702,1.4523,-1,3
43,0.0564702,1.4631,-1,3
44,0.0595,1.474,-1,3
45,0.0610201,1.4843,-1,3
46,0.0625601,1.4948,-1,3
47,0.06411,1.5055,-1,3
48,0.06567,1.5151,-1,3
49,0.06724,1.5249,-1,3
50,0.06882,1.5346,-1,3
51,0.0704,1.5439,-1,3
52,0.072,1.5533,-1,3
53,0.0736001,1.5629,-1,3
54,0.0752201,1.5722,-1,3
55,0.0768402,1.582,-1,3
56,0.07848,1.5917,-1,3
57,0.0801201,1.6006,-1,3
58,0.0817699,1.6094,-1,3
59,0.0850902,1.6189,-1,3
60,0.08676,1.6286,-1,3
61,0.08845,1.6388,-1,3
62,0.0901401,1.6487,-1,3
63,0.09185,1.6586,-1,3
64,0.09356,1.6685,-1,3
65,0.0952799,1.6778,-1,3
66,0.0970101,1.6881,-1,3
67,0.0987501,1.6989,-1,3
68,0.10225,1.7098,-1,3
69,0.10401,1.7193,-1,3
70,0.10577,1.7286,-1,3
71,0.10755,1.7375,-1,3
72,0.10933,1.7457,-1,3
73,0.11112,1.7542,-1,3
74,0.11291,1.7625,-1,3
75,0.11472,1.7714,-1,3
76,0.11653,1.7789,-1,3
77,0.11835,1.7863,-1,3
78,0.12018,1.7935,-1,3
79,0.12386,1.8019,-1,3
80,0.12571,1.8103,-1,3
81,0.12756,1.8181,-1,3
82,0.12942,1.8259,-1,3
83,0.13128,1.833,-1,3
84,0.13314,1.8397,-1,3
85,0.13501,1.8458,-1,3
86,0.13688,1.8517,-1,3
87,0.13876,1.8572,-1,3
88,0.14251,1.8622,-1,3
89,0.1444,1.8662,-1,3
90,0.14628,1.8697,-1,3
91,0.14817,1.8732,-1,3
92,0.15007,1.877,-1,3
93,0.15196,1.8808,-1,3
94,0.15387,1.8853,-1,3
95,0.15579,1.8902,-1,3
96,0.15771,1.8952,-1,3
97,0.15963,1.8994,-1,3
98,0.16155,1.9031,-1,3
99,0.16346,1.9065,-1,3
100,0.16538,1.9098,-1,3
101,0.1673,1.9131,-1,3
102,0.16923,1.916,-1,3
103,0.17115,1.9185,-1,3
104,0.17307,1.9201,-1,3
105,0.17499,1.9205,-1,3
106,0.17691,1.92,-1,3
107,0.18075,1.9201,-1,3
108,0.18267,1.9209,-1,3
109,0.18459,1.9213,-1,3
110,0.18651,1.9211,-1,3
111,0.18843,1.9204,-1,3
112,0.19034,1.9192,-1,3
113,0.19225,1.9178,-1,3
114,0.19416,1.9163,-1,3
115,0.19607,1.9153,-1,3
116,0.19797,1.9138,-1,3
117,0.19987,1.9119,-1,3
118,0.20177,1.9095,-1,3
119,0.20367,1.9068,-1,3
120,0.20745,1.9039,-1,3
121,0.20934,1.901,-1,3
122,0.20934,1.8982,-1,3
123,0.21122,1.8952,-1,3
124,0.2131,1.8923,-1,3
125,0.21497,1.8886,-1,3
126,0.21684,1.8849,-1,3
127,0.2187,1.8812,-1,3
128,0.22057,1.8776,-1,3
129,0.22427,1.8733,-1,3
130,0.22612,1.8689,-1,3
131,0.22796,1.8646,-1,3
132,0.2298,1.86,-1,3
133,0.23163,1.8551,-1,3
134,0.23346,1.8498,-1,3
135,0.23528,1.8445,-1,3
136,0.23709,1.8393,-1,3
137,0.2389,1.834,-1,3
138,0.24071,1.8283,-1,3
139,0.24251,1.8235,-1,3
140,0.2443,1.8185,-1,3
141,0.24609,1.8127,-1,3
142,0.24788,1.8072,-1,3
143,0.25143,1.8017,-1,3
144,0.2532,1.7956,-1,3
145,0.25496,1.7895,-1,3
146,0.25671,1.7837,-1,3
147,0.25847,1.7783,-1,3
148,0.26022,1.7727,-1,3
149,0.26196,1.7663,-1,3
150,0.26369,1.7599,-1,3
151,0.26542,1.7544,-1,3
152,0.26715,1.7494,-1,3
153,0.26887,1.7441,-1,3
154,0.27059,1.7387,-1,3
155,0.27229,1.7332,-1,3
156,0.27399,1.7279,-1,3
157,0.2757,1.7226,-1,3
158,0.27739,1.7173,-1,3
159,0.27908,1.7122,-1,3
160,0.28244,1.7068,-1,3
161,0.28411,1.7014,-1,3
162,0.28579,1.6956,-1,3
163,0.28745,1.6898,-1,3
164,0.28911,1.6841,-1,3
165,0.29076,1.6789,-1,3
166,0.29241,1.6734,-1,3
167,0.29405,1.6679,-1,3
168,0.2957,1.6628,-1,3
169,0.29734,1.6568,-1,3
170,0.30059,1.6514,-1,3
171,0.30221,1.6459,-1,3
172,0.30383,1.641,-1,3
173,0.30545,1.6364,-1,3
174,0.30706,1.6314,-1,3
175,0.30865,1.6259,-1,3
176,0.31025,1.6208,-1,3
177,0.31185,1.6159,-1,3
178,0.31345,1.6113,-1,3
179,0.31504,1.6073,-1,3
180,0.31661,1.6027,-1,3
181,0.31818,1.5977,-1,3
182,0.31976,1.5927,-1,3
183,0.32134,1.5887,-1,3
184,0.32291,1.5856,-1,3
185,0.32447,1.5818,-1,3
186,0.32602,1.5771,-1,3
187,0.32757,1.5725,-1,3
188,0.32913,1.5682,-1,3
189,0.33068,1.5648,-1,3
190,0.33223,1.5615,-1,3
191,0.3353,1.5579,-1,3
192,0.33684,1.5541,-1,3
193,0.33837,1.5496,-1,3
194,0.33989,1.5446,-1,3
195,0.34142,1.5411,-1,3
196,0.34294,1.5384,-1,3
197,0.34446,1.5352,-1,3
198,0.34598,1.5311,-1,3
199,0.34749,1.5271,-1,3
200,0.349,1.5236,-1,3
201,0.35051,1.5215,-1,3
202,0.35203,1.5193,-1,3
203,0.35354,1.516,-1,3
204,0.35504,1.5136,-1,3
205,0.35654,1.5115,-1,3
206,0.35804,1.5095,-1,3
207,0.35955,1.5083,-1,3
208,0.36106,1.5076,-1,3
209,0.36256,1.5059,-1,3
210,0.36405,1.5044,-1,3
211,0.36705,1.5035,-1,3
212,0.36856,1.5027,-1,3
213,0.37006,1.503,-1,3
214,0.37156,1.5027,-1,3
215,0.37306,1.5021,-1,3
216,0.37457,1.5027,-1,3
217,0.37608,1.503,-1,3
218,0.37759,1.5033,-1,3
219,0.3791,1.5043,-1,3
220,0.38061,1.5061,-1,3
221,0.38213,1.5084,-1,3
222,0.38518,1.5103,-1,3
223,0.38671,1.5124,-1,3
224,0.38824,1.5155,-1,3
225,0.38978,1.5201,-1,3
226,0.39133,1.5239,-1,3
227,0.39288,1.5275,-1,3
228,0.39443,1.5316,-1,3
229,0.39599,1.5369,-1,3
230,0.39756,1.5429,-1,3
231,0.39914,1.5483,-1,3
232,0.40072,1.5542,-1,3
233,0.40231,1.5606,-1,3
234,0.40392,1.568,-1,3
235,0.40553,1.5751,-1,3
236,0.40716,1.5831,-1,3
237,0.40879,1.5916,-1,3
238,0.41043,1.6004,-1,3
239,0.41209,1.61,-1,3
240,0.41376,1.6201,-1,3
241,0.41714,1.6317,-1,3
242,0.41885,1.6441,-1,3
243,0.42058,1.6576,-1,3
244,0.42232,1.6719,-1,3
245,0.42408,1.6866,-1,3
246,0.42586,1.7014,-1,3
247,0.42765,1.7171,-1,3
248,0.42946,1.7339,-1,3
249,0.43129,1.7515,-1,3
250,0.43314,1.7694,-1,3
251,0.43501,1.7864,-1,3
252,0.4369,1.8046,-1,3
253,0.44074,1.8256,-1,3
254,0.4427,1.8465,-1,3
255,0.44468,1.8682,-1,3
256,0.44668,1.8911,-1,3
257,0.44871,1.9147,-1,3
258,0.45076,1.939,-1,3
259,0.45284,1.9635,-1,3
260,0.45494,1.9889,-1,3
261,0.45707,2.0152,-1,3
262,0.45923,2.0417,-1,3
263,0.46141,2.0668,-1,3
264,0.46363,2.093,-1,3
265,0.46588,2.12,-1,3
266,0.46815,2.1469,-1,3
267,0.47045,2.1745,-1,3
268,0.47279,2.2029,-1,3
269,0.47516,2.2322,-1,3
270,0.47756,2.2617,-1,3
271,0.47999,2.2916,-1,3
272,0.48495,2.3257,-1,3
273,0.48748,2.3606,-1,3
274,0.49005,2.3956,-1,3
275,0.49265,2.4307,-1,3
276,0.49528,2.467,-1,3
277,0.49796,2.5041,-1,3
278,0.50067,2.5412,-1,3
279,0.50341,2.5788,-1,3
280,0.50619,2.6168,-1,3
281,0.50901,2.6557,-1,3
282,0.51187,2.6917,-1,3
283,0.51476,2.7278,-1,3
284,0.51769,2.7684,-1,3
285,0.52067,2.8094,-1,3
286,0.52672,2.8507,-1,3
287,0.52981,2.8917,-1,3
288,0.53293,2.9334,-1,3
289,0.53609,2.9751,-1,3
290,0.53929,3.017,-1,3
291,0.54253,3.0591,-1,3
292,0.54581,3.1012,-1,3
293,0.54912,3.1429,-1,3
294,0.55247,3.1809,-1,3
295,0.55586,3.2186,-1,3
296,0.55928,3.2559,-1,3
297,0.56274,3.2933,-1,3
298,0.56623,3.3338,-1,3
299,0.56976,3.3705,-1,3
300,0.57332,3.4099,-1,3
301,0.57692,3.4452,-1,3
302,0.58054,3.4801,-1,3
303,0.5842,3.5146,-1,3
304,0.59161,3.5515,-1,3
305,0.59535,3.5875,-1,3
306,0.59913,3.6232,-1,3
307,0.60294,3.6579,-1,3
308,0.60677,3.6886,-1,3
309,0.61063,3.722,-1,3
310,0.61452,3.7516,-1,3
311,0.61843,3.7833,-1,3
312,0.62237,3.8142,-1,3
313,0.62633,3.8444,-1,3
314,0.63031,3.8708,-1,3
315,0.63432,3.8968,-1,3
316,0.63835,3.9218,-1,3
317,0.64239,3.9459,-1,3
318,0.64646,3.9688,-1,3
319,0.65054,3.9906,-1,3
320,0.65464,4.0117,-1,3
321,0.65876,4.0326,-1,3
322,0.6629,4.0528,-1,3
323,0.66705,4.0721,-1,3
324,0.67121,4.09,-1,3
325,0.67539,4.1073,-1,3
326,0.68378,4.1248,-1,3
327,0.68799,4.141,-1,3
328,0.69221,4.1563,-1,3
329,0.69644,4.1713,-1,3
330,0.70069,4.1858,-1,3
331,0.70494,4.199,-1,3
332,0.70919,4.2106,-1,3
333,0.71345,4.2209,-1,3
334,0.71771,4.2309,-1,3
335,0.72198,4.2397,-1,3
336,0.72625,4.2464,-1,3
337,0.73052,4.2523,-1,3
338,0.73478,4.2571,-1,3
339,0.73905,4.2607,-1,3
340,0.74332,4.2629,-1,3
341,0.74758,4.2643,-1,3
342,0.75184,4.2646,-1,3
343,0.75609,4.2648,-1,3
344,0.76035,4.2636,-1,3
345,0.76459,4.2613,-1,3
346,0.76883,4.258,-1,3
347,0.77306,4.2545,-1,3
348,0.77728,4.2503,-1,3
349,0.7815,4.245,-1,3
350,0.7857,4.2387,-1,3
351,0.7899,4.2316,-1,3
352,0.79408,4.2242,-1,3
353,0.79825,4.216,-1,3
354,0.80242,4.2071,-1,3
355,0.80657,4.1979,-1,3
356,0.81071,4.1878,-1,3
357,0.81894,4.1755,-1,3
358,0.82304,4.1628,-1,3
359,0.82712,4.1501,-1,3
360,0.83119,4.1367,-1,3
361,0.83525,4.1231,-1,3
362,0.83929,4.1091,-1,3
363,0.84332,4.0943,-1,3
364,0.84733,4.0794,-1,3
365,0.85134,4.0645,-1,3
366,0.85533,4.0496,-1,3
367,0.8593,4.0349,-1,3
368,0.86721,4.0196,-1,3
369,0.87114,4.004,-1,3
370,0.87506,3.9891,-1,3
371,0.87896,3.9738,-1,3
372,0.88286,3.959,-1,3
373,0.88674,3.9442,-1,3
374,0.89061,3.9295,-1,3
375,0.89446,3.9145,-1,3
376,0.8983,3.8997,-1,3
377,0.90212,3.8859,-1,3
378,0.90593,3.8726,-1,3
379,0.90973,3.8591,-1,3
380,0.91352,3.8457,-1,3
381,0.91729,3.8323,-1,3
382,0.92104,3.8187,-1,3
383,0.92479,3.805,-1,3
384,0.92852,3.7912,-1,3
385,0.93223,3.7774,-1,3
386,0.93594,3.7639,-1,3
387,0.93963,3.7491,-1,3
388,0.94697,3.7343,-1,3
389,0.95062,3.7196,-1,3
390,0.95425,3.7043,-1,3
391,0.95787,3.6894,-1,3
392,0.96148,3.6747,-1,3
393,0.96508,3.6605,-1,3
394,0.96867,3.6461,-1,3
395,0.97224,3.6314,-1,3
396,0.97579,3.6167,-1,3
397,0.97934,3.6034,-1,3
398,0.98287,3.5902,-1,3
399,0.98639,3.5756,-1,3
400,0.99338,3.5613,-1,3
401,0.99686,3.5472,-1,3
402,1.00033,3.5327,-1,3
403,1.00378,3.5183,-1,3
404,1.00722,3.504,-1,3
405,1.01065,3.4899,-1,3
406,1.01407,3.4755,-1,3
407,1.01747,3.4613,-1,3
408,1.02086,3.4472,-1,3
409,1.02424,3.435,-1,3
410,1.02761,3.4226,-1,3
411,1.03096,3.4101,-1,3
412,1.03431,3.3978,-1,3
413,1.03764,3.3853,-1,3
414,1.04095,3.3728,-1,3
415,1.04755,3.3594,-1,3
416,1.04755,3.3459,-1,3
417,1.05083,3.3327,-1,3
418,1.0541,3.3192,-1,3
419,1.0606,3.3056,-1,3
420,1.06383,3.2923,-1,3
421,1.06705,3.2788,-1,3
422,1.07026,3.2648,-1,3
423,1.07345,3.2507,-1,3
424,1.07662,3.2362,-1,3
425,1.07978,3.222,-1,3
426,1.08293,3.2092,-1,3
427,1.08608,3.1966,-1,3
428,1.0892,3.1838,-1,3
429,1.09541,3.1691,-1,3
430,1.0985,3.1545,-1,3
431,1.10158,3.1399,-1,3
432,1.10464,3.1258,-1,3
433,1.10769,3.1118,-1,3
434,1.11073,3.0982,-1,3
435,1.11375,3.0854,-1,3
436,1.11676,3.0717,-1,3
437,1.11976,3.0575,-1,3
438,1.12275,3.0435,-1,3
439,1.12573,3.0313,-1,3
440,1.12869,3.0176,-1,3
441,1.13458,3.0039,-1,3
442,1.13751,2.9903,-1,3
443,1.14042,2.9762,-1,3
444,1.14331,2.9623,-1,3
445,1.1462,2.9485,-1,3
446,1.14907,2.9345,-1,3
447,1.15193,2.9202,-1,3
448,1.15478,2.9066,-1,3
449,1.15762,2.8926,-1,3
450,1.16044,2.8786,-1,3
451,1.16325,2.8647,-1,3
452,1.16884,2.8506,-1,3
453,1.17161,2.837,-1,3
454,1.17161,2.8232,-1,3
455,1.17437,2.8106,-1,3
456,1.17712,2.798,-1,3
457,1.17985,2.7856,-1,3
458,1.18257,2.7727,-1,3
459,1.18528,2.7599,-1,3
460,1.18798,2.7484,-1,3
461,1.19066,2.7368,-1,3
462,1.19333,2.7254,-1,3
463,1.19863,2.7124,-1,3
464,1.20127,2.7002,-1,3
465,1.20389,2.6865,-1,3
466,1.2065,2.6726,-1,3
467,1.2091,2.6586,-1,3
468,1.21168,2.6449,-1,3
469,1.21425,2.6313,-1,3
470,1.21681,2.6175,-1,3
471,1.21936,2.6042,-1,3
472,1.2219,2.5892,-1,3
473,1.22693,2.5759,-1,3
474,1.22943,2.5622,-1,3
475,1.23192,2.5492,-1,3
476,1.2344,2.5363,-1,3
477,1.23687,2.5235,-1,3
478,1.23932,2.5105,-1,3
479,1.24177,2.4979,-1,3
480,1.24421,2.4859,-1,3
481,1.24664,2.4739,-1,3
482,1.24906,2.4639,-1,3
483,1.25147,2.4541,-1,3
484,1.25387,2.4444,-1,3
485,1.25627,2.435,-1,3
486,1.25867,2.4264,-1,3
487,1.26105,2.4183,-1,3
488,1.26343,2.4107,-1,3
489,1.26581,2.4037,-1,3
490,1.26818,2.3975,-1,3
491,1.27056,2.3922,-1,3
492,1.27293,2.3874,-1,3
493,1.27531,2.3841,-1,3
494,1.28008,2.3827,-1,3
495,1.28248,2.3825,-1,3
496,1.28488,2.3835,-1,3
497,1.28729,2.386,-1,3
498,1.28971,2.3898,-1,3
499,1.29213,2.3945,-1,3
500,1.29457,2.4005,-1,3
501,1.29702,2.4078,-1,3
502,1.29948,2.4168,-1,3
503,1.30196,2.4263,-1,3
504,1.30445,2.4364,-1,3
505,1.30695,2.449,-1,3
506,1.31201,2.4625,-1,3
507,1.31457,2.4773,-1,3
508,1.31457,2.4928,-1,3
509,1.31714,2.5077,-1,3
510,1.31973,2.5232,-1,3
511,1.32235,2.5393,-1,3
512,1.32498,2.5561,-1,3
513,1.32763,2.5735,-1,3
514,1.33029,2.5934,-1,3
515,1.3357,2.6126,-1,3
516,1.33844,2.6326,-1,3
517,1.3412,2.6537,-1,3
518,1.344,2.6763,-1,3
519,1.344,2.7014,-1,3
520,1.34683,2.7246,-1,3
521,1.35255,2.7511,-1,3
522,1.35255,2.7779,-1,3
523,1.35838,2.8059,-1,3
524,1.36133,2.8323,-1,3
525,1.36431,2.859,-1,3
526,1.36732,2.8865,-1,3
527,1.37037,2.9144,-1,3
528,1.37345,2.9425,-1,3
529,1.37971,2.9747,-1,3
530,1.37971,3.0097,-1,3
531,1.38608,3.0425,-1,3
532,1.38608,3.0771,-1,3
533,1.39262,3.1131,-1,3
534,1.39594,3.1499,-1,3
535,1.39929,3.1874,-1,3
536,1.40268,3.2248,-1,3
537,1.40611,3.263,-1,3
538,1.40958,3.3019,-1,3
539,1.41309,3.3382,-1,3
540,1.41663,3.3753,-1,3
541,1.42022,3.4137,-1,3
542,1.42385,3.4521,-1,3
543,1.42753,3.4909,-1,3
544,1.43125,3.5306,-1,3
545,1.435,3.5707,-1,3
546,1.4388,3.6118,-1,3
547,1.44264,3.6522,-1,3
548,1.44652,3.6937,-1,3
549,1.45045,3.7363,-1,3
550,1.45443,3.7801,-1,3
551,1.45846,3.8237,-1,3
552,1.46253,3.8676,-1,3
553,1.46664,3.9115,-1,3
554,1.47502,3.9607,-1,3
555,1.47927,4.0106,-1,3
556,1.48357,4.0602,-1,3
557,1.48791,4.1113,-1,3
558,1.4923,4.1617,-1,3
559,1.49673,4.2115,-1,3
560,1.50121,4.2608,-1,3
561,1.50573,4.3104,-1,3
562,1.51029,4.3595,-1,3
563,1.51489,4.4084,-1,3
564,1.51953,4.4512,-1,3
565,1.52421,4.4935,-1,3
566,1.52893,4.5413,-1,3
567,1.5337,4.5883,-1,3
568,1.54337,4.6351,-1,3
569,1.54825,4.6801,-1,3
570,1.54825,4.7239,-1,3
571,1.55316,4.7632,-1,3
572,1.55812,4.8027,-1,3
573,1.56312,4.8419,-1,3
574,1.56815,4.8839,-1,3
575,1.5732,4.9248,-1,3
576,1.58341,4.9594,-1,3
577,1.58856,4.9932,-1,3
578,1.59374,5.0258,-1,3
579,1.59895,5.0586,-1,3
580,1.60419,5.0906,-1,3
581,1.60944,5.1249,-1,3
582,1.61472,5.1573,-1,3
583,1.62002,5.1881,-1,3
584,1.62535,5.2146,-1,3
585,1.63069,5.2399,-1,3
586,1.64142,5.2653,-1,3
587,1.6468,5.2888,-1,3
588,1.65221,5.3111,-1,3
589,1.65763,5.3318,-1,3
590,1.66305,5.3511,-1,3
591,1.66849,5.3696,-1,3
592,1.67394,5.387,-1,3
593,1.6794,5.4022,-1,3
594,1.68487,5.4165,-1,3
595,1.69034,5.4298,-1,3
596,1.69582,5.4404,-1,3
597,1.7013,5.4498,-1,3
598,1.70678,5.4575,-1,3
599,1.71227,5.4645,-1,3
600,1.71776,5.4706,-1,3
601,1.72324,5.4752,-1,3
602,1.72873,5.4785,-1,3
603,1.73422,5.4814,-1,3
604,1.7397,5.4832,-1,3
605,1.74518,5.484,-1,3
606,1.75065,5.4834,-1,3
607,1.76158,5.481,-1,3
608,1.76703,5.4781,-1,3
609,1.77247,5.4736,-1,3
610,1.7779,5.4679,-1,3
611,1.78332,5.4607,-1,3
612,1.78872,5.4523,-1,3
613,1.79411,5.4429,-1,3
614,1.79949,5.4326,-1,3
615,1.80486,5.4209,-1,3
616,1.8102,5.4081,-1,3
617,1.81554,5.3959,-1,3
618,1.82086,5.3814,-1,3
619,1.83146,5.3662,-1,3
620,1.83674,5.3511,-1,3
621,1.842,5.3355,-1,3
622,1.842,5.3199,-1,3
623,1.84725,5.3054,-1,3
624,1.85248,5.2904,-1,3
625,1.8577,5.276,-1,3
626,1.8629,5.2622,-1,3
627,1.8681,5.2479,-1,3
628,1.87327,5.2333,-1,3
629,1.87843,5.2188,-1,3
630,1.88871,5.2041,-1,3
631,1.89383,5.1896,-1,3
632,1.89893,5.1753,-1,3
633,1.90402,5.1598,-1,3
634,1.9091,5.1447,-1,3
635,1.91417,5.1295,-1,3
636,1.91922,5.1143,-1,3
637,1.92427,5.0992,-1,3
638,1.92929,5.0857,-1,3
639,1.93429,5.0715,-1,3
640,1.94425,5.0556,-1,3
641,1.94922,5.0408,-1,3
642,1.95417,5.0258,-1,3
643,1.95911,5.0105,-1,3
644,1.96403,4.9948,-1,3
645,1.96894,4.9784,-1,3
646,1.97383,4.9619,-1,3
647,1.9787,4.9453,-1,3
648,1.98357,4.9296,-1,3
649,1.98843,4.9147,-1,3
650,1.99326,4.9012,-1,3
651,1.99809,4.8869,-1,3
652,2.0029,4.8725,-1,3
653,2.00769,4.8581,-1,3
654,2.01248,4.8444,-1,3
655,2.01725,4.8309,-1,3
656,2.022,4.8175,-1,3
657,2.02675,4.8042,-1,3
658,2.03147,4.7901,-1,3
659,2.03619,4.776,-1,3
660,2.04089,4.7622,-1,3
661,2.04558,4.749,-1,3
662,2.05492,4.7343,-1,3
663,2.05956,4.7194,-1,3
664,2.0642,4.7042,-1,3
665,2.06882,4.6893,-1,3
666,2.07343,4.6749,-1,3
667,2.07803,4.6604,-1,3
668,2.08261,4.6461,-1,3
669,2.08718,4.6315,-1,3
670,2.09174,4.6173,-1,3
671,2.10082,4.6019,-1,3
672,2.10534,4.5877,-1,3
673,2.10985,4.574,-1,3
674,2.11434,4.5597,-1,3
675,2.11882,4.5458,-1,3
676,2.12329,4.5315,-1,3
677,2.12775,4.5176,-1,3
678,2.13219,4.5036,-1,3
679,2.13662,4.4901,-1,3
680,2.14104,4.4759,-1,3
681,2.14544,4.4625,-1,3
682,2.14984,4.4499,-1,3
683,2.15422,4.4376,-1,3
684,2.15859,4.4252,-1,3
685,2.16294,4.4122,-1,3
686,2.16728,4.3994,-1,3
687,2.17161,4.3864,-1,3
688,2.17592,4.3732,-1,3
689,2.18022,4.3598,-1,3
690,2.18451,4.3472,-1,3
691,2.18878,4.3342,-1,3
692,2.19729,4.3193,-1,3
693,2.20152,4.304,-1,3
694,2.20574,4.2891,-1,3
695,2.20995,4.2745,-1,3
696,2.21414,4.2595,-1,3
697,2.21832,4.2446,-1,3
698,2.22248,4.2296,-1,3
699,2.22663,4.2147,-1,3
700,2.23076,4.1991,-1,3
701,2.23899,4.1826,-1,3
702,2.24309,4.1678,-1,3
703,2.24717,4.1525,-1,3
704,2.25123,4.1369,-1,3
705,2.25528,4.1211,-1,3
706,2.25932,4.106,-1,3
707,2.26334,4.0903,-1,3
708,2.26735,4.0751,-1,3
709,2.27135,4.0598,-1,3
710,2.27533,4.0446,-1,3
711,2.2793,4.0307,-1,3
712,2.28325,4.0164,-1,3
713,2.2872,4.0028,-1,3
714,2.29112,3.9893,-1,3
715,2.29504,3.9762,-1,3
716,2.29894,3.9624,-1,3
717,2.30283,3.9492,-1,3
718,2.30671,3.9359,-1,3
719,2.31058,3.9228,-1,3
720,2.31443,3.9096,-1,3
721,2.31826,3.8964,-1,3
722,2.32209,3.8834,-1,3
723,2.3297,3.869,-1,3
724,2.33349,3.8549,-1,3
725,2.33726,3.8403,-1,3
726,2.34101,3.8257,-1,3
727,2.34476,3.811,-1,3
728,2.34849,3.7966,-1,3
729,2.35221,3.7821,-1,3
730,2.35592,3.7679,-1,3
731,2.35961,3.7538,-1,3
732,2.3633,3.7396,-1,3
733,2.37062,3.725,-1,3
734,2.37426,3.7106,-1,3
735,2.37789,3.6965,-1,3
736,2.38151,3.6828,-1,3
737,2.38511,3.6687,-1,3
738,2.3887,3.6544,-1,3
739,2.39228,3.6401,-1,3
740,2.39584,3.6257,-1,3
741,2.39939,3.6114,-1,3
742,2.40293,3.5971,-1,3
743,2.40646,3.5845,-1,3
744,2.40997,3.5716,-1,3
745,2.41348,3.5588,-1,3
746,2.41696,3.5458,-1,3
747,2.42044,3.5328,-1,3
748,2.4239,3.52,-1,3
749,2.42735,3.5069,-1,3
750,2.43078,3.4938,-1,3
751,2.43761,3.4796,-1,3
752,2.44101,3.4658,-1,3
753,2.4444,3.4518,-1,3
754,2.44777,3.4377,-1,3
755,2.45113,3.4232,-1,3
756,2.45447,3.4088,-1,3
757,2.4578,3.3948,-1,3
758,2.46113,3.3809,-1,3
759,2.46444,3.3671,-1,3
760,2.46773,3.3534,-1,3
761,2.47429,3.3399,-1,3
762,2.47429,3.3265,-1,3
763,2.48081,3.3134,-1,3
764,2.48406,3.3009,-1,3
765,2.4873,3.2889,-1,3
766,2.4873,3.2774,-1,3
767,2.49053,3.2671,-1,3
768,2.49375,3.2569,-1,3
769,2.49696,3.2474,-1,3
770,2.50017,3.2386,-1,3
771,2.50337,3.2314,-1,3
772,2.50657,3.2252,-1,3
773,2.50978,3.221,-1,3
774,2.51622,3.219,-1,3
775,2.51946,3.2189,-1,3
776,2.5227,3.2205,-1,3
777,2.52595,3.2224,-1,3
778,2.52921,3.2263,-1,3
779,2.53249,3.2327,-1,3
780,2.53578,3.2412,-1,3
781,2.5391,3.2521,-1,3
782,2.54243,3.2646,-1,3
783,2.54577,3.2779,-1,3
784,2.54914,3.2945,-1,3
785,2.55595,3.3125,-1,3
786,2.5594,3.3327,-1,3
787,2.56289,3.3564,-1,3
788,2.56641,3.3826,-1,3
789,2.56997,3.4114,-1,3
790,2.57357,3.4421,-1,3
791,2.57722,3.4751,-1,3
792,2.5809,3.5105,-1,3
793,2.58463,3.5489,-1,3
794,2.58841,3.5873,-1,3
795,2.59223,3.6279,-1,3
796,2.59611,3.6706,-1,3
797,2.60003,3.7147,-1,3
798,2.60401,3.76,-1,3
799,2.60804,3.8064,-1,3
800,2.61213,3.8552,-1,3
801,2.61628,3.9059,-1,3
802,2.62048,3.9581,-1,3
803,2.62474,4.0108,-1,3
804,2.62906,4.0652,-1,3
805,2.63344,4.1211,-1,3
806,2.63789,4.1783,-1,3
807,2.64239,4.2358,-1,3
808,2.64695,4.2944,-1,3
809,2.65158,4.3536,-1,3
810,2.65626,4.4198,-1,3
811,2.66101,4.486,-1,3
812,2.67069,4.5521,-1,3
813,2.67562,4.6192,-1,3
814,2.68061,4.686,-1,3
815,2.68566,4.7527,-1,3
816,2.69076,4.8179,-1,3
817,2.69592,4.8835,-1,3
818,2.70113,4.9533,-1,3
819,2.70639,5.0172,-1,3
820,2.7117,5.0784,-1,3
821,2.71706,5.1382,-1,3
822,2.72793,5.1974,-1,3
823,2.73344,5.2558,-1,3
824,2.739,5.3129,-1,3
825,2.7446,5.3679,-1,3
826,2.75024,5.4216,-1,3
827,2.75591,5.4732,-1,3
828,2.76162,5.5182,-1,3
829,2.76737,5.5668,-1,3
830,2.77314,5.6083,-1,3
831,2.77896,5.6487,-1,3
832,2.7848,5.6871,-1,3
833,2.79067,5.7229,-1,3
834,2.79657,5.7567,-1,3
835,2.8025,5.7894,-1,3
836,2.80845,5.8208,-1,3
837,2.81442,5.8511,-1,3
838,2.82042,5.8797,-1,3
839,2.82643,5.9062,-1,3
