cnt,pos,speed,Dir,Force,
1,0,1.0138,-1,3
2,0.00112009,1.033,-1,3
3,0.00225973,1.052,-1,3
4,0.00341988,1.0708,-1,3
5,0.00459003,1.0899,-1,3
6,0.00578976,1.1095,-1,3
7,0.00700998,1.1287,-1,3
8,0.00823975,1.1473,-1,3
9,0.00949001,1.1663,-1,3
10,0.0107598,1.1863,-1,3
11,0.0120597,1.2062,-1,3
12,0.01337,1.2246,-1,3
13,0.0146999,1.2434,-1,3
14,0.0160499,1.2631,-1,3
15,0.0174198,1.2828,-1,3
16,0.0187998,1.3016,-1,3
17,0.0202098,1.3206,-1,3
18,0.0216398,1.3401,-1,3
19,0.0230799,1.3598,-1,3
20,0.02455,1.3786,-1,3
21,0.0260301,1.3973,-1,3
22,0.0275397,1.4167,-1,3
23,0.0290599,1.4361,-1,3
24,0.0306001,1.4555,-1,3
25,0.0321598,1.4746,-1,3
26,0.03374,1.4932,-1,3
27,0.0353398,1.5123,-1,3
28,0.0369601,1.5317,-1,3
29,0.03859,1.5511,-1,3
30,0.0402498,1.5701,-1,3
31,0.0419197,1.5885,-1,3
32,0.0436101,1.6072,-1,3
33,0.04531,1.6254,-1,3
34,0.04703,1.6432,-1,3
35,0.04878,1.6623,-1,3
36,0.05056,1.6819,-1,3
37,0.05234,1.7007,-1,3
38,0.0541401,1.7186,-1,3
39,0.0559597,1.7365,-1,3
40,0.0577998,1.7549,-1,3
41,0.05966,1.7742,-1,3
42,0.0615401,1.7928,-1,3
43,0.0634198,1.8113,-1,3
44,0.06532,1.8292,-1,3
45,0.0672498,1.8468,-1,3
46,0.0692,1.8647,-1,3
47,0.0711598,1.8817,-1,3
48,0.0731201,1.8983,-1,3
49,0.07511,1.915,-1,3
50,0.0771098,1.9315,-1,3
51,0.0791297,1.9471,-1,3
52,0.0811701,1.963,-1,3
53,0.08322,1.9793,-1,3
54,0.0852799,1.9959,-1,3
55,0.0873699,2.0114,-1,3
56,0.0894599,2.0255,-1,3
57,0.0915599,2.0399,-1,3
58,0.0936799,2.0556,-1,3
59,0.09582,2.071,-1,3
60,0.09796,2.0851,-1,3
61,0.10011,2.0983,-1,3
62,0.10228,2.1117,-1,3
63,0.10447,2.1249,-1,3
64,0.10666,2.1374,-1,3
65,0.10886,2.149,-1,3
66,0.11107,2.1609,-1,3
67,0.11329,2.1727,-1,3
68,0.11552,2.1836,-1,3
69,0.11776,2.1939,-1,3
70,0.12,2.2041,-1,3
71,0.12225,2.2139,-1,3
72,0.12451,2.2231,-1,3
73,0.12679,2.2322,-1,3
74,0.12906,2.2407,-1,3
75,0.13134,2.2488,-1,3
76,0.13363,2.2566,-1,3
77,0.13593,2.2642,-1,3
78,0.13823,2.271,-1,3
79,0.14053,2.2773,-1,3
80,0.14284,2.2837,-1,3
81,0.14515,2.2903,-1,3
82,0.14747,2.2958,-1,3
83,0.14979,2.3008,-1,3
84,0.15211,2.3053,-1,3
85,0.15444,2.3101,-1,3
86,0.15677,2.3141,-1,3
87,0.15909,2.3167,-1,3
88,0.16142,2.3196,-1,3
89,0.16375,2.3225,-1,3
90,0.16609,2.3257,-1,3
91,0.16843,2.3281,-1,3
92,0.17077,2.3302,-1,3
93,0.17311,2.3317,-1,3
94,0.17545,2.3335,-1,3
95,0.17779,2.3346,-1,3
96,0.18013,2.3357,-1,3
97,0.18247,2.3377,-1,3
98,0.1848,2.3386,-1,3
99,0.18714,2.3387,-1,3
100,0.18947,2.3379,-1,3
101,0.19181,2.3378,-1,3
102,0.19414,2.3371,-1,3
103,0.19647,2.3364,-1,3
104,0.1988,2.3353,-1,3
105,0.20113,2.3342,-1,3
106,0.20345,2.3329,-1,3
107,0.20578,2.3312,-1,3
108,0.2081,2.3293,-1,3
109,0.21041,2.3274,-1,3
110,0.21273,2.3257,-1,3
111,0.21504,2.323,-1,3
112,0.21734,2.3204,-1,3
113,0.21966,2.3183,-1,3
114,0.22196,2.3162,-1,3
115,0.22426,2.3134,-1,3
116,0.22656,2.3103,-1,3
117,0.22886,2.3077,-1,3
118,0.23115,2.3053,-1,3
119,0.23344,2.3029,-1,3
120,0.23573,2.2997,-1,3
121,0.23801,2.2973,-1,3
122,0.2403,2.2951,-1,3
123,0.24257,2.2917,-1,3
124,0.24484,2.2881,-1,3
125,0.24712,2.2853,-1,3
126,0.24938,2.2825,-1,3
127,0.25165,2.2791,-1,3
128,0.25391,2.2757,-1,3
129,0.25616,2.2721,-1,3
130,0.25842,2.2689,-1,3
131,0.26067,2.2652,-1,3
132,0.26291,2.2614,-1,3
133,0.26515,2.2578,-1,3
134,0.26739,2.2544,-1,3
135,0.26962,2.2505,-1,3
136,0.27185,2.2466,-1,3
137,0.27408,2.2427,-1,3
138,0.2763,2.239,-1,3
139,0.27851,2.2351,-1,3
140,0.28073,2.231,-1,3
141,0.28293,2.2268,-1,3
142,0.28514,2.2231,-1,3
143,0.28734,2.2191,-1,3
144,0.28954,2.2153,-1,3
145,0.29174,2.2114,-1,3
146,0.29392,2.2073,-1,3
147,0.2961,2.2029,-1,3
148,0.29829,2.1988,-1,3
149,0.30046,2.1945,-1,3
150,0.30263,2.19,-1,3
151,0.3048,2.1861,-1,3
152,0.30696,2.1823,-1,3
153,0.30912,2.178,-1,3
154,0.31127,2.1727,-1,3
155,0.31342,2.1681,-1,3
156,0.31556,2.1641,-1,3
157,0.31771,2.1601,-1,3
158,0.31984,2.1553,-1,3
159,0.32197,2.1508,-1,3
160,0.32409,2.1466,-1,3
161,0.32621,2.1415,-1,3
162,0.32833,2.1361,-1,3
163,0.33044,2.1315,-1,3
164,0.33255,2.1274,-1,3
165,0.33465,2.1226,-1,3
166,0.33674,2.1172,-1,3
167,0.33883,2.1119,-1,3
168,0.34091,2.107,-1,3
169,0.34299,2.1022,-1,3
170,0.34507,2.0971,-1,3
171,0.34713,2.092,-1,3
172,0.34919,2.0865,-1,3
173,0.35125,2.0808,-1,3
174,0.3533,2.0754,-1,3
175,0.35535,2.0701,-1,3
176,0.35738,2.0644,-1,3
177,0.35941,2.0585,-1,3
178,0.36144,2.0525,-1,3
179,0.36346,2.0467,-1,3
180,0.36547,2.0407,-1,3
181,0.36748,2.0344,-1,3
182,0.36948,2.0284,-1,3
183,0.37148,2.0226,-1,3
184,0.37346,2.0162,-1,3
185,0.37544,2.0096,-1,3
186,0.37741,2.0031,-1,3
187,0.37938,1.9969,-1,3
188,0.38134,1.9902,-1,3
189,0.38329,1.9831,-1,3
190,0.38524,1.9762,-1,3
191,0.38717,1.9695,-1,3
192,0.38911,1.9627,-1,3
193,0.39103,1.9552,-1,3
194,0.39294,1.9477,-1,3
195,0.39485,1.9404,-1,3
196,0.39675,1.9334,-1,3
197,0.39865,1.9264,-1,3
198,0.40053,1.9192,-1,3
199,0.40241,1.9118,-1,3
200,0.40428,1.9043,-1,3
201,0.40615,1.8971,-1,3
202,0.40801,1.8903,-1,3
203,0.40986,1.883,-1,3
204,0.4117,1.8756,-1,3
205,0.41353,1.8684,-1,3
206,0.41536,1.8614,-1,3
207,0.41719,1.8544,-1,3
208,0.41901,1.8475,-1,3
209,0.42081,1.8404,-1,3
210,0.42261,1.8335,-1,3
211,0.42441,1.8266,-1,3
212,0.42621,1.8197,-1,3
213,0.42799,1.8137,-1,3
214,0.42977,1.8077,-1,3
215,0.43154,1.8013,-1,3
216,0.43331,1.7947,-1,3
217,0.43508,1.7885,-1,3
218,0.43684,1.783,-1,3
219,0.4386,1.7782,-1,3
220,0.44035,1.773,-1,3
221,0.44209,1.7674,-1,3
222,0.44383,1.762,-1,3
223,0.44557,1.7579,-1,3
224,0.44731,1.7541,-1,3
225,0.44905,1.7502,-1,3
226,0.45077,1.746,-1,3
227,0.45249,1.7416,-1,3
228,0.45422,1.7383,-1,3
229,0.45595,1.7355,-1,3
230,0.45768,1.733,-1,3
231,0.45939,1.7306,-1,3
232,0.4611,1.7278,-1,3
233,0.46282,1.7246,-1,3
234,0.46454,1.7228,-1,3
235,0.46627,1.7218,-1,3
236,0.46798,1.7212,-1,3
237,0.4697,1.7204,-1,3
238,0.47141,1.7189,-1,3
239,0.47313,1.7178,-1,3
240,0.47485,1.7177,-1,3
241,0.47658,1.7186,-1,3
242,0.4783,1.7197,-1,3
243,0.48002,1.7202,-1,3
244,0.48175,1.7202,-1,3
245,0.48348,1.721,-1,3
246,0.48521,1.7228,-1,3
247,0.48695,1.7252,-1,3
248,0.48868,1.7273,-1,3
249,0.49042,1.7289,-1,3
250,0.49216,1.7308,-1,3
251,0.49391,1.733,-1,3
252,0.49566,1.7356,-1,3
253,0.49742,1.7391,-1,3
254,0.49917,1.7427,-1,3
255,0.50094,1.7462,-1,3
256,0.50271,1.7499,-1,3
257,0.50449,1.7535,-1,3
258,0.50627,1.7583,-1,3
259,0.50806,1.7635,-1,3
260,0.50985,1.7689,-1,3
261,0.51166,1.7748,-1,3
262,0.51347,1.7811,-1,3
263,0.51529,1.7873,-1,3
264,0.51712,1.7941,-1,3
265,0.51895,1.8011,-1,3
266,0.5208,1.8085,-1,3
267,0.52265,1.8168,-1,3
268,0.52452,1.8255,-1,3
269,0.5264,1.8347,-1,3
270,0.52829,1.8438,-1,3
271,0.53019,1.8533,-1,3
272,0.5321,1.8632,-1,3
273,0.53403,1.8742,-1,3
274,0.53597,1.8853,-1,3
275,0.53792,1.8969,-1,3
276,0.53989,1.909,-1,3
277,0.54187,1.9214,-1,3
278,0.54387,1.934,-1,3
279,0.54587,1.9469,-1,3
280,0.5479,1.9607,-1,3
281,0.54994,1.9749,-1,3
282,0.552,1.9894,-1,3
283,0.55407,2.0042,-1,3
284,0.55616,2.0194,-1,3
285,0.55828,2.0355,-1,3
286,0.56041,2.0518,-1,3
287,0.56255,2.0685,-1,3
288,0.56472,2.0856,-1,3
289,0.56691,2.1034,-1,3
290,0.56912,2.1218,-1,3
291,0.57135,2.1405,-1,3
292,0.5736,2.1599,-1,3
293,0.57587,2.1793,-1,3
294,0.57816,2.1996,-1,3
295,0.58048,2.2201,-1,3
296,0.58282,2.2412,-1,3
297,0.58518,2.2626,-1,3
298,0.58757,2.2849,-1,3
299,0.58999,2.3079,-1,3
300,0.59242,2.3309,-1,3
301,0.59489,2.3543,-1,3
302,0.59738,2.3786,-1,3
303,0.5999,2.4037,-1,3
304,0.60245,2.4291,-1,3
305,0.60503,2.4549,-1,3
306,0.60763,2.4812,-1,3
307,0.61026,2.5085,-1,3
308,0.61293,2.5359,-1,3
309,0.61563,2.5641,-1,3
310,0.61835,2.5928,-1,3
311,0.62111,2.6222,-1,3
312,0.6239,2.6515,-1,3
313,0.62672,2.6818,-1,3
314,0.62958,2.7125,-1,3
315,0.63246,2.7437,-1,3
316,0.63538,2.7753,-1,3
317,0.63834,2.8074,-1,3
318,0.64133,2.8397,-1,3
319,0.64435,2.8723,-1,3
320,0.6474,2.9052,-1,3
321,0.6505,2.9384,-1,3
322,0.65362,2.9721,-1,3
323,0.65678,3.0059,-1,3
324,0.65997,3.0398,-1,3
325,0.6632,3.0738,-1,3
326,0.66646,3.1081,-1,3
327,0.66976,3.1423,-1,3
328,0.67309,3.1768,-1,3
329,0.67646,3.2111,-1,3
330,0.67986,3.2456,-1,3
331,0.6833,3.2805,-1,3
332,0.68677,3.315,-1,3
333,0.69027,3.3492,-1,3
334,0.69381,3.3838,-1,3
335,0.69738,3.4182,-1,3
336,0.70099,3.4526,-1,3
337,0.70463,3.4868,-1,3
338,0.7083,3.5207,-1,3
339,0.71201,3.5544,-1,3
340,0.71574,3.588,-1,3
341,0.71951,3.6209,-1,3
342,0.72331,3.6541,-1,3
343,0.72714,3.6864,-1,3
344,0.731,3.7185,-1,3
345,0.73489,3.7502,-1,3
346,0.7388,3.7812,-1,3
347,0.74274,3.8113,-1,3
348,0.74671,3.8409,-1,3
349,0.7507,3.8698,-1,3
350,0.75472,3.8978,-1,3
351,0.75876,3.9251,-1,3
352,0.76283,3.9514,-1,3
353,0.76691,3.9769,-1,3
354,0.77101,4.0011,-1,3
355,0.77513,4.0244,-1,3
356,0.77927,4.0464,-1,3
357,0.78342,4.0677,-1,3
358,0.78759,4.0882,-1,3
359,0.79178,4.1075,-1,3
360,0.79598,4.126,-1,3
361,0.80019,4.1433,-1,3
362,0.80442,4.1594,-1,3
363,0.80865,4.1748,-1,3
364,0.8129,4.1888,-1,3
365,0.81715,4.2024,-1,3
366,0.82142,4.215,-1,3
367,0.82569,4.2268,-1,3
368,0.82996,4.2371,-1,3
369,0.83424,4.2465,-1,3
370,0.83853,4.2548,-1,3
371,0.84282,4.2627,-1,3
372,0.84712,4.2698,-1,3
373,0.85141,4.2759,-1,3
374,0.85571,4.2816,-1,3
375,0.86001,4.2861,-1,3
376,0.86431,4.2897,-1,3
377,0.86861,4.2926,-1,3
378,0.87292,4.2957,-1,3
379,0.87722,4.2981,-1,3
380,0.88152,4.2997,-1,3
381,0.88582,4.2998,-1,3
382,0.89012,4.3002,-1,3
383,0.89441,4.3001,-1,3
384,0.89871,4.3,-1,3
385,0.903,4.2989,-1,3
386,0.90729,4.2979,-1,3
387,0.91158,4.2963,-1,3
388,0.91586,4.2939,-1,3
389,0.92014,4.2913,-1,3
390,0.92441,4.2886,-1,3
391,0.92868,4.2861,-1,3
392,0.93295,4.2828,-1,3
393,0.93721,4.2794,-1,3
394,0.94147,4.2755,-1,3
395,0.94572,4.2712,-1,3
396,0.94996,4.2667,-1,3
397,0.9542,4.262,-1,3
398,0.95843,4.2569,-1,3
399,0.96266,4.2521,-1,3
400,0.96688,4.2472,-1,3
401,0.97109,4.2413,-1,3
402,0.9753,4.235,-1,3
403,0.9795,4.2287,-1,3
404,0.98369,4.2223,-1,3
405,0.98788,4.2162,-1,3
406,0.99205,4.2094,-1,3
407,0.99622,4.2025,-1,3
408,1.00038,4.1952,-1,3
409,1.00453,4.1874,-1,3
410,1.00868,4.1794,-1,3
411,1.01281,4.1722,-1,3
412,1.01694,4.1645,-1,3
413,1.02106,4.1564,-1,3
414,1.02517,4.1476,-1,3
415,1.02927,4.1388,-1,3
416,1.03335,4.1299,-1,3
417,1.03743,4.1209,-1,3
418,1.0415,4.112,-1,3
419,1.04556,4.1029,-1,3
420,1.04961,4.0932,-1,3
421,1.05364,4.0829,-1,3
422,1.05767,4.0727,-1,3
423,1.06168,4.0624,-1,3
424,1.06569,4.0521,-1,3
425,1.06968,4.0414,-1,3
426,1.07366,4.031,-1,3
427,1.07764,4.0204,-1,3
428,1.08159,4.0094,-1,3
429,1.08554,3.9981,-1,3
430,1.08948,3.9873,-1,3
431,1.0934,3.9761,-1,3
432,1.09732,3.965,-1,3
433,1.10122,3.9539,-1,3
434,1.10511,3.9427,-1,3
435,1.10899,3.9315,-1,3
436,1.11286,3.9198,-1,3
437,1.11671,3.9078,-1,3
438,1.12055,3.896,-1,3
439,1.12438,3.8842,-1,3
440,1.1282,3.8722,-1,3
441,1.13201,3.8605,-1,3
442,1.1358,3.8485,-1,3
443,1.13958,3.8363,-1,3
444,1.14335,3.8242,-1,3
445,1.14711,3.8121,-1,3
446,1.15086,3.7998,-1,3
447,1.15459,3.7878,-1,3
448,1.15831,3.7758,-1,3
449,1.16202,3.7636,-1,3
450,1.16571,3.7513,-1,3
451,1.1694,3.7389,-1,3
452,1.17307,3.7266,-1,3
453,1.17672,3.714,-1,3
454,1.18037,3.7011,-1,3
455,1.184,3.6887,-1,3
456,1.18762,3.6764,-1,3
457,1.19123,3.6639,-1,3
458,1.19482,3.6511,-1,3
459,1.1984,3.6383,-1,3
460,1.20197,3.6254,-1,3
461,1.20553,3.613,-1,3
462,1.20907,3.6002,-1,3
463,1.2126,3.5879,-1,3
464,1.21612,3.5751,-1,3
465,1.21962,3.5621,-1,3
466,1.22311,3.5495,-1,3
467,1.22659,3.5366,-1,3
468,1.23006,3.5238,-1,3
469,1.23351,3.5108,-1,3
470,1.23694,3.4976,-1,3
471,1.24037,3.4841,-1,3
472,1.24378,3.4714,-1,3
473,1.24718,3.4582,-1,3
474,1.25057,3.4452,-1,3
475,1.25394,3.4315,-1,3
476,1.25729,3.4178,-1,3
477,1.26064,3.4043,-1,3
478,1.26397,3.3911,-1,3
479,1.26729,3.378,-1,3
480,1.27059,3.3651,-1,3
481,1.27388,3.3516,-1,3
482,1.27716,3.3375,-1,3
483,1.28042,3.3237,-1,3
484,1.28367,3.3105,-1,3
485,1.28691,3.2974,-1,3
486,1.29013,3.2842,-1,3
487,1.29334,3.2706,-1,3
488,1.29654,3.2572,-1,3
489,1.29972,3.2435,-1,3
490,1.3029,3.2302,-1,3
491,1.30605,3.217,-1,3
492,1.3092,3.2039,-1,3
493,1.31232,3.1903,-1,3
494,1.31544,3.1763,-1,3
495,1.31854,3.163,-1,3
496,1.32163,3.1499,-1,3
497,1.32471,3.1371,-1,3
498,1.32778,3.1238,-1,3
499,1.33083,3.1108,-1,3
500,1.33387,3.0975,-1,3
501,1.3369,3.0846,-1,3
502,1.33991,3.0713,-1,3
503,1.34291,3.0589,-1,3
504,1.3459,3.0465,-1,3
505,1.34888,3.0336,-1,3
506,1.35184,3.0208,-1,3
507,1.35479,3.008,-1,3
508,1.35773,2.9954,-1,3
509,1.36066,2.9831,-1,3
510,1.36358,2.9705,-1,3
511,1.36648,2.9581,-1,3
512,1.36937,2.946,-1,3
513,1.37225,2.9337,-1,3
514,1.37512,2.9216,-1,3
515,1.37797,2.91,-1,3
516,1.38082,2.8982,-1,3
517,1.38366,2.8869,-1,3
518,1.38649,2.8756,-1,3
519,1.3893,2.8643,-1,3
520,1.39211,2.8536,-1,3
521,1.3949,2.8427,-1,3
522,1.39769,2.8322,-1,3
523,1.40046,2.8217,-1,3
524,1.40323,2.8119,-1,3
525,1.406,2.8023,-1,3
526,1.40875,2.7928,-1,3
527,1.41149,2.7833,-1,3
528,1.41423,2.7741,-1,3
529,1.41695,2.7652,-1,3
530,1.41967,2.7565,-1,3
531,1.42239,2.7483,-1,3
532,1.42509,2.7404,-1,3
533,1.42779,2.733,-1,3
534,1.43049,2.7258,-1,3
535,1.43318,2.718,-1,3
536,1.43586,2.711,-1,3
537,1.43854,2.7045,-1,3
538,1.44121,2.6983,-1,3
539,1.44388,2.6922,-1,3
540,1.44654,2.6866,-1,3
541,1.4492,2.6813,-1,3
542,1.45185,2.6761,-1,3
543,1.45451,2.6713,-1,3
544,1.45715,2.6662,-1,3
545,1.4598,2.6623,-1,3
546,1.46244,2.6585,-1,3
547,1.46508,2.6548,-1,3
548,1.46772,2.6515,-1,3
549,1.47036,2.6484,-1,3
550,1.473,2.6457,-1,3
551,1.47564,2.6436,-1,3
552,1.47827,2.6419,-1,3
553,1.48091,2.6401,-1,3
554,1.48354,2.6392,-1,3
555,1.48618,2.6386,-1,3
556,1.48882,2.6381,-1,3
557,1.49147,2.6385,-1,3
558,1.49412,2.639,-1,3
559,1.49677,2.6404,-1,3
560,1.49942,2.6419,-1,3
561,1.50208,2.6441,-1,3
562,1.50474,2.6469,-1,3
563,1.50741,2.6502,-1,3
564,1.51008,2.6536,-1,3
565,1.51276,2.6577,-1,3
566,1.51545,2.6624,-1,3
567,1.51815,2.6673,-1,3
568,1.52085,2.6734,-1,3
569,1.52357,2.6801,-1,3
570,1.52629,2.6873,-1,3
571,1.52903,2.6948,-1,3
572,1.53178,2.7034,-1,3
573,1.53454,2.713,-1,3
574,1.53732,2.7233,-1,3
575,1.54011,2.7343,-1,3
576,1.54291,2.7463,-1,3
577,1.54574,2.7591,-1,3
578,1.54858,2.773,-1,3
579,1.55144,2.7875,-1,3
580,1.55432,2.803,-1,3
581,1.55722,2.8197,-1,3
582,1.56015,2.8372,-1,3
583,1.5631,2.8556,-1,3
584,1.56607,2.8753,-1,3
585,1.56906,2.8955,-1,3
586,1.57209,2.9172,-1,3
587,1.57514,2.94,-1,3
588,1.57822,2.9638,-1,3
589,1.58133,2.9886,-1,3
590,1.58447,3.0145,-1,3
591,1.58764,3.0415,-1,3
592,1.59084,3.0694,-1,3
593,1.59408,3.0984,-1,3
594,1.59736,3.129,-1,3
595,1.60067,3.1609,-1,3
596,1.60402,3.1934,-1,3
597,1.60741,3.2273,-1,3
598,1.61084,3.2617,-1,3
599,1.61431,3.2975,-1,3
600,1.61781,3.3338,-1,3
601,1.62135,3.3705,-1,3
602,1.62492,3.4078,-1,3
603,1.62855,3.4462,-1,3
604,1.63221,3.4847,-1,3
605,1.63592,3.5243,-1,3
606,1.63966,3.5639,-1,3
607,1.64345,3.6042,-1,3
608,1.64729,3.645,-1,3
609,1.65117,3.6861,-1,3
610,1.65508,3.7278,-1,3
611,1.65904,3.7701,-1,3
612,1.66305,3.8127,-1,3
613,1.6671,3.8554,-1,3
614,1.67118,3.8978,-1,3
615,1.67531,3.9397,-1,3
616,1.67948,3.9819,-1,3
617,1.68369,4.0235,-1,3
618,1.68793,4.0641,-1,3
619,1.69221,4.1045,-1,3
620,1.69653,4.1446,-1,3
621,1.70088,4.1838,-1,3
622,1.70527,4.2218,-1,3
623,1.70968,4.2585,-1,3
624,1.71413,4.2948,-1,3
625,1.71861,4.33,-1,3
626,1.72312,4.3644,-1,3
627,1.72766,4.3971,-1,3
628,1.73222,4.4294,-1,3
629,1.73681,4.4598,-1,3
630,1.74142,4.4893,-1,3
631,1.74606,4.5178,-1,3
632,1.75072,4.5456,-1,3
633,1.7554,4.5721,-1,3
634,1.7601,4.5976,-1,3
635,1.76483,4.6218,-1,3
636,1.76957,4.6449,-1,3
637,1.77433,4.6673,-1,3
638,1.77911,4.689,-1,3
639,1.78391,4.71,-1,3
640,1.78872,4.7296,-1,3
641,1.79355,4.7486,-1,3
642,1.79839,4.7666,-1,3
643,1.80324,4.7841,-1,3
644,1.80811,4.8005,-1,3
645,1.813,4.8168,-1,3
646,1.81789,4.832,-1,3
647,1.82279,4.8463,-1,3
648,1.8277,4.8593,-1,3
649,1.83262,4.8717,-1,3
650,1.83755,4.8834,-1,3
651,1.84249,4.8944,-1,3
652,1.84744,4.9051,-1,3
653,1.8524,4.9151,-1,3
654,1.85735,4.9242,-1,3
655,1.86232,4.9323,-1,3
656,1.86729,4.9397,-1,3
657,1.87226,4.9469,-1,3
658,1.87724,4.9533,-1,3
659,1.88221,4.9591,-1,3
660,1.88719,4.9642,-1,3
661,1.89217,4.9681,-1,3
662,1.89715,4.971,-1,3
663,1.90213,4.9738,-1,3
664,1.90712,4.9767,-1,3
665,1.91211,4.9787,-1,3
666,1.91708,4.9798,-1,3
667,1.92206,4.9801,-1,3
668,1.92705,4.9812,-1,3
669,1.93203,4.9819,-1,3
670,1.93701,4.9818,-1,3
671,1.94198,4.9811,-1,3
672,1.94695,4.9804,-1,3
673,1.95192,4.9789,-1,3
674,1.95689,4.977,-1,3
675,1.96185,4.9746,-1,3
676,1.96681,4.9726,-1,3
677,1.97176,4.9699,-1,3
678,1.97671,4.9665,-1,3
679,1.98166,4.9627,-1,3
680,1.9866,4.9595,-1,3
681,1.99154,4.956,-1,3
682,1.99647,4.9517,-1,3
683,2.00139,4.9468,-1,3
684,2.00631,4.9417,-1,3
685,2.01122,4.9369,-1,3
686,2.01613,4.9317,-1,3
687,2.02102,4.9264,-1,3
688,2.02591,4.9201,-1,3
689,2.0308,4.914,-1,3
690,2.03568,4.9074,-1,3
691,2.04055,4.9007,-1,3
692,2.04541,4.8944,-1,3
693,2.05027,4.888,-1,3
694,2.05512,4.8808,-1,3
695,2.05996,4.8736,-1,3
696,2.06479,4.8661,-1,3
697,2.06962,4.859,-1,3
698,2.07443,4.8516,-1,3
699,2.07924,4.8436,-1,3
700,2.08403,4.835,-1,3
701,2.08882,4.8267,-1,3
702,2.09359,4.8179,-1,3
703,2.09836,4.8092,-1,3
704,2.10312,4.8,-1,3
705,2.10786,4.7902,-1,3
706,2.11259,4.78,-1,3
707,2.11732,4.7699,-1,3
708,2.12203,4.7599,-1,3
709,2.12673,4.7496,-1,3
710,2.13142,4.739,-1,3
711,2.13609,4.7277,-1,3
712,2.14076,4.7166,-1,3
713,2.14542,4.7059,-1,3
714,2.15007,4.6951,-1,3
715,2.1547,4.684,-1,3
716,2.15932,4.673,-1,3
717,2.16393,4.6612,-1,3
718,2.16852,4.6492,-1,3
719,2.17311,4.6372,-1,3
720,2.17768,4.626,-1,3
721,2.18224,4.615,-1,3
722,2.1868,4.6036,-1,3
723,2.19133,4.5911,-1,3
724,2.19586,4.5792,-1,3
725,2.20037,4.5675,-1,3
726,2.20488,4.5559,-1,3
727,2.20937,4.5442,-1,3
728,2.21385,4.5326,-1,3
729,2.21831,4.5206,-1,3
730,2.22276,4.5081,-1,3
731,2.2272,4.4955,-1,3
732,2.23163,4.4833,-1,3
733,2.23605,4.4715,-1,3
734,2.24046,4.4598,-1,3
735,2.24485,4.4478,-1,3
736,2.24923,4.4356,-1,3
737,2.2536,4.4231,-1,3
738,2.25795,4.4103,-1,3
739,2.26229,4.3976,-1,3
740,2.26661,4.385,-1,3
741,2.27092,4.3728,-1,3
742,2.27523,4.36,-1,3
743,2.27952,4.347,-1,3
744,2.28379,4.3331,-1,3
745,2.28805,4.3199,-1,3
746,2.2923,4.3065,-1,3
747,2.29653,4.2933,-1,3
748,2.30075,4.28,-1,3
749,2.30495,4.267,-1,3
750,2.30914,4.2535,-1,3
751,2.31332,4.24,-1,3
752,2.31749,4.2264,-1,3
753,2.32164,4.2127,-1,3
754,2.32578,4.1992,-1,3
755,2.3299,4.185,-1,3
756,2.33401,4.1711,-1,3
757,2.3381,4.1574,-1,3
758,2.34219,4.1439,-1,3
759,2.34626,4.1302,-1,3
760,2.35031,4.1165,-1,3
761,2.35435,4.1025,-1,3
762,2.35838,4.0884,-1,3
763,2.36239,4.0746,-1,3
764,2.36638,4.0604,-1,3
765,2.37037,4.0466,-1,3
766,2.37434,4.0327,-1,3
767,2.37829,4.0186,-1,3
768,2.38224,4.0049,-1,3
769,2.38617,3.9907,-1,3
770,2.39008,3.9769,-1,3
771,2.39398,3.9627,-1,3
772,2.39787,3.9493,-1,3
773,2.40175,3.9355,-1,3
774,2.40561,3.9225,-1,3
775,2.40946,3.909,-1,3
776,2.41329,3.8955,-1,3
777,2.41712,3.8823,-1,3
778,2.42093,3.8691,-1,3
779,2.42473,3.8565,-1,3
780,2.42852,3.8441,-1,3
781,2.4323,3.8318,-1,3
782,2.43606,3.8192,-1,3
783,2.43981,3.8068,-1,3
784,2.44356,3.7948,-1,3
785,2.44729,3.7834,-1,3
786,2.45102,3.7724,-1,3
787,2.45473,3.7613,-1,3
788,2.45843,3.7503,-1,3
789,2.46213,3.7398,-1,3
790,2.46582,3.7298,-1,3
791,2.4695,3.7201,-1,3
792,2.47316,3.7101,-1,3
793,2.47682,3.7008,-1,3
794,2.48047,3.6916,-1,3
795,2.48412,3.683,-1,3
796,2.48776,3.6742,-1,3
797,2.49139,3.6661,-1,3
798,2.49502,3.6582,-1,3
799,2.49864,3.6505,-1,3
800,2.50225,3.6428,-1,3
801,2.50586,3.6357,-1,3
802,2.50946,3.6291,-1,3
803,2.51305,3.6228,-1,3
804,2.51664,3.6167,-1,3
805,2.52023,3.6107,-1,3
806,2.52381,3.6052,-1,3
807,2.52739,3.5997,-1,3
808,2.53096,3.5945,-1,3
809,2.53453,3.5895,-1,3
810,2.5381,3.5851,-1,3
811,2.54167,3.5813,-1,3
812,2.54524,3.578,-1,3
813,2.5488,3.5747,-1,3
814,2.55236,3.5722,-1,3
815,2.55593,3.5699,-1,3
816,2.5595,3.5685,-1,3
817,2.56307,3.5677,-1,3
818,2.56664,3.5676,-1,3
819,2.57021,3.568,-1,3
820,2.57379,3.5688,-1,3
821,2.57737,3.5702,-1,3
822,2.58096,3.5724,-1,3
823,2.58455,3.5753,-1,3
824,2.58815,3.5785,-1,3
825,2.59175,3.5824,-1,3
826,2.59537,3.5871,-1,3
827,2.59899,3.5925,-1,3
828,2.60262,3.5985,-1,3
829,2.60627,3.6054,-1,3
830,2.60992,3.613,-1,3
831,2.61358,3.6212,-1,3
832,2.61726,3.6299,-1,3
833,2.62095,3.6398,-1,3
834,2.62466,3.6511,-1,3
835,2.62838,3.6629,-1,3
836,2.63212,3.6753,-1,3
837,2.63588,3.6888,-1,3
838,2.63966,3.7033,-1,3
839,2.64345,3.7185,-1,3
840,2.64726,3.7338,-1,3
