cnt,pos,speed,Dir,Force,
1,0,1.8572,-1,3
2,0.00196004,1.875,-1,3
3,0.00393009,1.8929,-1,3
4,0.00592995,1.9105,-1,3
5,0.00793004,1.9279,-1,3
6,0.00995994,1.9455,-1,3
7,0.0120099,1.9639,-1,3
8,0.01407,1.9825,-1,3
9,0.01616,2.0012,-1,3
10,0.01826,2.0197,-1,3
11,0.02039,2.0386,-1,3
12,0.0225301,2.0576,-1,3
13,0.0246999,2.0767,-1,3
14,0.02688,2.0957,-1,3
15,0.0290899,2.1155,-1,3
16,0.0313101,2.1354,-1,3
17,0.03355,2.1549,-1,3
18,0.03582,2.1748,-1,3
19,0.0381,2.1945,-1,3
20,0.04041,2.2144,-1,3
21,0.0427301,2.2339,-1,3
22,0.0450699,2.2541,-1,3
23,0.0474401,2.2739,-1,3
24,0.0498199,2.2938,-1,3
25,0.0522199,2.3134,-1,3
26,0.0546501,2.3336,-1,3
27,0.05709,2.3538,-1,3
28,0.05955,2.3736,-1,3
29,0.0620401,2.3937,-1,3
30,0.0645499,2.4141,-1,3
31,0.06707,2.4344,-1,3
32,0.0696199,2.4544,-1,3
33,0.07218,2.4748,-1,3
34,0.07477,2.4953,-1,3
35,0.0773799,2.5156,-1,3
36,0.0826399,2.5373,-1,3
37,0.0853,2.5589,-1,3
38,0.08798,2.5802,-1,3
39,0.0906699,2.6007,-1,3
40,0.09338,2.6209,-1,3
41,0.0961001,2.6408,-1,3
42,0.09884,2.6597,-1,3
43,0.10159,2.6781,-1,3
44,0.10435,2.6958,-1,3
45,0.10713,2.7128,-1,3
46,0.10992,2.7277,-1,3
47,0.11272,2.7419,-1,3
48,0.11553,2.7556,-1,3
49,0.11836,2.7688,-1,3
50,0.12119,2.7811,-1,3
51,0.12403,2.7929,-1,3
52,0.12688,2.8046,-1,3
53,0.12974,2.8154,-1,3
54,0.13261,2.8259,-1,3
55,0.13549,2.8358,-1,3
56,0.13837,2.8446,-1,3
57,0.14125,2.8529,-1,3
58,0.14414,2.8611,-1,3
59,0.14993,2.8684,-1,3
60,0.14993,2.875,-1,3
61,0.15283,2.8807,-1,3
62,0.15573,2.8854,-1,3
63,0.15863,2.89,-1,3
64,0.16153,2.8932,-1,3
65,0.16733,2.8958,-1,3
66,0.17023,2.8977,-1,3
67,0.17312,2.8985,-1,3
68,0.17602,2.8987,-1,3
69,0.17891,2.898,-1,3
70,0.1818,2.8969,-1,3
71,0.18468,2.8949,-1,3
72,0.18755,2.8925,-1,3
73,0.19042,2.889,-1,3
74,0.19328,2.8851,-1,3
75,0.19614,2.8808,-1,3
76,0.19899,2.876,-1,3
77,0.20183,2.8706,-1,3
78,0.20467,2.8636,-1,3
79,0.20749,2.8563,-1,3
80,0.21031,2.8492,-1,3
81,0.21312,2.842,-1,3
82,0.21592,2.8345,-1,3
83,0.21871,2.8265,-1,3
84,0.22149,2.8181,-1,3
85,0.22425,2.8093,-1,3
86,0.22701,2.8,-1,3
87,0.2325,2.7899,-1,3
88,0.23522,2.7796,-1,3
89,0.23793,2.7691,-1,3
90,0.24063,2.7575,-1,3
91,0.24332,2.7455,-1,3
92,0.24599,2.733,-1,3
93,0.24865,2.7202,-1,3
94,0.2513,2.7072,-1,3
95,0.25394,2.6938,-1,3
96,0.25656,2.6804,-1,3
97,0.25917,2.6675,-1,3
98,0.26435,2.6536,-1,3
99,0.26692,2.6395,-1,3
100,0.26948,2.625,-1,3
101,0.27202,2.6107,-1,3
102,0.27455,2.5963,-1,3
103,0.27707,2.5819,-1,3
104,0.27958,2.5674,-1,3
105,0.28207,2.5531,-1,3
106,0.28455,2.5385,-1,3
107,0.28701,2.524,-1,3
108,0.28946,2.5109,-1,3
109,0.2919,2.4978,-1,3
110,0.29433,2.4848,-1,3
111,0.29674,2.472,-1,3
112,0.29915,2.4593,-1,3
113,0.30153,2.4461,-1,3
114,0.30391,2.4332,-1,3
115,0.30627,2.4201,-1,3
116,0.30862,2.4074,-1,3
117,0.31096,2.3946,-1,3
118,0.31328,2.3818,-1,3
119,0.31559,2.3688,-1,3
120,0.31789,2.3549,-1,3
121,0.32018,2.3408,-1,3
122,0.32471,2.3263,-1,3
123,0.32696,2.3125,-1,3
124,0.32919,2.2986,-1,3
125,0.32919,2.2849,-1,3
126,0.33142,2.2707,-1,3
127,0.33582,2.2569,-1,3
128,0.33801,2.2429,-1,3
129,0.34018,2.2292,-1,3
130,0.34234,2.2166,-1,3
131,0.34449,2.2043,-1,3
132,0.34663,2.1921,-1,3
133,0.34875,2.1794,-1,3
134,0.35086,2.1669,-1,3
135,0.35296,2.1545,-1,3
136,0.35505,2.1425,-1,3
137,0.35712,2.13,-1,3
138,0.35919,2.1177,-1,3
139,0.36327,2.1042,-1,3
140,0.3653,2.0908,-1,3
141,0.36732,2.0773,-1,3
142,0.36932,2.064,-1,3
143,0.37131,2.0504,-1,3
144,0.37131,2.0369,-1,3
145,0.37328,2.0245,-1,3
146,0.37525,2.0127,-1,3
147,0.37721,2.001,-1,3
148,0.37915,1.9886,-1,3
149,0.38107,1.977,-1,3
150,0.3849,1.9654,-1,3
151,0.38679,1.9531,-1,3
152,0.38867,1.9404,-1,3
153,0.39054,1.9289,-1,3
154,0.3924,1.9176,-1,3
155,0.39425,1.9048,-1,3
156,0.39609,1.8911,-1,3
157,0.39791,1.8776,-1,3
158,0.39972,1.8652,-1,3
159,0.40153,1.8539,-1,3
160,0.40332,1.8403,-1,3
161,0.40509,1.8277,-1,3
162,0.40862,1.8161,-1,3
163,0.41037,1.8042,-1,3
164,0.41211,1.7912,-1,3
165,0.41383,1.7783,-1,3
166,0.41554,1.7666,-1,3
167,0.41725,1.7551,-1,3
168,0.41894,1.7427,-1,3
169,0.42062,1.7298,-1,3
170,0.42229,1.7194,-1,3
171,0.42395,1.709,-1,3
172,0.4256,1.6979,-1,3
173,0.42723,1.686,-1,3
174,0.42886,1.6753,-1,3
175,0.43048,1.6654,-1,3
176,0.43209,1.6546,-1,3
177,0.43368,1.6433,-1,3
178,0.43526,1.632,-1,3
179,0.43683,1.6214,-1,3
180,0.4384,1.6116,-1,3
181,0.43996,1.6013,-1,3
182,0.4415,1.5903,-1,3
183,0.44303,1.5801,-1,3
184,0.44456,1.5701,-1,3
185,0.44608,1.5596,-1,3
186,0.4491,1.5486,-1,3
187,0.4491,1.5374,-1,3
188,0.45205,1.5272,-1,3
189,0.45205,1.518,-1,3
190,0.455,1.5075,-1,3
191,0.45646,1.4968,-1,3
192,0.4579,1.487,-1,3
193,0.45933,1.4774,-1,3
194,0.46219,1.4678,-1,3
195,0.46219,1.4583,-1,3
196,0.46361,1.4489,-1,3
197,0.46502,1.4412,-1,3
198,0.46642,1.4337,-1,3
199,0.46782,1.4258,-1,3
200,0.46922,1.4188,-1,3
201,0.47061,1.4122,-1,3
202,0.47199,1.4052,-1,3
203,0.47336,1.3991,-1,3
204,0.4761,1.3932,-1,3
205,0.47747,1.388,-1,3
206,0.47747,1.3838,-1,3
207,0.47883,1.3796,-1,3
208,0.48156,1.3761,-1,3
209,0.48156,1.3726,-1,3
210,0.4843,1.3697,-1,3
211,0.48567,1.3681,-1,3
212,0.48704,1.3682,-1,3
213,0.48842,1.3689,-1,3
214,0.48981,1.3708,-1,3
215,0.49121,1.3741,-1,3
216,0.49402,1.3788,-1,3
217,0.49544,1.3847,-1,3
218,0.49688,1.3917,-1,3
219,0.49833,1.3999,-1,3
220,0.49979,1.4094,-1,3
221,0.50126,1.4193,-1,3
222,0.50274,1.4299,-1,3
223,0.50424,1.4415,-1,3
224,0.50575,1.4539,-1,3
225,0.50729,1.4671,-1,3
226,0.50884,1.4817,-1,3
227,0.51042,1.4975,-1,3
228,0.51202,1.5137,-1,3
229,0.51365,1.5316,-1,3
230,0.5153,1.5509,-1,3
231,0.51698,1.5719,-1,3
232,0.51869,1.5945,-1,3
233,0.52042,1.6182,-1,3
234,0.52397,1.646,-1,3
235,0.5258,1.6753,-1,3
236,0.52767,1.7066,-1,3
237,0.52958,1.7399,-1,3
238,0.53154,1.7763,-1,3
239,0.53354,1.8135,-1,3
240,0.53557,1.8508,-1,3
241,0.53764,1.8896,-1,3
242,0.53976,1.9314,-1,3
243,0.54193,1.9751,-1,3
244,0.54414,2.0204,-1,3
245,0.54868,2.0676,-1,3
246,0.55103,2.1159,-1,3
247,0.55343,2.1644,-1,3
248,0.55587,2.2124,-1,3
249,0.55836,2.2615,-1,3
250,0.56091,2.3132,-1,3
251,0.56351,2.3666,-1,3
252,0.56616,2.4196,-1,3
253,0.56886,2.4723,-1,3
254,0.57162,2.5235,-1,3
255,0.57443,2.5753,-1,3
256,0.5773,2.6268,-1,3
257,0.58021,2.6786,-1,3
258,0.58319,2.7316,-1,3
259,0.58621,2.7849,-1,3
260,0.58928,2.8379,-1,3
261,0.59241,2.8898,-1,3
262,0.59558,2.9416,-1,3
263,0.5988,2.9944,-1,3
264,0.6054,3.0507,-1,3
265,0.60876,3.1057,-1,3
266,0.61218,3.1606,-1,3
267,0.61564,3.2153,-1,3
268,0.61915,3.2691,-1,3
269,0.6227,3.3219,-1,3
270,0.6263,3.3739,-1,3
271,0.62994,3.4259,-1,3
272,0.63362,3.4771,-1,3
273,0.63734,3.5264,-1,3
274,0.6411,3.574,-1,3
275,0.64873,3.6206,-1,3
276,0.65259,3.6653,-1,3
277,0.65648,3.7083,-1,3
278,0.65648,3.7496,-1,3
279,0.6604,3.7867,-1,3
280,0.66436,3.8223,-1,3
281,0.66833,3.856,-1,3
282,0.67233,3.8877,-1,3
283,0.67636,3.9185,-1,3
284,0.68448,3.9459,-1,3
285,0.68857,3.9719,-1,3
286,0.69269,3.9971,-1,3
287,0.69682,4.0214,-1,3
288,0.70097,4.0442,-1,3
289,0.70513,4.0682,-1,3
290,0.70931,4.091,-1,3
291,0.71351,4.113,-1,3
292,0.71773,4.1344,-1,3
293,0.72196,4.1547,-1,3
294,0.7262,4.1721,-1,3
295,0.73046,4.1885,-1,3
296,0.73472,4.2031,-1,3
297,0.74326,4.2176,-1,3
298,0.74755,4.2315,-1,3
299,0.75185,4.2452,-1,3
300,0.75616,4.258,-1,3
301,0.76047,4.269,-1,3
302,0.76478,4.2786,-1,3
303,0.7691,4.2872,-1,3
304,0.77342,4.2948,-1,3
305,0.77774,4.302,-1,3
306,0.78207,4.3091,-1,3
307,0.78641,4.3144,-1,3
308,0.79074,4.3186,-1,3
309,0.79507,4.3219,-1,3
310,0.7994,4.3242,-1,3
311,0.80374,4.3266,-1,3
312,0.80807,4.3289,-1,3
313,0.8124,4.3302,-1,3
314,0.81672,4.3308,-1,3
315,0.82105,4.3306,-1,3
316,0.82537,4.3295,-1,3
317,0.82969,4.3281,-1,3
318,0.83832,4.3261,-1,3
319,0.84262,4.3235,-1,3
320,0.84693,4.3205,-1,3
321,0.85122,4.3169,-1,3
322,0.85552,4.3132,-1,3
323,0.85981,4.3095,-1,3
324,0.86409,4.3055,-1,3
325,0.86837,4.3008,-1,3
326,0.87265,4.296,-1,3
327,0.87691,4.2899,-1,3
328,0.88117,4.284,-1,3
329,0.88966,4.2777,-1,3
330,0.88966,4.2717,-1,3
331,0.89814,4.265,-1,3
332,0.89814,4.2575,-1,3
333,0.90657,4.2495,-1,3
334,0.91077,4.2413,-1,3
335,0.91497,4.2332,-1,3
336,0.91916,4.225,-1,3
337,0.92334,4.2171,-1,3
338,0.92751,4.2086,-1,3
339,0.93167,4.2005,-1,3
340,0.93583,4.1919,-1,3
341,0.93997,4.1834,-1,3
342,0.94411,4.1749,-1,3
343,0.94823,4.1665,-1,3
344,0.95235,4.1576,-1,3
345,0.95645,4.1484,-1,3
346,0.96055,4.1393,-1,3
347,0.96464,4.1293,-1,3
348,0.97279,4.1195,-1,3
349,0.97685,4.1089,-1,3
350,0.9809,4.0985,-1,3
351,0.98494,4.0876,-1,3
352,0.98896,4.0768,-1,3
353,0.99298,4.0656,-1,3
354,0.99699,4.0548,-1,3
355,1.00098,4.0437,-1,3
356,1.00497,4.0324,-1,3
357,1.00894,4.0219,-1,3
358,1.01686,4.01,-1,3
359,1.02079,3.9983,-1,3
360,1.02472,3.986,-1,3
361,1.02864,3.9742,-1,3
362,1.03255,3.9623,-1,3
363,1.03644,3.9502,-1,3
364,1.04032,3.9377,-1,3
365,1.04419,3.9252,-1,3
366,1.04805,3.9125,-1,3
367,1.0519,3.8998,-1,3
368,1.05574,3.8885,-1,3
369,1.05956,3.8767,-1,3
370,1.06337,3.865,-1,3
371,1.06717,3.8529,-1,3
372,1.07096,3.8408,-1,3
373,1.07473,3.8288,-1,3
374,1.07849,3.8169,-1,3
375,1.08225,3.8051,-1,3
376,1.08598,3.793,-1,3
377,1.08971,3.7793,-1,3
378,1.09712,3.7653,-1,3
379,1.1008,3.7516,-1,3
380,1.10448,3.738,-1,3
381,1.10814,3.7248,-1,3
382,1.11179,3.711,-1,3
383,1.11542,3.697,-1,3
384,1.11905,3.6833,-1,3
385,1.12266,3.6694,-1,3
386,1.12626,3.6553,-1,3
387,1.12984,3.6427,-1,3
388,1.13342,3.6304,-1,3
389,1.13698,3.6182,-1,3
390,1.14054,3.606,-1,3
391,1.14407,3.5932,-1,3
392,1.1476,3.5808,-1,3
393,1.15111,3.5686,-1,3
394,1.15461,3.556,-1,3
395,1.1581,3.5432,-1,3
396,1.16157,3.5308,-1,3
397,1.16503,3.5183,-1,3
398,1.16848,3.5056,-1,3
399,1.17191,3.4928,-1,3
400,1.17533,3.4796,-1,3
401,1.17874,3.4666,-1,3
402,1.18213,3.4522,-1,3
403,1.18552,3.4376,-1,3
404,1.19224,3.4232,-1,3
405,1.19224,3.4091,-1,3
406,1.19891,3.3947,-1,3
407,1.20222,3.3802,-1,3
408,1.20553,3.3657,-1,3
409,1.20882,3.3511,-1,3
410,1.21209,3.3367,-1,3
411,1.21536,3.3223,-1,3
412,1.21861,3.3093,-1,3
413,1.22185,3.2964,-1,3
414,1.22507,3.2836,-1,3
415,1.22828,3.2701,-1,3
416,1.23148,3.2568,-1,3
417,1.23466,3.2439,-1,3
418,1.24099,3.2295,-1,3
419,1.24414,3.215,-1,3
420,1.24727,3.2002,-1,3
421,1.25038,3.1858,-1,3
422,1.25349,3.1709,-1,3
423,1.25658,3.1562,-1,3
424,1.25965,3.1411,-1,3
425,1.26272,3.1264,-1,3
426,1.26577,3.112,-1,3
427,1.26881,3.0972,-1,3
428,1.27183,3.0836,-1,3
429,1.27484,3.0701,-1,3
430,1.27783,3.0569,-1,3
431,1.28082,3.0438,-1,3
432,1.28379,3.0305,-1,3
433,1.28675,3.0173,-1,3
434,1.2897,3.0044,-1,3
435,1.29263,2.9916,-1,3
436,1.29555,2.9786,-1,3
437,1.29846,2.966,-1,3
438,1.30136,2.9534,-1,3
439,1.30425,2.941,-1,3
440,1.30712,2.9277,-1,3
441,1.31284,2.9141,-1,3
442,1.31567,2.9008,-1,3
443,1.3185,2.888,-1,3
444,1.32132,2.8747,-1,3
445,1.32412,2.8618,-1,3
446,1.32691,2.8488,-1,3
447,1.32969,2.8357,-1,3
448,1.33247,2.8234,-1,3
449,1.33524,2.8119,-1,3
450,1.338,2.8016,-1,3
451,1.34348,2.7899,-1,3
452,1.34621,2.7788,-1,3
453,1.34893,2.7679,-1,3
454,1.35164,2.7577,-1,3
455,1.35434,2.7473,-1,3
456,1.35703,2.7371,-1,3
457,1.35971,2.727,-1,3
458,1.36238,2.7164,-1,3
459,1.36505,2.7059,-1,3
460,1.36771,2.6957,-1,3
461,1.37035,2.6867,-1,3
462,1.37299,2.6779,-1,3
463,1.37562,2.6686,-1,3
464,1.37824,2.6593,-1,3
465,1.38085,2.6506,-1,3
466,1.38346,2.6427,-1,3
467,1.38606,2.635,-1,3
468,1.38866,2.6278,-1,3
469,1.39125,2.6206,-1,3
470,1.39643,2.6134,-1,3
471,1.39901,2.6071,-1,3
472,1.40159,2.6012,-1,3
473,1.40416,2.5961,-1,3
474,1.40674,2.5915,-1,3
475,1.40931,2.5872,-1,3
476,1.41188,2.5834,-1,3
477,1.41446,2.5805,-1,3
478,1.41703,2.5779,-1,3
479,1.4196,2.5761,-1,3
480,1.42218,2.5754,-1,3
481,1.42476,2.5758,-1,3
482,1.42994,2.5776,-1,3
483,1.43254,2.58,-1,3
484,1.43254,2.5834,-1,3
485,1.43515,2.5871,-1,3
486,1.43777,2.5918,-1,3
487,1.4404,2.5979,-1,3
488,1.44305,2.6057,-1,3
489,1.44572,2.6146,-1,3
490,1.4484,2.6266,-1,3
491,1.45382,2.64,-1,3
492,1.45656,2.6546,-1,3
493,1.45933,2.6712,-1,3
494,1.46212,2.6895,-1,3
495,1.46494,2.7105,-1,3
496,1.46778,2.7329,-1,3
497,1.47065,2.7564,-1,3
498,1.47355,2.7812,-1,3
499,1.47647,2.8075,-1,3
500,1.47943,2.833,-1,3
501,1.48543,2.8624,-1,3
502,1.48848,2.8929,-1,3
503,1.49155,2.9238,-1,3
504,1.49466,2.9557,-1,3
505,1.4978,2.9881,-1,3
506,1.50098,3.0209,-1,3
507,1.50418,3.0546,-1,3
508,1.50743,3.0896,-1,3
509,1.51071,3.125,-1,3
510,1.51403,3.1615,-1,3
511,1.51738,3.1955,-1,3
512,1.52077,3.2297,-1,3
513,1.5242,3.2653,-1,3
514,1.52768,3.3021,-1,3
515,1.5312,3.3399,-1,3
516,1.53477,3.3791,-1,3
517,1.53838,3.4194,-1,3
518,1.54203,3.4598,-1,3
519,1.54573,3.5015,-1,3
520,1.54946,3.5435,-1,3
521,1.55325,3.5901,-1,3
522,1.56093,3.6375,-1,3
523,1.56483,3.6845,-1,3
524,1.56877,3.7303,-1,3
525,1.57274,3.7751,-1,3
526,1.57674,3.8193,-1,3
527,1.58078,3.8619,-1,3
528,1.58484,3.9037,-1,3
529,1.58894,3.9437,-1,3
530,1.59307,3.9826,-1,3
531,1.59722,4.016,-1,3
532,1.60141,4.0479,-1,3
533,1.60562,4.0814,-1,3
534,1.61412,4.1141,-1,3
535,1.61841,4.1465,-1,3
536,1.62273,4.1778,-1,3
537,1.62707,4.2091,-1,3
538,1.63145,4.2396,-1,3
539,1.63584,4.2692,-1,3
540,1.64026,4.2985,-1,3
541,1.64471,4.3278,-1,3
542,1.64918,4.3562,-1,3
543,1.65366,4.3812,-1,3
544,1.65818,4.406,-1,3
545,1.6627,4.4294,-1,3
546,1.66724,4.4513,-1,3
547,1.67179,4.4715,-1,3
548,1.67636,4.4909,-1,3
549,1.68094,4.5094,-1,3
550,1.68553,4.5264,-1,3
551,1.69013,4.5415,-1,3
552,1.69473,4.5556,-1,3
553,1.69935,4.5685,-1,3
554,1.7086,4.5804,-1,3
555,1.71324,4.5915,-1,3
556,1.71788,4.6016,-1,3
557,1.72252,4.6108,-1,3
558,1.72717,4.6186,-1,3
559,1.73182,4.6258,-1,3
560,1.73647,4.632,-1,3
561,1.74113,4.6382,-1,3
562,1.74579,4.6435,-1,3
563,1.75045,4.6479,-1,3
564,1.75978,4.6514,-1,3
565,1.76444,4.6542,-1,3
566,1.76911,4.6567,-1,3
567,1.77377,4.6589,-1,3
568,1.77844,4.6608,-1,3
569,1.7831,4.6617,-1,3
570,1.78776,4.6624,-1,3
571,1.79242,4.6627,-1,3
572,1.79708,4.6622,-1,3
573,1.80173,4.6613,-1,3
574,1.80637,4.6594,-1,3
575,1.81102,4.6574,-1,3
576,1.81566,4.6552,-1,3
577,1.8203,4.6527,-1,3
578,1.82493,4.6491,-1,3
579,1.82955,4.6453,-1,3
580,1.83416,4.6405,-1,3
581,1.84337,4.6343,-1,3
582,1.84797,4.6283,-1,3
583,1.85255,4.6215,-1,3
584,1.85713,4.6144,-1,3
585,1.8617,4.6066,-1,3
586,1.86625,4.5978,-1,3
587,1.8708,4.5886,-1,3
588,1.87533,4.5794,-1,3
589,1.87986,4.5695,-1,3
590,1.88437,4.5595,-1,3
591,1.88887,4.5495,-1,3
592,1.89336,4.5375,-1,3
593,1.9023,4.5257,-1,3
594,1.90675,4.5136,-1,3
595,1.91119,4.5009,-1,3
596,1.91562,4.4883,-1,3
597,1.91562,4.4748,-1,3
598,1.92003,4.4624,-1,3
599,1.92443,4.4502,-1,3
600,1.92882,4.4378,-1,3
601,1.9332,4.4255,-1,3
602,1.94191,4.4125,-1,3
603,1.94624,4.399,-1,3
604,1.95055,4.3854,-1,3
605,1.95486,4.3721,-1,3
606,1.95916,4.3591,-1,3
607,1.96344,4.3458,-1,3
608,1.9677,4.3308,-1,3
609,1.97195,4.3159,-1,3
610,1.97619,4.301,-1,3
611,1.98042,4.2859,-1,3
612,1.98883,4.2715,-1,3
613,1.99302,4.2574,-1,3
614,1.9972,4.2431,-1,3
615,2.00136,4.2284,-1,3
616,2.00551,4.2135,-1,3
617,2.00964,4.1989,-1,3
618,2.01376,4.185,-1,3
619,2.01787,4.1708,-1,3
620,2.02197,4.1568,-1,3
621,2.02606,4.1428,-1,3
622,2.03013,4.1299,-1,3
623,2.03419,4.1168,-1,3
624,2.03823,4.1038,-1,3
625,2.04227,4.0914,-1,3
626,2.04629,4.0789,-1,3
627,2.05031,4.0668,-1,3
628,2.0543,4.0543,-1,3
629,2.05829,4.0419,-1,3
630,2.06226,4.0291,-1,3
631,2.06622,4.0165,-1,3
632,2.07017,4.0042,-1,3
633,2.07411,3.991,-1,3
634,2.08195,3.9777,-1,3
635,2.08585,3.9637,-1,3
636,2.08973,3.9501,-1,3
637,2.09361,3.9363,-1,3
638,2.09747,3.9228,-1,3
639,2.10132,3.9092,-1,3
640,2.10516,3.8959,-1,3
641,2.10899,3.8823,-1,3
642,2.1128,3.8687,-1,3
643,2.1166,3.8561,-1,3
644,2.12039,3.8439,-1,3
645,2.12417,3.8319,-1,3
646,2.12793,3.8198,-1,3
647,2.13169,3.8078,-1,3
648,2.13543,3.7958,-1,3
649,2.13916,3.7839,-1,3
650,2.14288,3.7719,-1,3
651,2.14658,3.7599,-1,3
652,2.15028,3.7478,-1,3
653,2.15395,3.7355,-1,3
654,2.15762,3.7231,-1,3
655,2.16492,3.71,-1,3
656,2.16856,3.6964,-1,3
657,2.17217,3.6826,-1,3
658,2.17578,3.6688,-1,3
659,2.17937,3.655,-1,3
660,2.18295,3.6411,-1,3
661,2.18652,3.6275,-1,3
662,2.19007,3.6137,-1,3
663,2.19362,3.6003,-1,3
664,2.19714,3.585,-1,3
665,2.20416,3.5709,-1,3
666,2.20765,3.557,-1,3
667,2.21113,3.543,-1,3
668,2.21459,3.5291,-1,3
669,2.21804,3.5146,-1,3
670,2.22148,3.5004,-1,3
671,2.2249,3.4859,-1,3
672,2.22831,3.4713,-1,3
673,2.23171,3.4569,-1,3
674,2.23509,3.4438,-1,3
675,2.23846,3.4302,-1,3
676,2.24182,3.4168,-1,3
677,2.24516,3.4037,-1,3
678,2.2485,3.3904,-1,3
679,2.25182,3.3777,-1,3
680,2.25512,3.3643,-1,3
681,2.25841,3.3508,-1,3
682,2.26169,3.3377,-1,3
683,2.26496,3.3245,-1,3
684,2.27146,3.3107,-1,3
685,2.27469,3.2969,-1,3
686,2.27791,3.2828,-1,3
687,2.28111,3.2689,-1,3
688,2.2843,3.2548,-1,3
689,2.28749,3.2412,-1,3
690,2.29066,3.2275,-1,3
691,2.29382,3.2146,-1,3
692,2.29696,3.2016,-1,3
693,2.3001,3.1888,-1,3
694,2.30323,3.1773,-1,3
695,2.30947,3.1656,-1,3
696,2.31257,3.1545,-1,3
697,2.31567,3.1437,-1,3
698,2.31876,3.1334,-1,3
699,2.32185,3.1234,-1,3
700,2.32493,3.1153,-1,3
701,2.32801,3.107,-1,3
702,2.33108,3.0993,-1,3
703,2.33415,3.0922,-1,3
704,2.33722,3.086,-1,3
705,2.34028,3.0813,-1,3
706,2.34335,3.0772,-1,3
707,2.34641,3.074,-1,3
708,2.34948,3.0719,-1,3
709,2.35255,3.0707,-1,3
710,2.35563,3.07,-1,3
711,2.35872,3.0706,-1,3
712,2.36181,3.0725,-1,3
713,2.3649,3.0756,-1,3
714,2.36801,3.0796,-1,3
715,2.37113,3.0859,-1,3
716,2.3774,3.0935,-1,3
717,2.38056,3.1024,-1,3
718,2.38373,3.1128,-1,3
719,2.38692,3.1247,-1,3
720,2.39013,3.1379,-1,3
721,2.39336,3.1529,-1,3
722,2.39662,3.1694,-1,3
723,2.3999,3.1875,-1,3
724,2.40321,3.2074,-1,3
725,2.40654,3.2276,-1,3
726,2.4099,3.2497,-1,3
727,2.41329,3.2737,-1,3
728,2.41672,3.2995,-1,3
729,2.42019,3.3269,-1,3
730,2.42369,3.3561,-1,3
731,2.42724,3.3871,-1,3
732,2.43082,3.42,-1,3
733,2.43445,3.4549,-1,3
734,2.43812,3.4916,-1,3
735,2.44184,3.5308,-1,3
736,2.44561,3.5707,-1,3
737,2.44941,3.6117,-1,3
738,2.45326,3.6534,-1,3
739,2.45715,3.6964,-1,3
740,2.4611,3.7409,-1,3
741,2.46511,3.787,-1,3
742,2.46917,3.8346,-1,3
743,2.47327,3.8825,-1,3
744,2.47743,3.9364,-1,3
745,2.48165,3.9908,-1,3
746,2.49024,4.0473,-1,3
747,2.49462,4.1051,-1,3
748,2.49906,4.1643,-1,3
749,2.50355,4.2237,-1,3
750,2.5081,4.2835,-1,3
751,2.5127,4.3434,-1,3
752,2.51736,4.4034,-1,3
753,2.52208,4.4648,-1,3
754,2.52686,4.5218,-1,3
755,2.5317,4.5851,-1,3
756,2.54156,4.648,-1,3
757,2.54657,4.7106,-1,3
758,2.55163,4.7731,-1,3
759,2.55675,4.8358,-1,3
760,2.56192,4.8986,-1,3
761,2.56715,4.9609,-1,3
762,2.57243,5.0226,-1,3
763,2.57775,5.0825,-1,3
764,2.58312,5.1415,-1,3
765,2.58854,5.1936,-1,3
766,2.59401,5.2447,-1,3
767,2.59951,5.2942,-1,3
768,2.60505,5.3415,-1,3
769,2.61063,5.3877,-1,3
770,2.61624,5.432,-1,3
771,2.62189,5.474,-1,3
772,2.62756,5.5134,-1,3
773,2.63326,5.5516,-1,3
774,2.639,5.5877,-1,3
775,2.64476,5.6215,-1,3
776,2.65053,5.6529,-1,3
777,2.65634,5.6829,-1,3
778,2.66801,5.7138,-1,3
779,2.67387,5.7424,-1,3
780,2.67976,5.7692,-1,3
781,2.68566,5.7945,-1,3
782,2.69157,5.8186,-1,3
783,2.6975,5.8413,-1,3
784,2.70344,5.8623,-1,3
785,2.7094,5.8818,-1,3
786,2.71535,5.8995,-1,3
787,2.72131,5.9149,-1,3
788,2.72728,5.927,-1,3
789,2.73922,5.9378,-1,3
790,2.74518,5.9459,-1,3
791,2.75115,5.9523,-1,3
792,2.75711,5.9576,-1,3
793,2.76308,5.9612,-1,3
794,2.76904,5.9633,-1,3
795,2.775,5.9633,-1,3
796,2.78095,5.963,-1,3
797,2.7869,5.9618,-1,3
798,2.79284,5.9593,-1,3
799,2.79877,5.9555,-1,3
800,2.8047,5.952,-1,3
801,2.81063,5.948,-1,3
802,2.81654,5.9432,-1,3
803,2.82245,5.9369,-1,3
804,2.82834,5.9302,-1,3
805,2.83423,5.9235,-1,3
806,2.84011,5.9161,-1,3
807,2.84598,5.9086,-1,3
808,2.85184,5.9004,-1,3
809,2.85768,5.8914,-1,3
810,2.86934,5.8805,-1,3
811,2.87515,5.8696,-1,3
812,2.88095,5.8576,-1,3
813,2.88673,5.8453,-1,3
814,2.8925,5.8323,-1,3
815,2.89825,5.8195,-1,3
816,2.904,5.8056,-1,3
817,2.90972,5.7909,-1,3
818,2.91543,5.776,-1,3
819,2.92113,5.761,-1,3
820,2.92681,5.7469,-1,3
821,2.93247,5.7322,-1,3
822,2.93812,5.7176,-1,3
823,2.94376,5.703,-1,3
824,2.94938,5.6881,-1,3
825,2.95498,5.6725,-1,3
826,2.96057,5.6576,-1,3
827,2.96615,5.6426,-1,3
828,2.9717,5.6272,-1,3
829,2.97724,5.6116,-1,3
830,2.98277,5.5962,-1,3
831,2.98828,5.5808,-1,3
832,2.99378,5.5655,-1,3
833,2.99926,5.5483,-1,3
834,3.01017,5.5314,-1,3
835,3.0156,5.5149,-1,3
836,3.02102,5.4975,-1,3
837,3.02642,5.48,-1,3
838,3.03181,5.4627,-1,3
839,3.03718,5.446,-1,3
840,3.04254,5.429,-1,3
841,3.04788,5.4122,-1,3
842,3.05321,5.3953,-1,3
