cnt,pos,speed,Dir,Force,
1,0,1.0045,-1,3
2,0.00107002,1.0172,-1,3
3,0.00216007,1.0307,-1,3
4,0.00327015,1.0445,-1,3
5,0.00439,1.0579,-1,3
6,0.00552011,1.0708,-1,3
7,0.00665998,1.0839,-1,3
8,0.00781012,1.0969,-1,3
9,0.00898004,1.1091,-1,3
10,0.01015,1.1207,-1,3
11,0.0113401,1.133,-1,3
12,0.0125401,1.1463,-1,3
13,0.0137501,1.1593,-1,3
14,0.0149801,1.1708,-1,3
15,0.0162101,1.1817,-1,3
16,0.0174501,1.1932,-1,3
17,0.0187001,1.2047,-1,3
18,0.0199699,1.2159,-1,3
19,0.02125,1.227,-1,3
20,0.0225401,1.2387,-1,3
21,0.0238299,1.2498,-1,3
22,0.02513,1.2599,-1,3
23,0.0264502,1.2708,-1,3
24,0.02911,1.2819,-1,3
25,0.0304601,1.2935,-1,3
26,0.03181,1.3046,-1,3
27,0.03317,1.3152,-1,3
28,0.0345302,1.325,-1,3
29,0.0359101,1.3351,-1,3
30,0.0373001,1.3451,-1,3
31,0.0387001,1.3551,-1,3
32,0.0400901,1.3646,-1,3
33,0.0415001,1.3731,-1,3
34,0.0443301,1.3818,-1,3
35,0.0457702,1.3907,-1,3
36,0.04721,1.3993,-1,3
37,0.04865,1.4073,-1,3
38,0.0500901,1.4154,-1,3
39,0.0515501,1.4231,-1,3
40,0.05301,1.4307,-1,3
41,0.0544801,1.4383,-1,3
42,0.0559599,1.446,-1,3
43,0.05743,1.4522,-1,3
44,0.0589101,1.4595,-1,3
45,0.06041,1.4661,-1,3
46,0.06341,1.4724,-1,3
47,0.0649199,1.4788,-1,3
48,0.0664201,1.4849,-1,3
49,0.06794,1.4908,-1,3
50,0.0694602,1.4965,-1,3
51,0.0709901,1.5021,-1,3
52,0.07251,1.507,-1,3
53,0.0740399,1.5125,-1,3
54,0.0755801,1.5166,-1,3
55,0.0771201,1.5207,-1,3
56,0.07866,1.525,-1,3
57,0.08021,1.5289,-1,3
58,0.0817502,1.5338,-1,3
59,0.0833101,1.5377,-1,3
60,0.0848701,1.5414,-1,3
61,0.0864201,1.5445,-1,3
62,0.08798,1.5478,-1,3
63,0.08954,1.551,-1,3
64,0.09111,1.554,-1,3
65,0.09268,1.557,-1,3
66,0.09425,1.5596,-1,3
67,0.09582,1.5622,-1,3
68,0.0973899,1.5645,-1,3
69,0.0989699,1.5673,-1,3
70,0.10055,1.5696,-1,3
71,0.10213,1.5721,-1,3
72,0.10371,1.5743,-1,3
73,0.10529,1.5757,-1,3
74,0.10687,1.5771,-1,3
75,0.10846,1.579,-1,3
76,0.11005,1.5812,-1,3
77,0.11164,1.5825,-1,3
78,0.11322,1.5829,-1,3
79,0.1164,1.584,-1,3
80,0.118,1.5858,-1,3
81,0.118,1.587,-1,3
82,0.11959,1.5887,-1,3
83,0.12118,1.5898,-1,3
84,0.12276,1.5902,-1,3
85,0.12436,1.5906,-1,3
86,0.12596,1.591,-1,3
87,0.12914,1.5913,-1,3
88,0.13073,1.5916,-1,3
89,0.13233,1.5921,-1,3
90,0.13393,1.5921,-1,3
91,0.13552,1.5919,-1,3
92,0.1371,1.5906,-1,3
93,0.13869,1.5904,-1,3
94,0.14028,1.5917,-1,3
95,0.14188,1.592,-1,3
96,0.14505,1.5902,-1,3
97,0.14662,1.5896,-1,3
98,0.14821,1.5899,-1,3
99,0.14981,1.5894,-1,3
100,0.15139,1.5878,-1,3
101,0.15296,1.5854,-1,3
102,0.15453,1.5841,-1,3
103,0.15611,1.5835,-1,3
104,0.15769,1.5821,-1,3
105,0.15927,1.5802,-1,3
106,0.16084,1.5789,-1,3
107,0.1624,1.5771,-1,3
108,0.16396,1.5748,-1,3
109,0.16553,1.5726,-1,3
110,0.1671,1.571,-1,3
111,0.16866,1.5699,-1,3
112,0.17021,1.568,-1,3
113,0.17176,1.5654,-1,3
114,0.17332,1.5628,-1,3
115,0.17488,1.5605,-1,3
116,0.17642,1.5588,-1,3
117,0.17797,1.5569,-1,3
118,0.17951,1.5545,-1,3
119,0.18259,1.5514,-1,3
120,0.18412,1.548,-1,3
121,0.18565,1.5449,-1,3
122,0.18718,1.5426,-1,3
123,0.1887,1.5401,-1,3
124,0.19023,1.5368,-1,3
125,0.19175,1.533,-1,3
126,0.19326,1.5295,-1,3
127,0.19477,1.5266,-1,3
128,0.19629,1.5241,-1,3
129,0.1978,1.5202,-1,3
130,0.1993,1.5165,-1,3
131,0.2023,1.5137,-1,3
132,0.2038,1.5108,-1,3
133,0.2038,1.5076,-1,3
134,0.20529,1.5046,-1,3
135,0.20679,1.5021,-1,3
136,0.20827,1.4989,-1,3
137,0.20975,1.4959,-1,3
138,0.21123,1.4927,-1,3
139,0.21419,1.4899,-1,3
140,0.21566,1.4874,-1,3
141,0.21713,1.4846,-1,3
142,0.2186,1.4817,-1,3
143,0.22007,1.4789,-1,3
144,0.22007,1.4757,-1,3
145,0.22153,1.4722,-1,3
146,0.22299,1.4699,-1,3
147,0.22445,1.4681,-1,3
148,0.22592,1.4661,-1,3
149,0.22882,1.4638,-1,3
150,0.23028,1.4617,-1,3
151,0.23173,1.46,-1,3
152,0.23319,1.4588,-1,3
153,0.23464,1.4576,-1,3
154,0.23609,1.4559,-1,3
155,0.23753,1.4544,-1,3
156,0.23898,1.4534,-1,3
157,0.24043,1.4525,-1,3
158,0.24188,1.4512,-1,3
159,0.24333,1.4507,-1,3
160,0.24622,1.4501,-1,3
161,0.24767,1.45,-1,3
162,0.24913,1.4499,-1,3
163,0.25058,1.4492,-1,3
164,0.25202,1.4494,-1,3
165,0.25348,1.4503,-1,3
166,0.25493,1.4514,-1,3
167,0.2564,1.452,-1,3
168,0.25786,1.4531,-1,3
169,0.25931,1.454,-1,3
170,0.26077,1.4549,-1,3
171,0.26223,1.4562,-1,3
172,0.26371,1.4582,-1,3
173,0.26518,1.4608,-1,3
174,0.26665,1.4628,-1,3
175,0.26812,1.4645,-1,3
176,0.2696,1.4662,-1,3
177,0.27109,1.469,-1,3
178,0.27258,1.4726,-1,3
179,0.27407,1.4761,-1,3
180,0.27705,1.4797,-1,3
181,0.27856,1.4837,-1,3
182,0.28007,1.488,-1,3
183,0.2816,1.4926,-1,3
184,0.28311,1.4971,-1,3
185,0.28462,1.5013,-1,3
186,0.28614,1.5063,-1,3
187,0.28769,1.5117,-1,3
188,0.28924,1.5169,-1,3
189,0.29079,1.5228,-1,3
190,0.29233,1.528,-1,3
191,0.29388,1.5344,-1,3
192,0.29545,1.5407,-1,3
193,0.29861,1.5468,-1,3
194,0.30019,1.5535,-1,3
195,0.30019,1.5607,-1,3
196,0.30178,1.5664,-1,3
197,0.30337,1.572,-1,3
198,0.30499,1.5785,-1,3
199,0.30661,1.5856,-1,3
200,0.30823,1.593,-1,3
201,0.30985,1.5983,-1,3
202,0.31149,1.6037,-1,3
203,0.31313,1.6112,-1,3
204,0.31645,1.619,-1,3
205,0.31811,1.6269,-1,3
206,0.31811,1.636,-1,3
207,0.31979,1.6435,-1,3
208,0.32147,1.6504,-1,3
209,0.32316,1.6576,-1,3
210,0.32486,1.6655,-1,3
211,0.32656,1.6736,-1,3
212,0.32828,1.6815,-1,3
213,0.33,1.6886,-1,3
214,0.33173,1.6962,-1,3
215,0.3352,1.7042,-1,3
216,0.33695,1.712,-1,3
217,0.33695,1.7208,-1,3
218,0.33872,1.7286,-1,3
219,0.34048,1.7363,-1,3
220,0.34226,1.7441,-1,3
221,0.34404,1.7521,-1,3
222,0.34583,1.7594,-1,3
223,0.34763,1.7673,-1,3
224,0.34943,1.7756,-1,3
225,0.35307,1.7835,-1,3
226,0.3549,1.7909,-1,3
227,0.35673,1.7983,-1,3
228,0.35858,1.8065,-1,3
229,0.36043,1.8148,-1,3
230,0.36229,1.8234,-1,3
231,0.36415,1.8313,-1,3
232,0.36603,1.8396,-1,3
233,0.36791,1.8471,-1,3
234,0.3698,1.8542,-1,3
235,0.37359,1.8618,-1,3
236,0.3755,1.8701,-1,3
237,0.37741,1.8782,-1,3
238,0.37934,1.8861,-1,3
239,0.38126,1.8938,-1,3
240,0.3832,1.9012,-1,3
241,0.38514,1.9092,-1,3
242,0.38709,1.9171,-1,3
243,0.38905,1.9246,-1,3
244,0.39101,1.9323,-1,3
245,0.39298,1.9393,-1,3
246,0.39496,1.9461,-1,3
247,0.39694,1.9529,-1,3
248,0.39894,1.96,-1,3
249,0.40093,1.9669,-1,3
250,0.40294,1.9737,-1,3
251,0.40495,1.9806,-1,3
252,0.40697,1.9878,-1,3
253,0.409,1.9952,-1,3
254,0.41103,2.0019,-1,3
255,0.41307,2.0093,-1,3
256,0.41512,2.0166,-1,3
257,0.41718,2.0241,-1,3
258,0.41925,2.0312,-1,3
259,0.42132,2.0385,-1,3
260,0.4234,2.0464,-1,3
261,0.42549,2.0544,-1,3
262,0.42759,2.0618,-1,3
263,0.42969,2.0692,-1,3
264,0.4318,2.0784,-1,3
265,0.43606,2.0875,-1,3
266,0.4382,2.0967,-1,3
267,0.44035,2.1056,-1,3
268,0.44251,2.1151,-1,3
269,0.44468,2.1251,-1,3
270,0.44686,2.1353,-1,3
271,0.44905,2.1449,-1,3
272,0.45125,2.1553,-1,3
273,0.45347,2.1665,-1,3
274,0.45569,2.1766,-1,3
275,0.45793,2.1865,-1,3
276,0.46017,2.1968,-1,3
277,0.46243,2.2081,-1,3
278,0.4647,2.2194,-1,3
279,0.46699,2.2304,-1,3
280,0.46928,2.2417,-1,3
281,0.4716,2.2543,-1,3
282,0.47392,2.2666,-1,3
283,0.47626,2.2787,-1,3
284,0.47861,2.2915,-1,3
285,0.48098,2.3053,-1,3
286,0.48336,2.3188,-1,3
287,0.48575,2.3323,-1,3
288,0.48817,2.3461,-1,3
289,0.49059,2.3605,-1,3
290,0.49304,2.3753,-1,3
291,0.4955,2.3899,-1,3
292,0.49797,2.4049,-1,3
293,0.50046,2.4204,-1,3
294,0.50297,2.4363,-1,3
295,0.5055,2.4522,-1,3
296,0.50805,2.4687,-1,3
297,0.51061,2.4854,-1,3
298,0.51319,2.5028,-1,3
299,0.51579,2.5203,-1,3
300,0.51841,2.5379,-1,3
301,0.52105,2.556,-1,3
302,0.52371,2.5746,-1,3
303,0.52639,2.5934,-1,3
304,0.5291,2.6124,-1,3
305,0.53182,2.6316,-1,3
306,0.53455,2.6508,-1,3
307,0.5401,2.6728,-1,3
308,0.5429,2.6945,-1,3
309,0.54572,2.7166,-1,3
310,0.54857,2.739,-1,3
311,0.55143,2.7616,-1,3
312,0.55432,2.7843,-1,3
313,0.55723,2.8075,-1,3
314,0.56016,2.8302,-1,3
315,0.5631,2.8528,-1,3
316,0.56608,2.8765,-1,3
317,0.56907,2.8977,-1,3
318,0.57209,2.9189,-1,3
319,0.57512,2.9404,-1,3
320,0.57818,2.9618,-1,3
321,0.58126,2.9854,-1,3
322,0.58437,3.0071,-1,3
323,0.58749,3.028,-1,3
324,0.59063,3.0513,-1,3
325,0.59379,3.0755,-1,3
326,0.60018,3.0984,-1,3
327,0.60341,3.1213,-1,3
328,0.60665,3.1443,-1,3
329,0.60991,3.1671,-1,3
330,0.6132,3.1897,-1,3
331,0.6165,3.2097,-1,3
332,0.61982,3.2335,-1,3
333,0.62316,3.2572,-1,3
334,0.62652,3.2784,-1,3
335,0.62989,3.2987,-1,3
336,0.6367,3.3194,-1,3
337,0.64012,3.3393,-1,3
338,0.64356,3.3588,-1,3
339,0.64702,3.3781,-1,3
340,0.65049,3.397,-1,3
341,0.65397,3.4151,-1,3
342,0.65747,3.4306,-1,3
343,0.66098,3.446,-1,3
344,0.6645,3.461,-1,3
345,0.66804,3.4758,-1,3
346,0.67159,3.4899,-1,3
347,0.67516,3.5037,-1,3
348,0.67873,3.5172,-1,3
349,0.68232,3.5301,-1,3
350,0.68591,3.5423,-1,3
351,0.68952,3.5545,-1,3
352,0.69313,3.5665,-1,3
353,0.69676,3.5778,-1,3
354,0.70039,3.5889,-1,3
355,0.70404,3.5993,-1,3
356,0.70769,3.6093,-1,3
357,0.71134,3.6187,-1,3
358,0.71501,3.6275,-1,3
359,0.71868,3.6358,-1,3
360,0.72235,3.6442,-1,3
361,0.72604,3.6519,-1,3
362,0.72972,3.6591,-1,3
363,0.73342,3.6658,-1,3
364,0.73711,3.6721,-1,3
365,0.74082,3.6782,-1,3
366,0.74452,3.6833,-1,3
367,0.74823,3.6883,-1,3
368,0.75194,3.6932,-1,3
369,0.75565,3.698,-1,3
370,0.75937,3.702,-1,3
371,0.76309,3.7056,-1,3
372,0.76682,3.7092,-1,3
373,0.77426,3.7126,-1,3
374,0.77426,3.715,-1,3
375,0.78171,3.7173,-1,3
376,0.78544,3.7194,-1,3
377,0.78916,3.7215,-1,3
378,0.79288,3.7225,-1,3
379,0.79661,3.723,-1,3
380,0.80032,3.7227,-1,3
381,0.80404,3.722,-1,3
382,0.81146,3.721,-1,3
383,0.81517,3.7193,-1,3
384,0.81888,3.7175,-1,3
385,0.82258,3.7152,-1,3
386,0.82628,3.7128,-1,3
387,0.82997,3.7095,-1,3
388,0.83366,3.7064,-1,3
389,0.83735,3.7031,-1,3
390,0.84104,3.7002,-1,3
391,0.84472,3.697,-1,3
392,0.84839,3.693,-1,3
393,0.85207,3.6892,-1,3
394,0.85573,3.6851,-1,3
395,0.85939,3.6809,-1,3
396,0.86305,3.6765,-1,3
397,0.8667,3.6725,-1,3
398,0.87035,3.6682,-1,3
399,0.87399,3.6633,-1,3
400,0.87762,3.658,-1,3
401,0.88125,3.653,-1,3
402,0.88487,3.6478,-1,3
403,0.8921,3.6417,-1,3
404,0.8921,3.6361,-1,3
405,0.89931,3.6299,-1,3
406,0.9029,3.6236,-1,3
407,0.90649,3.6171,-1,3
408,0.91007,3.6108,-1,3
409,0.91365,3.6045,-1,3
410,0.91722,3.598,-1,3
411,0.92078,3.5909,-1,3
412,0.9279,3.5844,-1,3
413,0.93145,3.5783,-1,3
414,0.935,3.5722,-1,3
415,0.93853,3.5661,-1,3
416,0.94207,3.5602,-1,3
417,0.94559,3.554,-1,3
418,0.94912,3.548,-1,3
419,0.95264,3.5421,-1,3
420,0.95615,3.5364,-1,3
421,0.95965,3.5311,-1,3
422,0.96316,3.5259,-1,3
423,0.96666,3.5212,-1,3
424,0.97015,3.5159,-1,3
425,0.97364,3.5108,-1,3
426,0.97712,3.5058,-1,3
427,0.9806,3.501,-1,3
428,0.98408,3.4967,-1,3
429,0.98755,3.4919,-1,3
430,0.99102,3.4874,-1,3
431,0.99448,3.4826,-1,3
432,0.99794,3.4777,-1,3
433,1.00139,3.4726,-1,3
434,1.00483,3.4681,-1,3
435,1.00828,3.4639,-1,3
436,1.01172,3.4596,-1,3
437,1.01515,3.4548,-1,3
438,1.01858,3.4496,-1,3
439,1.02201,3.4453,-1,3
440,1.02543,3.4406,-1,3
441,1.02884,3.4364,-1,3
442,1.03225,3.4315,-1,3
443,1.03565,3.4267,-1,3
444,1.03905,3.422,-1,3
445,1.04245,3.417,-1,3
446,1.04584,3.412,-1,3
447,1.04923,3.4076,-1,3
448,1.0526,3.4023,-1,3
449,1.05598,3.3968,-1,3
450,1.05934,3.3911,-1,3
451,1.06605,3.385,-1,3
452,1.0694,3.3791,-1,3
453,1.07274,3.3725,-1,3
454,1.07607,3.3655,-1,3
455,1.07939,3.3585,-1,3
456,1.08271,3.3515,-1,3
457,1.08602,3.3439,-1,3
458,1.08933,3.3364,-1,3
459,1.09263,3.3292,-1,3
460,1.09592,3.3221,-1,3
461,1.0992,3.3153,-1,3
462,1.10248,3.3082,-1,3
463,1.10575,3.3016,-1,3
464,1.10902,3.2949,-1,3
465,1.11228,3.2883,-1,3
466,1.11553,3.2817,-1,3
467,1.11878,3.2753,-1,3
468,1.12202,3.2692,-1,3
469,1.12526,3.2631,-1,3
470,1.12848,3.2567,-1,3
471,1.13171,3.2503,-1,3
472,1.13492,3.2436,-1,3
473,1.13813,3.2368,-1,3
474,1.14454,3.2304,-1,3
475,1.14773,3.2238,-1,3
476,1.15092,3.2174,-1,3
477,1.1541,3.2111,-1,3
478,1.15728,3.2047,-1,3
479,1.16045,3.1981,-1,3
480,1.16362,3.192,-1,3
481,1.16678,3.1854,-1,3
482,1.16993,3.1797,-1,3
483,1.17308,3.1742,-1,3
484,1.17622,3.1684,-1,3
485,1.1825,3.1626,-1,3
486,1.18563,3.1568,-1,3
487,1.18876,3.151,-1,3
488,1.19188,3.1457,-1,3
489,1.195,3.1404,-1,3
490,1.19812,3.1354,-1,3
491,1.20123,3.1309,-1,3
492,1.20434,3.1266,-1,3
493,1.20745,3.1225,-1,3
494,1.21055,3.1187,-1,3
495,1.21365,3.1148,-1,3
496,1.21675,3.1113,-1,3
497,1.21984,3.108,-1,3
498,1.22293,3.1045,-1,3
499,1.22601,3.1011,-1,3
500,1.22909,3.0975,-1,3
501,1.23217,3.0942,-1,3
502,1.23526,3.0914,-1,3
503,1.23833,3.0885,-1,3
504,1.24141,3.0854,-1,3
505,1.24448,3.083,-1,3
506,1.24755,3.0803,-1,3
507,1.25062,3.0777,-1,3
508,1.25368,3.0755,-1,3
509,1.25675,3.0735,-1,3
510,1.25981,3.0719,-1,3
511,1.26288,3.0705,-1,3
512,1.26594,3.0688,-1,3
513,1.269,3.0672,-1,3
514,1.27206,3.066,-1,3
515,1.27513,3.0649,-1,3
516,1.27819,3.0638,-1,3
517,1.28124,3.063,-1,3
518,1.2843,3.0623,-1,3
519,1.28736,3.0618,-1,3
520,1.29042,3.0611,-1,3
521,1.29348,3.0607,-1,3
522,1.29654,3.0603,-1,3
523,1.30267,3.0604,-1,3
524,1.30573,3.0606,-1,3
525,1.3088,3.0609,-1,3
526,1.31186,3.0618,-1,3
527,1.31493,3.0626,-1,3
528,1.318,3.0637,-1,3
529,1.32108,3.065,-1,3
530,1.32415,3.0668,-1,3
531,1.32723,3.0687,-1,3
532,1.33031,3.0708,-1,3
533,1.3334,3.0731,-1,3
534,1.33649,3.0757,-1,3
535,1.33958,3.0787,-1,3
536,1.34577,3.0818,-1,3
537,1.34887,3.0855,-1,3
538,1.34887,3.0895,-1,3
539,1.35199,3.0934,-1,3
540,1.3551,3.0971,-1,3
541,1.35822,3.1013,-1,3
542,1.36135,3.1058,-1,3
543,1.36448,3.1103,-1,3
544,1.36762,3.1154,-1,3
545,1.37076,3.1213,-1,3
546,1.37708,3.1276,-1,3
547,1.38025,3.1343,-1,3
548,1.38343,3.1411,-1,3
549,1.38662,3.1486,-1,3
550,1.38662,3.157,-1,3
551,1.38982,3.1658,-1,3
552,1.39303,3.1741,-1,3
553,1.39624,3.1828,-1,3
554,1.39947,3.1918,-1,3
555,1.40597,3.2021,-1,3
556,1.40924,3.2126,-1,3
557,1.41252,3.2233,-1,3
558,1.41581,3.2347,-1,3
559,1.41911,3.2466,-1,3
560,1.42244,3.2591,-1,3
561,1.42577,3.2719,-1,3
562,1.42913,3.2861,-1,3
563,1.4325,3.3013,-1,3
564,1.43588,3.3168,-1,3
565,1.43928,3.3333,-1,3
566,1.44614,3.3504,-1,3
567,1.4496,3.3684,-1,3
568,1.45308,3.3868,-1,3
569,1.45657,3.4056,-1,3
570,1.46009,3.425,-1,3
571,1.46363,3.445,-1,3
572,1.46718,3.4655,-1,3
573,1.47076,3.4864,-1,3
574,1.47436,3.5078,-1,3
575,1.47798,3.5279,-1,3
576,1.48163,3.5484,-1,3
577,1.48529,3.569,-1,3
578,1.48898,3.5901,-1,3
579,1.49269,3.6119,-1,3
580,1.49642,3.6334,-1,3
581,1.50018,3.6553,-1,3
582,1.50395,3.6771,-1,3
583,1.50775,3.6992,-1,3
584,1.51158,3.7216,-1,3
585,1.51542,3.7441,-1,3
586,1.5193,3.767,-1,3
587,1.52319,3.7901,-1,3
588,1.52711,3.8134,-1,3
589,1.53105,3.8365,-1,3
590,1.53502,3.86,-1,3
591,1.53901,3.8837,-1,3
592,1.54303,3.908,-1,3
593,1.54708,3.9324,-1,3
594,1.55115,3.9571,-1,3
595,1.55524,3.9818,-1,3
596,1.55936,4.0064,-1,3
597,1.5635,4.0311,-1,3
598,1.56767,4.0563,-1,3
599,1.57187,4.0814,-1,3
600,1.57609,4.1071,-1,3
601,1.58461,4.1352,-1,3
602,1.58461,4.1632,-1,3
603,1.59323,4.1913,-1,3
604,1.59758,4.219,-1,3
605,1.60196,4.2471,-1,3
606,1.60196,4.2755,-1,3
607,1.61079,4.304,-1,3
608,1.61524,4.3319,-1,3
609,1.61971,4.36,-1,3
610,1.62421,4.3874,-1,3
611,1.62873,4.4121,-1,3
612,1.63328,4.4368,-1,3
613,1.63784,4.4609,-1,3
614,1.64243,4.4853,-1,3
615,1.64705,4.5088,-1,3
616,1.65167,4.5314,-1,3
617,1.65632,4.5532,-1,3
618,1.66099,4.5749,-1,3
619,1.66567,4.5961,-1,3
620,1.67038,4.6168,-1,3
621,1.6751,4.6366,-1,3
622,1.67983,4.6557,-1,3
623,1.68458,4.674,-1,3
624,1.68935,4.6912,-1,3
625,1.69412,4.7076,-1,3
626,1.69891,4.725,-1,3
627,1.70372,4.7417,-1,3
628,1.71335,4.7567,-1,3
629,1.71817,4.7707,-1,3
630,1.72301,4.7842,-1,3
631,1.72786,4.7968,-1,3
632,1.73271,4.8081,-1,3
633,1.73756,4.8186,-1,3
634,1.74242,4.8287,-1,3
635,1.74728,4.8376,-1,3
636,1.75214,4.8443,-1,3
637,1.76189,4.8504,-1,3
638,1.76676,4.8555,-1,3
639,1.77163,4.8598,-1,3
640,1.7765,4.863,-1,3
641,1.78137,4.8653,-1,3
642,1.78624,4.8674,-1,3
643,1.7911,4.8687,-1,3
644,1.79596,4.8683,-1,3
645,1.80082,4.8677,-1,3
646,1.80568,4.8662,-1,3
647,1.81053,4.8646,-1,3
648,1.81538,4.8626,-1,3
649,1.82023,4.8598,-1,3
650,1.82506,4.8561,-1,3
651,1.82989,4.8523,-1,3
652,1.83472,4.8477,-1,3
653,1.83954,4.8431,-1,3
654,1.84435,4.8381,-1,3
655,1.84915,4.8329,-1,3
656,1.85395,4.8269,-1,3
657,1.85873,4.8199,-1,3
658,1.86351,4.8126,-1,3
659,1.86828,4.8053,-1,3
660,1.87304,4.7978,-1,3
661,1.87779,4.7899,-1,3
662,1.88253,4.7812,-1,3
663,1.88725,4.7718,-1,3
664,1.89198,4.7629,-1,3
665,1.89669,4.7537,-1,3
666,1.90139,4.7444,-1,3
667,1.90608,4.7344,-1,3
668,1.91075,4.7244,-1,3
669,1.91542,4.7137,-1,3
670,1.92007,4.7034,-1,3
671,1.92472,4.6928,-1,3
672,1.92935,4.6825,-1,3
673,1.93397,4.6718,-1,3
674,1.93858,4.6603,-1,3
675,1.94318,4.6484,-1,3
676,1.94777,4.636,-1,3
677,1.95234,4.625,-1,3
678,1.95691,4.6119,-1,3
679,1.96145,4.5991,-1,3
680,1.97051,4.5857,-1,3
681,1.97503,4.5728,-1,3
682,1.97953,4.5598,-1,3
683,1.98402,4.5467,-1,3
684,1.9885,4.5339,-1,3
685,1.99296,4.5208,-1,3
686,1.99741,4.5073,-1,3
687,2.00186,4.4938,-1,3
688,2.00629,4.4826,-1,3
689,2.01071,4.4715,-1,3
690,2.01952,4.4588,-1,3
691,2.0239,4.4456,-1,3
692,2.02827,4.4326,-1,3
693,2.03264,4.4203,-1,3
694,2.037,4.4082,-1,3
695,2.04134,4.3965,-1,3
696,2.04567,4.3854,-1,3
697,2.05,4.3733,-1,3
698,2.0543,4.3608,-1,3
699,2.0586,4.3485,-1,3
700,2.0629,4.3383,-1,3
701,2.06718,4.3283,-1,3
702,2.07146,4.3184,-1,3
703,2.07572,4.308,-1,3
704,2.07997,4.2974,-1,3
705,2.08421,4.2869,-1,3
706,2.08844,4.2769,-1,3
707,2.09267,4.2674,-1,3
708,2.09689,4.2582,-1,3
709,2.10109,4.2484,-1,3
710,2.10528,4.2387,-1,3
711,2.10947,4.2288,-1,3
712,2.11364,4.2187,-1,3
713,2.11781,4.2089,-1,3
714,2.12197,4.1996,-1,3
715,2.12611,4.1886,-1,3
716,2.13024,4.1787,-1,3
717,2.13848,4.1675,-1,3
718,2.13848,4.1564,-1,3
719,2.14258,4.1455,-1,3
720,2.14667,4.1353,-1,3
721,2.15483,4.1237,-1,3
722,2.15888,4.112,-1,3
723,2.16293,4.1005,-1,3
724,2.16697,4.0889,-1,3
725,2.171,4.0788,-1,3
726,2.17502,4.0675,-1,3
727,2.17903,4.057,-1,3
728,2.18303,4.0464,-1,3
729,2.18702,4.0358,-1,3
730,2.191,4.0242,-1,3
731,2.19496,4.0138,-1,3
732,2.19892,4.0038,-1,3
733,2.20287,3.9937,-1,3
734,2.20681,3.9835,-1,3
735,2.21074,3.9735,-1,3
736,2.21466,3.9633,-1,3
737,2.21856,3.953,-1,3
738,2.22246,3.9429,-1,3
739,2.22635,3.9331,-1,3
740,2.23023,3.9235,-1,3
741,2.2341,3.9139,-1,3
742,2.23796,3.9043,-1,3
743,2.24181,3.8943,-1,3
744,2.24565,3.8845,-1,3
745,2.24949,3.8746,-1,3
746,2.25331,3.8654,-1,3
747,2.25712,3.8562,-1,3
748,2.26093,3.8468,-1,3
749,2.26472,3.8372,-1,3
750,2.26851,3.8274,-1,3
751,2.27228,3.8179,-1,3
752,2.27605,3.8087,-1,3
753,2.27981,3.7995,-1,3
754,2.28356,3.7903,-1,3
755,2.2873,3.781,-1,3
756,2.29103,3.7716,-1,3
757,2.29475,3.7628,-1,3
758,2.29847,3.754,-1,3
759,2.30217,3.745,-1,3
760,2.30587,3.7362,-1,3
761,2.30956,3.7277,-1,3
762,2.31324,3.7191,-1,3
763,2.32058,3.7102,-1,3
764,2.32424,3.7012,-1,3
765,2.3279,3.6925,-1,3
766,2.33154,3.6839,-1,3
767,2.33518,3.6747,-1,3
768,2.33881,3.6662,-1,3
769,2.34243,3.658,-1,3
770,2.34605,3.65,-1,3
771,2.34965,3.6417,-1,3
772,2.35325,3.6335,-1,3
773,2.35685,3.6262,-1,3
774,2.36044,3.6183,-1,3
775,2.36402,3.6109,-1,3
776,2.37117,3.6034,-1,3
777,2.37473,3.5965,-1,3
778,2.37473,3.5894,-1,3
779,2.37829,3.5832,-1,3
780,2.38184,3.5769,-1,3
781,2.3854,3.5713,-1,3
782,2.38894,3.5657,-1,3
783,2.39248,3.5601,-1,3
784,2.39955,3.5554,-1,3
785,2.40308,3.5503,-1,3
786,2.4066,3.5456,-1,3
787,2.41012,3.5408,-1,3
788,2.41363,3.5367,-1,3
789,2.41715,3.5322,-1,3
790,2.42066,3.528,-1,3
791,2.42417,3.5237,-1,3
792,2.42768,3.5201,-1,3
793,2.43118,3.5169,-1,3
794,2.43469,3.514,-1,3
795,2.44169,3.5116,-1,3
796,2.4452,3.5095,-1,3
797,2.4487,3.5085,-1,3
798,2.45221,3.5074,-1,3
799,2.45572,3.5068,-1,3
800,2.45923,3.5068,-1,3
801,2.46275,3.5075,-1,3
802,2.46626,3.5084,-1,3
803,2.46978,3.5097,-1,3
804,2.47331,3.5115,-1,3
805,2.47684,3.5142,-1,3
806,2.48037,3.5174,-1,3
807,2.48391,3.5207,-1,3
808,2.48746,3.5244,-1,3
809,2.49101,3.5286,-1,3
810,2.49457,3.5334,-1,3
811,2.49813,3.5384,-1,3
812,2.5017,3.5434,-1,3
813,2.50527,3.5488,-1,3
814,2.50886,3.5555,-1,3
815,2.51247,3.563,-1,3
816,2.51609,3.5718,-1,3
817,2.51971,3.5804,-1,3
818,2.52335,3.5892,-1,3
819,2.52699,3.5986,-1,3
820,2.53065,3.6085,-1,3
821,2.53432,3.6187,-1,3
822,2.53801,3.6308,-1,3
823,2.54171,3.6441,-1,3
824,2.54544,3.6577,-1,3
825,2.54918,3.671,-1,3
826,2.55292,3.6836,-1,3
827,2.55669,3.6976,-1,3
828,2.56048,3.7132,-1,3
829,2.56429,3.7295,-1,3
830,2.56811,3.746,-1,3
831,2.57581,3.7652,-1,3
832,2.57969,3.7844,-1,3
833,2.58359,3.8037,-1,3
834,2.58751,3.8235,-1,3
835,2.59146,3.8443,-1,3
836,2.59146,3.8667,-1,3
837,2.59943,3.8895,-1,3
838,2.60344,3.9124,-1,3
839,2.60749,3.9358,-1,3
840,2.61156,3.9606,-1,3
841,2.61977,3.9865,-1,3
