cnt,pos,speed,Dir,Force,
1,0,1.0012,1,15
2,0.000980377,0.9983,1,15
3,0.00196075,0.9973,1,15
4,0.00297165,1.0024,1,15
5,0.00402069,1.0079,1,15
6,0.00503159,1.0073,1,15
7,0.00600052,1.0032,1,15
8,0.00699234,1.0049,1,15
9,0.00802231,1.0076,1,15
10,0.00905991,1.0084,1,15
11,0.0100632,1.0066,1,15
12,0.0110397,1.0056,1,15
13,0.012043,1.0079,1,15
14,0.0130806,1.0103,1,15
15,0.0141106,1.0101,1,15
16,0.01511,1.0081,1,15
17,0.0160904,1.0081,1,15
18,0.0171013,1.0112,1,15
19,0.0181618,1.0137,1,15
20,0.0191803,1.0123,1,15
21,0.0201721,1.0105,1,15
22,0.0211601,1.0127,1,15
23,0.022213,1.0169,1,15
24,0.023262,1.0186,1,15
25,0.0242805,1.0162,1,15
26,0.0252609,1.0153,1,15
27,0.0262718,1.0189,1,15
28,0.0273323,1.0228,1,15
29,0.0283813,1.0174,1,15
30,0.0303726,1.0137,1,15
31,0.0314026,1.019,1,15
32,0.0324707,1.0259,1,15
33,0.0335007,1.0241,1,15
34,0.034481,1.0167,1,15
35,0.0354805,1.0158,1,15
36,0.036541,1.023,1,15
37,0.0376015,1.0274,1,15
38,0.0386009,1.022,1,15
39,0.0395813,1.0204,1,15
40,0.0406113,1.0239,1,15
41,0.0416718,1.0269,1,15
42,0.0427208,1.0243,1,15
43,0.0437012,1.0213,1,15
44,0.0447006,1.0226,1,15
45,0.0457497,1.0275,1,15
46,0.0468216,1.0288,1,15
47,0.0478325,1.0247,1,15
48,0.0488205,1.0226,1,15
49,0.0498428,1.0263,1,15
50,0.0509109,1.0308,1,15
51,0.05196,1.0296,1,15
52,0.0529633,1.0256,1,15
53,0.0550003,1.0307,1,15
54,0.0560722,1.0384,1,15
55,0.0571098,1.0365,1,15
56,0.0581017,1.0285,1,15
57,0.0591011,1.0277,1,15
58,0.060173,1.0359,1,15
59,0.0612411,1.0405,1,15
60,0.062252,1.0344,1,15
61,0.0632324,1.0275,1,15
62,0.0642624,1.0349,1,15
63,0.0663795,1.0342,1,15
64,0.0673599,1.0254,1,15
65,0.0683632,1.022,1,15
66,0.0694199,1.0289,1,15
67,0.0704918,1.0349,1,15
68,0.0715103,1.0298,1,15
69,0.0724831,1.0215,1,15
70,0.0735016,1.0229,1,15
71,0.0745811,1.0316,1,15
72,0.0756416,1.0299,1,15
73,0.0766296,1.0255,1,15
74,0.0776329,1.0265,1,15
75,0.0786819,1.032,1,15
76,0.0797615,1.0343,1,15
77,0.0807915,1.0305,1,15
78,0.0817833,1.0276,1,15
79,0.0828018,1.0314,1,15
80,0.0838814,1.0369,1,15
81,0.0849533,1.0368,1,15
82,0.0859604,1.0319,1,15
83,0.0869522,1.0318,1,15
84,0.0880013,1.0373,1,15
85,0.0890808,1.0405,1,15
86,0.0901299,1.0368,1,15
87,0.0911217,1.0325,1,15
88,0.0921326,1.0354,1,15
89,0.0932121,1.041,1,15
90,0.0942917,1.0413,1,15
91,0.0953026,1.0357,1,15
92,0.096302,1.0342,1,15
93,0.0973396,1.0391,1,15
94,0.0984306,1.0434,1,15
95,0.0994911,1.0407,1,15
96,0.100491,1.0363,1,15
97,0.101513,1.0389,1,15
98,0.102592,1.0456,1,15
99,0.103691,1.0479,1,15
100,0.104721,1.0434,1,15
101,0.105732,1.0418,1,15
102,0.106781,1.0479,1,15
103,0.107891,1.0546,1,15
104,0.108971,1.0537,1,15
105,0.109993,1.0492,1,15
106,0.111012,1.0517,1,15
107,0.112103,1.06,1,15
108,0.113232,1.0637,1,15
109,0.114281,1.0592,1,15
110,0.115292,1.0569,1,15
111,0.11636,1.0635,1,15
112,0.117493,1.0711,1,15
113,0.118591,1.0699,1,15
114,0.11961,1.064,1,15
115,0.12064,1.066,1,15
116,0.12175,1.0745,1,15
117,0.12289,1.0782,1,15
118,0.123951,1.0728,1,15
119,0.124981,1.0696,1,15
120,0.12606,1.0765,1,15
121,0.127213,1.0849,1,15
122,0.128323,1.0831,1,15
123,0.129353,1.0767,1,15
124,0.130413,1.0798,1,15
125,0.13155,1.0906,1,15
126,0.132713,1.0953,1,15
127,0.133781,1.0891,1,15
128,0.13483,1.0873,1,15
129,0.135952,1.0973,1,15
130,0.137131,1.1069,1,15
131,0.138252,1.1039,1,15
132,0.139301,1.0983,1,15
133,0.1404,1.105,1,15
134,0.141582,1.1175,1,15
135,0.142742,1.1195,1,15
136,0.143822,1.112,1,15
137,0.144913,1.1132,1,15
138,0.14608,1.1251,1,15
139,0.14727,1.1317,1,15
140,0.14838,1.1255,1,15
141,0.14946,1.122,1,15
142,0.150612,1.1317,1,15
143,0.151821,1.1415,1,15
144,0.152962,1.1381,1,15
145,0.15406,1.1317,1,15
146,0.155212,1.138,1,15
147,0.157581,1.147,1,15
148,0.158703,1.1423,1,15
149,0.159851,1.1382,1,15
150,0.159851,1.1473,1,15
151,0.16106,1.1582,1,15
152,0.162251,1.1573,1,15
153,0.164551,1.153,1,15
154,0.16576,1.1593,1,15
155,0.166973,1.1701,1,15
156,0.168133,1.172,1,15
157,0.1693,1.1719,1,15
158,0.170521,1.1817,1,15
159,0.17173,1.1881,1,15
160,0.172913,1.1853,1,15
161,0.174103,1.1851,1,15
162,0.17532,1.1931,1,15
163,0.17654,1.1987,1,15
164,0.177731,1.1969,1,15
165,0.178932,1.1971,1,15
166,0.180172,1.2044,1,15
167,0.181393,1.2086,1,15
168,0.18259,1.2069,1,15
169,0.183811,1.2087,1,15
170,0.185062,1.2154,1,15
171,0.186283,1.2185,1,15
172,0.1875,1.2177,1,15
173,0.188751,1.2215,1,15
174,0.190002,1.2279,1,15
175,0.191231,1.2297,1,15
176,0.192463,1.2288,1,15
177,0.193722,1.234,1,15
178,0.194992,1.2407,1,15
179,0.196232,1.2413,1,15
180,0.197472,1.2411,1,15
181,0.19875,1.2468,1,15
182,0.20002,1.2522,1,15
183,0.20126,1.251,1,15
184,0.202522,1.2516,1,15
185,0.203812,1.2578,1,15
186,0.205082,1.2621,1,15
187,0.206333,1.26,1,15
188,0.2076,1.2609,1,15
189,0.2089,1.2667,1,15
190,0.210163,1.269,1,15
191,0.211422,1.2674,1,15
192,0.212723,1.2697,1,15
193,0.214012,1.275,1,15
194,0.215282,1.2757,1,15
195,0.21656,1.275,1,15
196,0.217873,1.2788,1,15
197,0.219162,1.2837,1,15
198,0.22044,1.2836,1,15
199,0.221741,1.2842,1,15
200,0.223053,1.2889,1,15
201,0.224342,1.2917,1,15
202,0.225632,1.2916,1,15
203,0.226952,1.2943,1,15
204,0.228271,1.2987,1,15
205,0.229561,1.2994,1,15
206,0.230862,1.299,1,15
207,0.232182,1.302,1,15
208,0.23349,1.3052,1,15
209,0.234783,1.3049,1,15
210,0.236111,1.3056,1,15
211,0.237431,1.309,1,15
212,0.238731,1.3106,1,15
213,0.24004,1.3094,1,15
214,0.241371,1.3113,1,15
215,0.242702,1.3148,1,15
216,0.244003,1.315,1,15
217,0.245331,1.3151,1,15
218,0.246662,1.3182,1,15
219,0.247982,1.3201,1,15
220,0.249302,1.32,1,15
221,0.251972,1.3208,1,15
222,0.253292,1.3217,1,15
223,0.254631,1.3243,1,15
224,0.25597,1.3257,1,15
225,0.257301,1.326,1,15
226,0.258621,1.3275,1,15
227,0.25996,1.3291,1,15
228,0.261292,1.329,1,15
229,0.262611,1.3291,1,15
230,0.26395,1.3303,1,15
231,0.265293,1.3318,1,15
232,0.266621,1.3328,1,15
233,0.267941,1.3336,1,15
234,0.269283,1.3329,1,15
235,0.270622,1.3342,1,15
236,0.271931,1.3339,1,15
237,0.27327,1.3344,1,15
238,0.274612,1.3336,1,15
239,0.27594,1.3339,1,15
240,0.278603,1.3347,1,15
241,0.279942,1.3336,1,15
242,0.281261,1.3329,1,15
243,0.282581,1.3315,1,15
244,0.283932,1.3319,1,15
245,0.285252,1.3302,1,15
246,0.28656,1.3294,1,15
247,0.287891,1.3275,1,15
248,0.289223,1.3276,1,15
249,0.290531,1.3263,1,15
250,0.291832,1.3233,1,15
251,0.293163,1.3223,1,15
252,0.294472,1.3216,1,15
253,0.295773,1.3183,1,15
254,0.29707,1.3149,1,15
255,0.298401,1.3147,1,15
256,0.29969,1.3131,1,15
257,0.30098,1.3091,1,15
258,0.302292,1.3072,1,15
259,0.303593,1.3068,1,15
260,0.304871,1.3036,1,15
261,0.306152,1.2995,1,15
262,0.307461,1.2984,1,15
263,0.308743,1.2971,1,15
264,0.310001,1.2927,1,15
265,0.311283,1.2887,1,15
266,0.312572,1.2879,1,15
267,0.313831,1.2848,1,15
268,0.315083,1.2787,1,15
269,0.316353,1.2754,1,15
270,0.317612,1.2736,1,15
271,0.31884,1.2683,1,15
272,0.320072,1.2619,1,15
273,0.321331,1.2593,1,15
274,0.322571,1.2564,1,15
275,0.323772,1.2504,1,15
276,0.325001,1.2438,1,15
277,0.326233,1.2415,1,15
278,0.327442,1.2377,1,15
279,0.328632,1.2299,1,15
280,0.329842,1.2249,1,15
281,0.331062,1.2231,1,15
282,0.332253,1.2183,1,15
283,0.33342,1.2097,1,15
284,0.334602,1.2048,1,15
285,0.3358,1.2024,1,15
286,0.336971,1.1971,1,15
287,0.338112,1.1883,1,15
288,0.339291,1.1837,1,15
289,0.34045,1.1819,1,15
290,0.341602,1.175,1,15
291,0.342712,1.1652,1,15
292,0.343853,1.16,1,15
293,0.345001,1.158,1,15
294,0.346111,1.1509,1,15
295,0.347202,1.14,1,15
296,0.348312,1.1336,1,15
297,0.34943,1.1311,1,15
298,0.350521,1.124,1,15
299,0.351582,1.1125,1,15
300,0.35265,1.1051,1,15
301,0.353741,1.1028,1,15
302,0.35482,1.0969,1,15
303,0.355862,1.0854,1,15
304,0.35688,1.0765,1,15
305,0.357952,1.0742,1,15
306,0.359013,1.0708,1,15
307,0.361031,1.0577,1,15
308,0.361031,1.0501,1,15
309,0.363102,1.0493,1,15
310,0.36412,1.0447,1,15
311,0.365082,1.0315,1,15
312,0.366051,1.0205,1,15
313,0.367062,1.0185,1,15
314,0.36808,1.0177,1,15
315,0.369041,1.0076,1,15
316,0.369961,0.9927,1,15
317,0.370922,0.9932,1,15
318,0.37191,0.9909,1,15
319,0.37289,0.9831,1,15
320,0.373791,0.9715,1,15
321,0.374672,0.9639,1,15
322,0.37561,0.9607,1,15
323,0.376583,0.9559,1,15
324,0.378361,0.94,1,15
325,0.379223,0.9298,1,15
326,0.380142,0.9293,1,15
327,0.381062,0.9226,1,15
328,0.38195,0.9114,1,15
329,0.382782,0.8973,1,15
330,0.383621,0.8912,1,15
331,0.38451,0.8914,1,15
332,0.38541,0.887,1,15
333,0.386261,0.8755,1,15
334,0.38707,0.8709,1,15
335,0.387901,0.8676,1,15
336,0.38876,0.8619,1,15
337,0.38961,0.8546,1,15
338,0.390442,0.8488,1,15
339,0.391251,0.8466,1,15
340,0.392071,0.8441,1,15
341,0.392891,0.8379,1,15
342,0.393711,0.83,1,15
343,0.394501,0.8249,1,15
344,0.395313,0.8237,1,15
345,0.396111,0.8216,1,15
346,0.396912,0.8153,1,15
347,0.39769,0.8076,1,15
348,0.398472,0.8029,1,15
349,0.399261,0.8013,1,15
350,0.400051,0.7987,1,15
351,0.400822,0.793,1,15
352,0.401581,0.7871,1,15
353,0.402332,0.7829,1,15
354,0.403111,0.7797,1,15
355,0.40387,0.7756,1,15
356,0.404633,0.7713,1,15
357,0.405373,0.7678,1,15
358,0.40612,0.7648,1,15
359,0.40686,0.7603,1,15
360,0.407612,0.7553,1,15
361,0.408352,0.7524,1,15
362,0.409092,0.7516,1,15
363,0.40984,0.7502,1,15
364,0.410572,0.7467,1,15
365,0.411301,0.7427,1,15
366,0.412033,0.7404,1,15
367,0.412773,0.7399,1,15
368,0.413513,0.739,1,15
369,0.414242,0.7374,1,15
370,0.41497,0.736,1,15
371,0.415703,0.7346,1,15
372,0.416431,0.7336,1,15
373,0.41716,0.7327,1,15
374,0.417892,0.7327,1,15
375,0.418633,0.7337,1,15
376,0.419373,0.7345,1,15
377,0.420841,0.7337,1,15
378,0.42157,0.733,1,15
379,0.422302,0.7336,1,15
380,0.42305,0.7351,1,15
381,0.42379,0.7364,1,15
382,0.424522,0.7363,1,15
383,0.425262,0.7361,1,15
384,0.426003,0.7365,1,15
385,0.426743,0.7372,1,15
386,0.42749,0.7381,1,15
387,0.42823,0.7396,1,15
388,0.428982,0.7407,1,15
389,0.429722,0.7411,1,15
390,0.430462,0.7411,1,15
391,0.431202,0.7418,1,15
392,0.431961,0.7434,1,15
393,0.432713,0.7454,1,15
394,0.433472,0.747,1,15
395,0.434223,0.7478,1,15
396,0.434971,0.7482,1,15
397,0.435722,0.7494,1,15
398,0.436501,0.7521,1,15
399,0.43726,0.7547,1,15
400,0.438801,0.7572,1,15
401,0.439571,0.7596,1,15
402,0.44035,0.7622,1,15
403,0.441132,0.7652,1,15
404,0.441921,0.7686,1,15
405,0.442711,0.7728,1,15
406,0.443512,0.7769,1,15
407,0.444302,0.7802,1,15
408,0.445103,0.783,1,15
409,0.445911,0.7875,1,15
410,0.446732,0.7928,1,15
411,0.447552,0.7977,1,15
412,0.44836,0.8014,1,15
413,0.449181,0.8047,1,15
414,0.450012,0.8098,1,15
415,0.450851,0.8145,1,15
416,0.451691,0.8199,1,15
417,0.452541,0.8249,1,15
418,0.453373,0.8287,1,15
419,0.454212,0.8317,1,15
420,0.45594,0.8364,1,15
421,0.45681,0.841,1,15
422,0.457672,0.8455,1,15
423,0.45853,0.8498,1,15
424,0.459393,0.853,1,15
425,0.460281,0.8575,1,15
426,0.46117,0.8619,1,15
427,0.462051,0.8662,1,15
428,0.462933,0.8705,1,15
429,0.463821,0.8749,1,15
430,0.464722,0.8785,1,15
431,0.465641,0.8834,1,15
432,0.46656,0.8885,1,15
433,0.467453,0.8932,1,15
434,0.468361,0.8966,1,15
435,0.46928,0.9006,1,15
436,0.470222,0.9058,1,15
437,0.471172,0.9114,1,15
438,0.472092,0.9161,1,15
439,0.473022,0.9199,1,15
440,0.473961,0.9241,1,15
441,0.47493,0.9293,1,15
442,0.475903,0.9352,1,15
443,0.476852,0.9396,1,15
444,0.477791,0.9436,1,15
445,0.47876,0.9481,1,15
446,0.479752,0.9534,1,15
447,0.480751,0.9586,1,15
448,0.48172,0.9626,1,15
449,0.482681,0.9662,1,15
450,0.483673,0.9709,1,15
451,0.484692,0.9763,1,15
452,0.485703,0.9801,1,15
453,0.486671,0.9829,1,15
454,0.487652,0.9861,1,15
455,0.48867,0.9932,1,15
456,0.489712,0.9979,1,15
457,0.491711,0.9972,1,15
458,0.491711,1.0003,1,15
459,0.493752,1.0088,1,15
460,0.49482,1.0154,1,15
461,0.495842,1.0157,1,15
462,0.496841,1.0144,1,15
463,0.497852,1.0188,1,15
464,0.498932,1.0286,1,15
465,0.500011,1.0321,1,15
466,0.50103,1.0307,1,15
467,0.502041,1.0331,1,15
468,0.503101,1.0391,1,15
469,0.504211,1.0449,1,15
470,0.50528,1.0467,1,15
471,0.506313,1.0466,1,15
472,0.508442,1.0569,1,15
473,0.50956,1.0668,1,15
474,0.510632,1.066,1,15
475,0.51165,1.061,1,15
476,0.512722,1.065,1,15
477,0.513851,1.0768,1,15
478,0.514961,1.0823,1,15
479,0.51601,1.0767,1,15
480,0.517052,1.0734,1,15
481,0.518162,1.0821,1,15
482,0.519302,1.0865,1,15
483,0.52039,1.0833,1,15
484,0.521442,1.0809,1,15
485,0.522522,1.0867,1,15
486,0.523663,1.0946,1,15
487,0.524803,1.095,1,15
488,0.525871,1.0908,1,15
489,0.526943,1.0935,1,15
490,0.52808,1.1028,1,15
491,0.529232,1.1072,1,15
492,0.530342,1.1035,1,15
493,0.531422,1.1027,1,15
494,0.532551,1.111,1,15
495,0.53371,1.1187,1,15
496,0.534832,1.1171,1,15
497,0.535931,1.1134,1,15
498,0.537052,1.1182,1,15
499,0.538212,1.1265,1,15
500,0.539352,1.1274,1,15
501,0.540462,1.123,1,15
502,0.54158,1.1246,1,15
503,0.54274,1.132,1,15
504,0.543892,1.1343,1,15
505,0.545002,1.1301,1,15
506,0.546131,1.1294,1,15
507,0.547291,1.1356,1,15
508,0.548443,1.1391,1,15
509,0.549572,1.1357,1,15
510,0.55069,1.1336,1,15
511,0.551842,1.1382,1,15
512,0.553001,1.1416,1,15
513,0.554131,1.1387,1,15
514,0.555252,1.1366,1,15
515,0.556423,1.141,1,15
516,0.557583,1.1449,1,15
517,0.558712,1.1422,1,15
518,0.55983,1.1395,1,15
519,0.561001,1.1432,1,15
520,0.56216,1.1472,1,15
521,0.56329,1.1449,1,15
522,0.564423,1.1422,1,15
523,0.565582,1.1457,1,15
524,0.56675,1.1499,1,15
525,0.56789,1.1473,1,15
526,0.569012,1.1429,1,15
527,0.57016,1.1448,1,15
528,0.571331,1.1491,1,15
529,0.572472,1.1472,1,15
530,0.573582,1.1423,1,15
531,0.574722,1.1428,1,15
532,0.57589,1.1468,1,15
533,0.57703,1.1449,1,15
534,0.578152,1.1392,1,15
535,0.579273,1.1384,1,15
536,0.580441,1.1425,1,15
537,0.581581,1.1422,1,15
538,0.582691,1.1365,1,15
539,0.58382,1.1347,1,15
540,0.584972,1.1388,1,15
541,0.586121,1.1363,1,15
542,0.587231,1.1309,1,15
543,0.5895,1.1318,1,15
544,0.5895,1.1351,1,15
545,0.590652,1.1369,1,15
546,0.591763,1.1319,1,15
547,0.592873,1.1319,1,15
548,0.595161,1.1355,1,15
549,0.596283,1.1342,1,15
550,0.59737,1.1281,1,15
551,0.598503,1.1294,1,15
552,0.59964,1.1325,1,15
553,0.600761,1.1286,1,15
554,0.601841,1.1227,1,15
555,0.602951,1.1191,1,15
556,0.604092,1.1217,1,15
557,0.605202,1.1183,1,15
558,0.606281,1.1112,1,15
559,0.607372,1.1093,1,15
560,0.60849,1.1122,1,15
561,0.609612,1.1075,1,15
562,0.611763,1.1008,1,15
563,0.612881,1.101,1,15
564,0.613991,1.1039,1,15
565,0.61507,1.1005,1,15
566,0.616131,1.0933,1,15
567,0.617233,1.0919,1,15
568,0.618351,1.0959,1,15
569,0.619442,1.0953,1,15
570,0.620491,1.0881,1,15
571,0.621563,1.0875,1,15
572,0.622673,1.0908,1,15
573,0.62376,1.0886,1,15
574,0.624813,1.0818,1,15
575,0.625862,1.0792,1,15
576,0.626953,1.082,1,15
577,0.628052,1.0819,1,15
578,0.629101,1.0754,1,15
579,0.630131,1.0697,1,15
580,0.631203,1.0709,1,15
581,0.63229,1.073,1,15
582,0.63335,1.0686,1,15
583,0.63438,1.0618,1,15
584,0.635422,1.0604,1,15
585,0.636501,1.0631,1,15
586,0.637573,1.0618,1,15
587,0.638611,1.0556,1,15
588,0.639622,1.0518,1,15
589,0.640671,1.0543,1,15
590,0.641762,1.0563,1,15
591,0.642811,1.0523,1,15
592,0.643822,1.0469,1,15
593,0.644852,1.0468,1,15
594,0.64592,1.0502,1,15
595,0.646992,1.0497,1,15
596,0.648022,1.0447,1,15
597,0.649021,1.0417,1,15
598,0.650063,1.0442,1,15
599,0.651142,1.0464,1,15
600,0.652191,1.043,1,15
601,0.653202,1.0381,1,15
602,0.654202,1.0375,1,15
603,0.655251,1.0403,1,15
604,0.656322,1.0399,1,15
605,0.657341,1.0347,1,15
606,0.658333,1.0309,1,15
607,0.659351,1.0326,1,15
608,0.660412,1.0344,1,15
609,0.661453,1.031,1,15
610,0.662441,1.0251,1,15
611,0.663433,1.024,1,15
612,0.664471,1.0271,1,15
613,0.665531,1.0277,1,15
614,0.66753,1.0196,1,15
615,0.66753,1.0186,1,15
616,0.668541,1.0252,1,15
617,0.670643,1.0275,1,15
618,0.670643,1.0209,1,15
619,0.671631,1.0159,1,15
620,0.672623,1.0156,1,15
621,0.674721,1.0227,1,15
622,0.675743,1.021,1,15
623,0.676731,1.0135,1,15
624,0.677731,1.0159,1,15
625,0.678791,1.0209,1,15
626,0.679852,1.0208,1,15
627,0.680851,1.0162,1,15
628,0.681831,1.0155,1,15
629,0.682861,1.0197,1,15
630,0.683941,1.0279,1,15
631,0.684971,1.0246,1,15
632,0.685951,1.0205,1,15
633,0.686951,1.0222,1,15
634,0.688011,1.0274,1,15
635,0.689083,1.0282,1,15
636,0.690083,1.0237,1,15
637,0.691071,1.0221,1,15
638,0.692101,1.0265,1,15
639,0.693172,1.0311,1,15
640,0.694233,1.0293,1,15
641,0.695221,1.0254,1,15
642,0.69622,1.0277,1,15
643,0.697292,1.0348,1,15
644,0.698391,1.0381,1,15
645,0.699421,1.031,1,15
646,0.70042,1.0341,1,15
647,0.701462,1.04,1,15
648,0.70256,1.0472,1,15
649,0.70364,1.0472,1,15
650,0.704662,1.0435,1,15
651,0.705681,1.0464,1,15
652,0.706772,1.0552,1,15
653,0.707882,1.0598,1,15
654,0.708942,1.0563,1,15
655,0.709961,1.0579,1,15
656,0.71101,1.066,1,15
657,0.712143,1.0726,1,15
658,0.714291,1.0667,1,15
659,0.715332,1.0629,1,15
660,0.716431,1.0721,1,15
661,0.717571,1.0832,1,15
662,0.718651,1.0822,1,15
663,0.719692,1.0748,1,15
664,0.720783,1.0781,1,15
665,0.721931,1.0913,1,15
666,0.723053,1.0912,1,15
667,0.725201,1.0889,1,15
668,0.725201,1.0993,1,15
669,0.726341,1.1097,1,15
670,0.728592,1.1089,1,15
671,0.728592,1.1047,1,15
672,0.730831,1.1109,1,15
673,0.732002,1.1235,1,15
674,0.733131,1.1275,1,15
675,0.734241,1.1237,1,15
676,0.735382,1.126,1,15
677,0.736561,1.1353,1,15
678,0.737713,1.1363,1,15
679,0.738842,1.1345,1,15
680,0.739983,1.1393,1,15
681,0.741173,1.148,1,15
682,0.74234,1.1507,1,15
683,0.743492,1.1491,1,15
684,0.744652,1.1523,1,15
685,0.745831,1.1598,1,15
686,0.747013,1.163,1,15
687,0.74818,1.1619,1,15
688,0.749352,1.1642,1,15
689,0.750553,1.1706,1,15
690,0.751732,1.1741,1,15
691,0.752911,1.1742,1,15
692,0.754112,1.1775,1,15
693,0.755322,1.1832,1,15
694,0.756512,1.1857,1,15
695,0.75769,1.1857,1,15
696,0.758911,1.1895,1,15
697,0.760132,1.1955,1,15
698,0.76133,1.1973,1,15
699,0.762512,1.197,1,15
700,0.763741,1.2008,1,15
701,0.76498,1.2063,1,15
702,0.766171,1.2064,1,15
703,0.767372,1.2048,1,15
704,0.768593,1.2081,1,15
705,0.769821,1.2129,1,15
706,0.77103,1.2123,1,15
707,0.772232,1.2094,1,15
708,0.773453,1.2118,1,15
709,0.77467,1.2154,1,15
710,0.775871,1.2136,1,15
711,0.777081,1.2104,1,15
712,0.778301,1.2122,1,15
713,0.77951,1.2145,1,15
714,0.780712,1.212,1,15
715,0.78191,1.2093,1,15
716,0.783131,1.2106,1,15
717,0.784351,1.2119,1,15
718,0.78553,1.2086,1,15
719,0.786732,1.2061,1,15
720,0.787952,1.2075,1,15
721,0.789143,1.2068,1,15
722,0.790321,1.2023,1,15
723,0.791512,1.1999,1,15
724,0.792721,1.2012,1,15
725,0.793911,1.1992,1,15
726,0.795063,1.1928,1,15
727,0.796242,1.1893,1,15
728,0.797432,1.1895,1,15
729,0.798603,1.1861,1,15
730,0.799732,1.178,1,15
731,0.800892,1.1741,1,15
732,0.802063,1.1741,1,15
733,0.803211,1.1696,1,15
734,0.804321,1.16,1,15
735,0.80545,1.1545,1,15
736,0.80661,1.1545,1,15
737,0.807743,1.15,1,15
738,0.80883,1.1401,1,15
739,0.80994,1.1339,1,15
740,0.811073,1.134,1,15
741,0.812191,1.1302,1,15
742,0.813271,1.1202,1,15
743,0.814342,1.1131,1,15
744,0.815453,1.1123,1,15
745,0.81654,1.109,1,15
746,0.817593,1.0983,1,15
747,0.81863,1.0895,1,15
748,0.820793,1.0884,1,15
749,0.821823,1.0808,1,15
750,0.822823,1.0671,1,15
751,0.823853,1.0588,1,15
752,0.824921,1.0572,1,15
753,0.825932,1.0512,1,15
754,0.8269,1.0369,1,15
755,0.827862,1.0247,1,15
756,0.828892,1.0221,1,15
757,0.82991,1.0193,1,15
758,0.830853,1.0057,1,15
759,0.831772,0.9993,1,15
760,0.832741,0.9988,1,15
761,0.834682,0.9901,1,15
762,0.83556,0.9725,1,15
763,0.83646,0.9606,1,15
764,0.837402,0.9592,1,15
765,0.838352,0.9567,1,15
766,0.839241,0.9428,1,15
767,0.840092,0.9263,1,15
768,0.840973,0.92,1,15
769,0.841881,0.9151,1,15
770,0.84277,0.9045,1,15
771,0.843613,0.8934,1,15
772,0.84444,0.8879,1,15
773,0.845291,0.8839,1,15
774,0.846161,0.8753,1,15
775,0.846981,0.8609,1,15
776,0.84779,0.8529,1,15
777,0.849422,0.8499,1,15
778,0.849422,0.8413,1,15
779,0.85099,0.8271,1,15
780,0.851772,0.8165,1,15
781,0.852562,0.8118,1,15
782,0.853333,0.8056,1,15
783,0.854073,0.7936,1,15
784,0.854801,0.7809,1,15
785,0.855553,0.7753,1,15
786,0.856293,0.769,1,15
787,0.85701,0.7588,1,15
788,0.857712,0.7495,1,15
789,0.858421,0.7428,1,15
790,0.859123,0.7349,1,15
791,0.85981,0.7248,1,15
792,0.860481,0.7156,1,15
793,0.86116,0.7097,1,15
794,0.861851,0.7027,1,15
795,0.862511,0.6943,1,15
796,0.863792,0.6844,1,15
797,0.863792,0.6774,1,15
798,0.865082,0.6709,1,15
799,0.865082,0.6624,1,15
800,0.86631,0.6536,1,15
801,0.866932,0.6466,1,15
802,0.867542,0.6402,1,15
803,0.868141,0.6321,1,15
804,0.868732,0.6248,1,15
805,0.869331,0.6177,1,15
806,0.869923,0.6126,1,15
807,0.870502,0.606,1,15
808,0.871071,0.5994,1,15
809,0.871643,0.5945,1,15
