cnt,pos,speed,Dir,Force,
1,3.29487,1.433,-1,5
2,3.29630,1.434,-1,5
3,3.29774,1.439,-1,5
4,3.29919,1.452,-1,5
5,3.30066,1.461,-1,5
6,3.30212,1.462,-1,5
7,3.30358,1.467,-1,5
8,3.30506,1.475,-1,5
9,3.30654,1.482,-1,5
10,3.30803,1.490,-1,5
11,3.30953,1.504,-1,5
12,3.31104,1.502,-1,5
13,3.31254,1.506,-1,5
14,3.31406,1.520,-1,5
15,3.31559,1.531,-1,5
16,3.31713,1.538,-1,5
17,3.31867,1.544,-1,5
18,3.32022,1.542,-1,5
19,3.32177,1.553,-1,5
20,3.32334,1.572,-1,5
21,3.32492,1.575,-1,5
22,3.32649,1.577,-1,5
23,3.32808,1.585,-1,5
24,3.32967,1.592,-1,5
25,3.33128,1.607,-1,5
26,3.33289,1.618,-1,5
27,3.33451,1.617,-1,5
28,3.33613,1.619,-1,5
29,3.33776,1.632,-1,5
30,3.33941,1.646,-1,5
31,3.34106,1.657,-1,5
32,3.34272,1.659,-1,5
33,3.34438,1.656,-1,5
34,3.34605,1.667,-1,5
35,3.34773,1.688,-1,5
36,3.34943,1.697,-1,5
37,3.35113,1.697,-1,5
38,3.35453,1.706,-1,5
39,3.35453,1.729,-1,5
40,3.35626,1.734,-1,5
41,3.35799,1.734,-1,5
42,3.35972,1.730,-1,5
43,3.36146,1.749,-1,5
44,3.36321,1.749,-1,5
45,3.36498,1.769,-1,5
46,3.36675,1.774,-1,5
47,3.37030,1.778,-1,5
48,3.37209,1.796,-1,5
49,3.37390,1.809,-1,5
50,3.37570,1.804,-1,5
51,3.37751,1.802,-1,5
52,3.37933,1.821,-1,5
53,3.38117,1.841,-1,5
54,3.38301,1.837,-1,5
55,3.38483,1.829,-1,5
56,3.38667,1.836,-1,5
57,3.38853,1.861,-1,5
58,3.39040,1.871,-1,5
59,3.39226,1.858,-1,5
60,3.39412,1.857,-1,5
61,3.39599,1.877,-1,5
62,3.39789,1.900,-1,5
63,3.39979,1.900,-1,5
64,3.40168,1.894,-1,5
65,3.40549,1.919,-1,5
66,3.40743,1.936,-1,5
67,3.40936,1.930,-1,5
68,3.41128,1.920,-1,5
69,3.41322,1.939,-1,5
70,3.41518,1.962,-1,5
71,3.41715,1.970,-1,5
72,3.41911,1.960,-1,5
73,3.42107,1.961,-1,5
74,3.42305,1.985,-1,5
75,3.42505,1.998,-1,5
76,3.42705,2.004,-1,5
77,3.42905,1.999,-1,5
78,3.43106,2.006,-1,5
79,3.43308,2.024,-1,5
80,3.43512,2.039,-1,5
81,3.43717,2.042,-1,5
82,3.43920,2.036,-1,5
83,3.44125,2.048,-1,5
84,3.44332,2.066,-1,5
85,3.44540,2.081,-1,5
86,3.44747,2.077,-1,5
87,3.44955,2.076,-1,5
88,3.45164,2.089,-1,5
89,3.45375,2.109,-1,5
90,3.45587,2.118,-1,5
91,3.45798,2.115,-1,5
92,3.46010,2.119,-1,5
93,3.46223,2.132,-1,5
94,3.46438,2.149,-1,5
95,3.46654,2.158,-1,5
96,3.46869,2.155,-1,5
97,3.47085,2.155,-1,5
98,3.47302,2.170,-1,5
99,3.47521,2.193,-1,5
100,3.47741,2.195,-1,5
101,3.47960,2.190,-1,5
102,3.48179,2.194,-1,5
103,3.48401,2.218,-1,5
104,3.48624,2.229,-1,5
105,3.48847,2.227,-1,5
106,3.49069,2.226,-1,5
107,3.49293,2.240,-1,5
108,3.49518,2.253,-1,5
109,3.49744,2.260,-1,5
110,3.49971,2.265,-1,5
111,3.50198,2.265,-1,5
112,3.50425,2.274,-1,5
113,3.50654,2.286,-1,5
114,3.50883,2.296,-1,5
115,3.51113,2.296,-1,5
116,3.51343,2.302,-1,5
117,3.51574,2.311,-1,5
118,3.51806,2.318,-1,5
119,3.52038,2.321,-1,5
120,3.52271,2.333,-1,5
121,3.52504,2.331,-1,5
122,3.52738,2.340,-1,5
123,3.52973,2.345,-1,5
124,3.53209,2.359,-1,5
125,3.53444,2.359,-1,5
126,3.53681,2.366,-1,5
127,3.53918,2.369,-1,5
128,3.54156,2.380,-1,5
129,3.54395,2.386,-1,5
130,3.54633,2.389,-1,5
131,3.54873,2.396,-1,5
132,3.55113,2.402,-1,5
133,3.55354,2.406,-1,5
134,3.55595,2.412,-1,5
135,3.55837,2.419,-1,5
136,3.56080,2.425,-1,5
137,3.56323,2.430,-1,5
138,3.56566,2.433,-1,5
139,3.56810,2.440,-1,5
140,3.57055,2.448,-1,5
141,3.57300,2.452,-1,5
142,3.57545,2.451,-1,5
143,3.57791,2.459,-1,5
144,3.58037,2.466,-1,5
145,3.58284,2.472,-1,5
146,3.58532,2.473,-1,5
147,3.58780,2.484,-1,5
148,3.59029,2.487,-1,5
149,3.59278,2.492,-1,5
150,3.59528,2.499,-1,5
151,3.59779,2.509,-1,5
152,3.60030,2.513,-1,5
153,3.60282,2.518,-1,5
154,3.60534,2.524,-1,5
155,3.60788,2.533,-1,5
156,3.61042,2.544,-1,5
157,3.61297,2.546,-1,5
158,3.61552,2.553,-1,5
159,3.61808,2.561,-1,5
160,3.62065,2.570,-1,5
161,3.62322,2.574,-1,5
162,3.62581,2.584,-1,5
163,3.62840,2.590,-1,5
164,3.63099,2.595,-1,5
165,3.63359,2.601,-1,5
166,3.63621,2.611,-1,5
167,3.64144,2.622,-1,5
168,3.64407,2.627,-1,5
169,3.64671,2.637,-1,5
170,3.64935,2.639,-1,5
171,3.65199,2.642,-1,5
172,3.65464,2.653,-1,5
173,3.65730,2.660,-1,5
174,3.65996,2.662,-1,5
175,3.66263,2.665,-1,5
176,3.66530,2.673,-1,5
177,3.66798,2.679,-1,5
178,3.67066,2.681,-1,5
179,3.67335,2.690,-1,5
180,3.67604,2.693,-1,5
181,3.67874,2.696,-1,5
182,3.68144,2.703,-1,5
183,3.68415,2.709,-1,5
184,3.68687,2.713,-1,5
185,3.68958,2.715,-1,5
186,3.69230,2.720,-1,5
187,3.69503,2.726,-1,5
188,3.69776,2.731,-1,5
189,3.70049,2.734,-1,5
190,3.70323,2.739,-1,5
191,3.70597,2.741,-1,5
192,3.70872,2.745,-1,5
193,3.71147,2.753,-1,5
194,3.71422,2.755,-1,5
195,3.71698,2.756,-1,5
196,3.71974,2.762,-1,5
197,3.72251,2.765,-1,5
198,3.72527,2.768,-1,5
199,3.72805,2.773,-1,5
200,3.73082,2.777,-1,5
201,3.73360,2.778,-1,5
202,3.73638,2.779,-1,5
203,3.73917,2.787,-1,5
204,3.74196,2.790,-1,5
205,3.74475,2.793,-1,5
206,3.74754,2.792,-1,5
207,3.75034,2.797,-1,5
208,3.75314,2.802,-1,5
209,3.75595,2.805,-1,5
210,3.75876,2.808,-1,5
211,3.76157,2.811,-1,5
212,3.76438,2.808,-1,5
213,3.76719,2.815,-1,5
214,3.77001,2.819,-1,5
215,3.77283,2.819,-1,5
216,3.77565,2.821,-1,5
217,3.77847,2.824,-1,5
218,3.78130,2.828,-1,5
219,3.78413,2.831,-1,5
220,3.78697,2.834,-1,5
221,3.78980,2.833,-1,5
222,3.79263,2.842,-1,5
223,3.79548,2.842,-1,5
224,3.79832,2.842,-1,5
225,3.80116,2.839,-1,5
226,3.80400,2.845,-1,5
227,3.80685,2.846,-1,5
228,3.80970,2.849,-1,5
229,3.81255,2.850,-1,5
230,3.81540,2.855,-1,5
231,3.81825,2.852,-1,5
232,3.82111,2.855,-1,5
233,3.82397,2.862,-1,5
234,3.82683,2.860,-1,5
235,3.82969,2.860,-1,5
236,3.83256,2.864,-1,5
237,3.83542,2.863,-1,5
238,3.83829,2.869,-1,5
239,3.84116,2.869,-1,5
240,3.84403,2.871,-1,5
241,3.84690,2.871,-1,5
242,3.84977,2.871,-1,5
243,3.85265,2.878,-1,5
244,3.85553,2.877,-1,5
245,3.85840,2.876,-1,5
246,3.86128,2.881,-1,5
247,3.86416,2.881,-1,5
248,3.86704,2.881,-1,5
249,3.86993,2.883,-1,5
250,3.87281,2.885,-1,5
251,3.87570,2.886,-1,5
252,3.87859,2.887,-1,5
253,3.88147,2.890,-1,5
254,3.88436,2.890,-1,5
255,3.88725,2.889,-1,5
256,3.89015,2.892,-1,5
257,3.89304,2.895,-1,5
258,3.89593,2.892,-1,5
259,3.89883,2.895,-1,5
260,3.90172,2.894,-1,5
261,3.90461,2.894,-1,5
262,3.90751,2.892,-1,5
263,3.91040,2.897,-1,5
264,3.91330,2.893,-1,5
265,3.91619,2.895,-1,5
266,3.91909,2.893,-1,5
267,3.92198,2.895,-1,5
268,3.92487,2.893,-1,5
269,3.92777,2.899,-1,5
270,3.93067,2.894,-1,5
271,3.93356,2.894,-1,5
272,3.93645,2.895,-1,5
273,3.93935,2.896,-1,5
274,3.94225,2.895,-1,5
275,3.94514,2.893,-1,5
276,3.95093,2.895,-1,5
277,3.95382,2.895,-1,5
278,3.95382,2.897,-1,5
279,3.95672,2.897,-1,5
280,3.95962,2.895,-1,5
281,3.96251,2.893,-1,5
282,3.96541,2.898,-1,5
283,3.96830,2.893,-1,5
284,3.97409,2.893,-1,5
285,3.97698,2.892,-1,5
286,3.97987,2.891,-1,5
287,3.98276,2.891,-1,5
288,3.98565,2.887,-1,5
289,3.98854,2.889,-1,5
290,3.99142,2.884,-1,5
291,3.99431,2.889,-1,5
292,3.99719,2.884,-1,5
293,4.00008,2.881,-1,5
294,4.00296,2.883,-1,5
295,4.00584,2.882,-1,5
296,4.00872,2.879,-1,5
297,4.01160,2.880,-1,5
298,4.01448,2.880,-1,5
299,4.01735,2.874,-1,5
300,4.02023,2.877,-1,5
301,4.02311,2.875,-1,5
302,4.02598,2.876,-1,5
303,4.02885,2.871,-1,5
304,4.03172,2.869,-1,5
305,4.03459,2.871,-1,5
306,4.03746,2.868,-1,5
307,4.04033,2.866,-1,5
308,4.04319,2.867,-1,5
309,4.04605,2.859,-1,5
310,4.04891,2.858,-1,5
311,4.05177,2.858,-1,5
312,4.05462,2.852,-1,5
313,4.05747,2.851,-1,5
314,4.06033,2.852,-1,5
315,4.06317,2.845,-1,5
316,4.06601,2.841,-1,5
317,4.06885,2.843,-1,5
318,4.07169,2.836,-1,5
319,4.07452,2.831,-1,5
320,4.07735,2.832,-1,5
321,4.08018,2.829,-1,5
322,4.08301,2.825,-1,5
323,4.08582,2.815,-1,5
324,4.08864,2.815,-1,5
325,4.09145,2.813,-1,5
326,4.09426,2.806,-1,5
327,4.09706,2.806,-1,5
328,4.09986,2.797,-1,5
329,4.10265,2.794,-1,5
330,4.10545,2.792,-1,5
331,4.10824,2.791,-1,5
332,4.11102,2.782,-1,5
333,4.11379,2.775,-1,5
334,4.11657,2.775,-1,5
335,4.11934,2.771,-1,5
336,4.12210,2.764,-1,5
337,4.12486,2.757,-1,5
338,4.12761,2.755,-1,5
339,4.13037,2.751,-1,5
340,4.13311,2.744,-1,5
341,4.13585,2.740,-1,5
342,4.13858,2.734,-1,5
343,4.14131,2.725,-1,5
344,4.14404,2.726,-1,5
345,4.14675,2.719,-1,5
346,4.14946,2.710,-1,5
347,4.15217,2.705,-1,5
348,4.15487,2.702,-1,5
349,4.15757,2.695,-1,5
350,4.16025,2.688,-1,5
351,4.16293,2.680,-1,5
352,4.16561,2.677,-1,5
353,4.16828,2.673,-1,5
354,4.17095,2.662,-1,5
355,4.17360,2.656,-1,5
356,4.17626,2.653,-1,5
357,4.17890,2.643,-1,5
358,4.18154,2.641,-1,5
359,4.18417,2.633,-1,5
360,4.18680,2.624,-1,5
361,4.18941,2.614,-1,5
362,4.19203,2.617,-1,5
363,4.19463,2.604,-1,5
364,4.19723,2.594,-1,5
365,4.19982,2.590,-1,5
366,4.20240,2.584,-1,5
367,4.20498,2.576,-1,5
368,4.20754,2.566,-1,5
369,4.21011,2.563,-1,5
370,4.21266,2.552,-1,5
371,4.21520,2.536,-1,5
372,4.21774,2.536,-1,5
373,4.22279,2.521,-1,5
374,4.22279,2.510,-1,5
375,4.22530,2.510,-1,5
376,4.22780,2.503,-1,5
377,4.23030,2.498,-1,5
378,4.23279,2.488,-1,5
379,4.23527,2.470,-1,5
380,4.24020,2.464,-1,5
381,4.24265,2.453,-1,5
382,4.24509,2.440,-1,5
383,4.24753,2.440,-1,5
384,4.24996,2.429,-1,5
385,4.25238,2.416,-1,5
386,4.25478,2.405,-1,5
387,4.25719,2.402,-1,5
388,4.25958,2.390,-1,5
389,4.26196,2.381,-1,5
390,4.26433,2.368,-1,5
391,4.26669,2.363,-1,5
392,4.26904,2.353,-1,5
393,4.27138,2.341,-1,5
394,4.27371,2.330,-1,5
395,4.27604,2.324,-1,5
396,4.27835,2.314,-1,5
397,4.28065,2.303,-1,5
398,4.28294,2.288,-1,5
399,4.28523,2.285,-1,5
400,4.28750,2.261,-1,5
401,4.28976,2.261,-1,5
402,4.29201,2.246,-1,5
403,4.29425,2.242,-1,5
404,4.29648,2.230,-1,5
405,4.29870,2.217,-1,5
406,4.30090,2.205,-1,5
407,4.30310,2.197,-1,5
408,4.30529,2.187,-1,5
409,4.30746,2.175,-1,5
410,4.30962,2.163,-1,5
411,4.31177,2.148,-1,5
412,4.31391,2.143,-1,5
413,4.31605,2.132,-1,5
414,4.31817,2.120,-1,5
415,4.32027,2.101,-1,5
416,4.32236,2.096,-1,5
417,4.32445,2.087,-1,5
418,4.32652,2.075,-1,5
419,4.32858,2.054,-1,5
420,4.33062,2.045,-1,5
421,4.33266,2.039,-1,5
422,4.33469,2.025,-1,5
423,4.33670,2.010,-1,5
424,4.33869,1.995,-1,5
425,4.34068,1.986,-1,5
426,4.34266,1.977,-1,5
427,4.34462,1.961,-1,5
428,4.34657,1.950,-1,5
429,4.34850,1.935,-1,5
430,4.35043,1.926,-1,5
431,4.35234,1.912,-1,5
432,4.35424,1.900,-1,5
433,4.35613,1.889,-1,5
434,4.35800,1.871,-1,5
435,4.35986,1.860,-1,5
436,4.36171,1.850,-1,5
437,4.36355,1.838,-1,5
438,4.36537,1.820,-1,5
439,4.36717,1.802,-1,5
440,4.36896,1.795,-1,5
441,4.37075,1.786,-1,5
442,4.37252,1.768,-1,5
443,4.37427,1.751,-1,5
444,4.37600,1.734,-1,5
445,4.37773,1.727,-1,5
446,4.37945,1.720,-1,5
447,4.38115,1.699,-1,5
448,4.38283,1.680,-1,5
449,4.38449,1.667,-1,5
450,4.38615,1.657,-1,5
451,4.38780,1.649,-1,5
452,4.38943,1.632,-1,5
453,4.39104,1.611,-1,5
454,4.39264,1.596,-1,5
455,4.39423,1.587,-1,5
456,4.39580,1.576,-1,5
457,4.39736,1.562,-1,5
458,4.39891,1.542,-1,5
459,4.40043,1.522,-1,5
460,4.40194,1.514,-1,5
461,4.40345,1.502,-1,5
462,4.40493,1.485,-1,5
463,4.40640,1.467,-1,5
464,4.40785,1.456,-1,5
465,4.40929,1.439,-1,5
466,4.41072,1.425,-1,5
467,4.41213,1.409,-1,5
468,4.41352,1.391,-1,5
469,4.41490,1.379,-1,5
470,4.41627,1.371,-1,5
471,4.41762,1.354,-1,5
472,4.41895,1.330,-1,5
473,4.42027,1.315,-1,5
474,4.42157,1.306,-1,5
475,4.42286,1.291,-1,5
476,4.42414,1.277,-1,5
477,4.42540,1.264,-1,5
478,4.42665,1.243,-1,5
479,4.42787,1.221,-1,5
480,4.42908,1.211,-1,5
481,4.43028,1.204,-1,5
482,4.43147,1.188,-1,5
483,4.43264,1.164,-1,5
484,4.43378,1.147,-1,5
485,4.43492,1.139,-1,5
486,4.43605,1.125,-1,5
487,4.43715,1.104,-1,5
488,4.43824,1.089,-1,5
489,4.43932,1.079,-1,5
490,4.44038,1.064,-1,5
491,4.44143,1.043,-1,5
492,4.44245,1.026,-1,5
493,4.44347,1.017,-1,5
494,4.44448,1.007,-1,5
495,4.44546,0.987,-1,5
496,4.44643,0.966,-1,5
497,4.44738,0.952,-1,5
498,4.44833,0.946,-1,5
499,4.44926,0.933,-1,5
500,4.45017,0.907,-1,5
501,4.45105,0.886,-1,5
502,4.45193,0.877,-1,5
503,4.45280,0.873,-1,5
504,4.45366,0.859,-1,5
505,4.45530,0.807,-1,5
506,4.45530,0.807,-1,5
507,4.45610,0.797,-1,5
508,4.45689,0.797,-1,5
509,4.45768,0.784,-1,5
510,4.45844,0.757,-1,5
511,4.45917,0.729,-1,5
512,4.45988,0.715,-1,5
513,4.46059,0.713,-1,5
514,4.46130,0.687,-1,5
515,4.46265,0.660,-1,5
516,4.46329,0.637,-1,5
517,4.46392,0.630,-1,5
518,4.46454,0.624,-1,5
519,4.46515,0.610,-1,5
520,4.46574,0.587,-1,5
521,4.46630,0.565,-1,5
522,4.46686,0.553,-1,5
523,4.46740,0.546,-1,5
524,4.46793,0.532,-1,5
525,4.46844,0.511,-1,5
526,4.46893,0.489,-1,5
527,4.46941,0.476,-1,5
528,4.46988,0.467,-1,5
529,4.47033,0.456,-1,5
530,4.47077,0.437,-1,5
531,4.47119,0.416,-1,5
532,4.47158,0.399,-1,5
533,4.47198,0.391,-1,5
534,4.47236,0.380,-1,5
535,4.47272,0.361,-1,5
536,4.47306,0.343,-1,5
537,4.47339,0.327,-1,5
538,4.47370,0.316,-1,5
539,4.47401,0.305,-1,5
540,4.47429,0.286,-1,5
541,4.47456,0.267,-1,5
542,4.47481,0.251,-1,5
543,4.47505,0.241,-1,5
544,4.47528,0.227,-1,5
545,4.47549,0.211,-1,5
546,4.47568,0.193,-1,5
547,4.47586,0.178,-1,5
548,4.47603,0.165,-1,5
549,4.47618,0.155,-1,5
550,4.47632,0.137,-1,5
551,4.47644,0.121,-1,5
552,4.47655,0.105,-1,5
553,4.47664,0.095,-1,5
554,4.47672,0.083,-1,5
555,4.47679,0.065,-1,5
556,4.47684,0.048,-1,5
557,4.47687,0.034,-1,5
558,4.47689,0.021,-1,5
559,4.47690,0.008,-1,5
560,4.47689,-0.006,-1,5
561,4.47687,-0.021,-1,5
562,4.47684,-0.035,-1,5
563,4.47679,-0.046,-1,5
564,4.47673,-0.059,-1,5
565,4.47666,-0.074,-1,5
566,4.47657,-0.087,-1,5
567,4.47647,-0.098,-1,5
568,4.47637,-0.109,-1,5
569,4.47624,-0.122,-1,5
570,4.47611,-0.134,-1,5
571,4.47596,-0.147,-1,5
572,4.47580,-0.158,-1,5
573,4.47563,-0.170,-1,5
574,4.47545,-0.183,-1,5
575,4.47526,-0.194,-1,5
576,4.47505,-0.206,-1,5
577,4.47483,-0.219,-1,5
578,4.47460,-0.230,-1,5
579,4.47436,-0.242,-1,5
580,4.47411,-0.254,-1,5
581,4.47384,-0.267,-1,5
582,4.47356,-0.278,-1,5
583,4.47327,-0.290,-1,5
584,4.47297,-0.302,-1,5
585,4.47266,-0.314,-1,5
586,4.47233,-0.325,-1,5
587,4.47199,-0.336,-1,5
588,4.47165,-0.347,-1,5
589,4.47129,-0.359,-1,5
590,4.47092,-0.369,-1,5
591,4.47054,-0.382,-1,5
592,4.47014,-0.393,-1,5
593,4.46974,-0.405,-1,5
594,4.46932,-0.417,-1,5
595,4.46889,-0.429,-1,5
596,4.46845,-0.440,-1,5
597,4.46800,-0.453,-1,5
598,4.46754,-0.462,-1,5
599,4.46707,-0.473,-1,5
600,4.46658,-0.487,-1,5
601,4.46608,-0.499,-1,5
602,4.46557,-0.510,-1,5
603,4.46505,-0.521,-1,5
604,4.46452,-0.532,-1,5
605,4.46397,-0.544,-1,5
606,4.46342,-0.556,-1,5
607,4.46285,-0.566,-1,5
608,4.46227,-0.576,-1,5
609,4.46169,-0.588,-1,5
610,4.46108,-0.602,-1,5
611,4.46047,-0.614,-1,5
612,4.45985,-0.625,-1,5
613,4.45921,-0.634,-1,5
614,4.45857,-0.645,-1,5
615,4.45791,-0.656,-1,5
616,4.45724,-0.669,-1,5
617,4.45656,-0.680,-1,5
618,4.45587,-0.694,-1,5
619,4.45516,-0.704,-1,5
620,4.45445,-0.717,-1,5
621,4.45372,-0.725,-1,5
622,4.45299,-0.734,-1,5
623,4.45224,-0.748,-1,5
624,4.45148,-0.760,-1,5
625,4.45071,-0.774,-1,5
626,4.44992,-0.784,-1,5
627,4.44913,-0.791,-1,5
628,4.44833,-0.800,-1,5
629,4.44752,-0.810,-1,5
630,4.44669,-0.827,-1,5
631,4.44585,-0.841,-1,5
632,4.44500,-0.852,-1,5
633,4.44415,-0.855,-1,5
634,4.44328,-0.862,-1,5
635,4.44241,-0.876,-1,5
636,4.44152,-0.892,-1,5
637,4.44061,-0.908,-1,5
638,4.43969,-0.913,-1,5
639,4.43878,-0.915,-1,5
640,4.43786,-0.923,-1,5
641,4.43691,-0.942,-1,5
642,4.43595,-0.963,-1,5
643,4.43498,-0.972,-1,5
644,4.43401,-0.972,-1,5
645,4.43303,-0.974,-1,5
646,4.43204,-0.991,-1,5
647,4.43103,-1.011,-1,5
648,4.43001,-1.026,-1,5
649,4.42898,-1.030,-1,5
650,4.42795,-1.031,-1,5
651,4.42690,-1.043,-1,5
652,4.42584,-1.063,-1,5
653,4.42476,-1.076,-1,5
654,4.42369,-1.078,-1,5
655,4.42260,-1.083,-1,5
656,4.42151,-1.097,-1,5
657,4.42039,-1.115,-1,5
658,4.41927,-1.125,-1,5
659,4.41814,-1.128,-1,5
660,4.41700,-1.134,-1,5
661,4.41586,-1.146,-1,5
662,4.41470,-1.159,-1,5
663,4.41353,-1.167,-1,5
664,4.41235,-1.180,-1,5
665,4.41116,-1.190,-1,5
666,4.40997,-1.194,-1,5
667,4.40877,-1.198,-1,5
668,4.40756,-1.212,-1,5
669,4.40633,-1.227,-1,5
670,4.40509,-1.238,-1,5
671,4.40385,-1.243,-1,5
672,4.40260,-1.252,-1,5
673,4.40134,-1.260,-1,5
674,4.40007,-1.270,-1,5
675,4.39879,-1.278,-1,5
676,4.39750,-1.293,-1,5
677,4.39619,-1.303,-1,5
678,4.39489,-1.306,-1,5
679,4.39358,-1.313,-1,5
680,4.39225,-1.325,-1,5
681,4.39091,-1.336,-1,5
682,4.38957,-1.345,-1,5
683,4.38821,-1.355,-1,5
684,4.38685,-1.361,-1,5
685,4.38549,-1.365,-1,5
686,4.38412,-1.374,-1,5
687,4.38273,-1.388,-1,5
688,4.38133,-1.400,-1,5
689,4.37992,-1.409,-1,5
690,4.37851,-1.412,-1,5
691,4.37709,-1.417,-1,5
692,4.37567,-1.421,-1,5
693,4.37423,-1.442,-1,5
694,4.37277,-1.457,-1,5
695,4.37131,-1.463,-1,5
696,4.36984,-1.463,-1,5
697,4.36837,-1.468,-1,5
698,4.36690,-1.476,-1,5
699,4.36540,-1.495,-1,5
700,4.36389,-1.513,-1,5
701,4.36238,-1.515,-1,5
702,4.36086,-1.512,-1,5
703,4.35935,-1.515,-1,5
704,4.35781,-1.534,-1,5
705,4.35627,-1.549,-1,5
706,4.35470,-1.562,-1,5
707,4.35314,-1.563,-1,5
708,4.35158,-1.559,-1,5
709,4.35001,-1.569,-1,5
710,4.34843,-1.585,-1,5
711,4.34683,-1.599,-1,5
712,4.34522,-1.610,-1,5
713,4.34361,-1.608,-1,5
714,4.34200,-1.610,-1,5
715,4.34038,-1.624,-1,5
716,4.33874,-1.638,-1,5
717,4.33709,-1.649,-1,5
718,4.33543,-1.656,-1,5
719,4.33377,-1.660,-1,5
720,4.33211,-1.667,-1,5
721,4.33043,-1.678,-1,5
722,4.32874,-1.685,-1,5
723,4.32705,-1.697,-1,5
724,4.32534,-1.710,-1,5
725,4.32362,-1.715,-1,5
726,4.32190,-1.717,-1,5
727,4.32018,-1.727,-1,5
728,4.31844,-1.739,-1,5
729,4.31668,-1.757,-1,5
730,4.31492,-1.761,-1,5
731,4.31316,-1.761,-1,5
732,4.31139,-1.767,-1,5
733,4.30961,-1.781,-1,5
734,4.30781,-1.799,-1,5
735,4.30600,-1.808,-1,5
736,4.30420,-1.804,-1,5
737,4.30239,-1.810,-1,5
738,4.30057,-1.823,-1,5
739,4.29872,-1.844,-1,5
740,4.29687,-1.851,-1,5
741,4.29502,-1.852,-1,5
742,4.29316,-1.860,-1,5
743,4.29129,-1.872,-1,5
744,4.28940,-1.885,-1,5
745,4.28750,-1.899,-1,5
746,4.28560,-1.902,-1,5
747,4.28370,-1.906,-1,5
748,4.28178,-1.913,-1,5
749,4.27985,-1.928,-1,5
750,4.27791,-1.944,-1,5
751,4.27596,-1.951,-1,5
752,4.27401,-1.953,-1,5
753,4.27205,-1.958,-1,5
754,4.27008,-1.973,-1,5
755,4.26809,-1.989,-1,5
756,4.26609,-1.994,-1,5
757,4.26410,-1.995,-1,5
758,4.26209,-2.003,-1,5
759,4.26008,-2.016,-1,5
760,4.25805,-2.029,-1,5
761,4.25601,-2.039,-1,5
762,4.25397,-2.041,-1,5
763,4.25192,-2.044,-1,5
764,4.24986,-2.061,-1,5
765,4.24779,-2.071,-1,5
766,4.24571,-2.082,-1,5
767,4.24363,-2.080,-1,5
768,4.24154,-2.090,-1,5
769,4.23944,-2.102,-1,5
770,4.23733,-2.114,-1,5
771,4.23521,-2.120,-1,5
772,4.23308,-2.125,-1,5
773,4.23095,-2.135,-1,5
774,4.22880,-2.143,-1,5
775,4.22665,-2.152,-1,5
776,4.22449,-2.160,-1,5
777,4.22232,-2.170,-1,5
778,4.22014,-2.178,-1,5
779,4.21796,-2.186,-1,5
780,4.21576,-2.194,-1,5
781,4.21356,-2.206,-1,5
782,4.21134,-2.214,-1,5
783,4.20912,-2.225,-1,5
784,4.20689,-2.232,-1,5
785,4.20465,-2.239,-1,5
786,4.20240,-2.247,-1,5
787,4.20014,-2.257,-1,5
788,4.19788,-2.268,-1,5
789,4.19560,-2.273,-1,5
790,4.19332,-2.281,-1,5
791,4.19103,-2.292,-1,5
792,4.18873,-2.298,-1,5
793,4.18643,-2.306,-1,5
794,4.18411,-2.317,-1,5
795,4.18178,-2.327,-1,5
796,4.17945,-2.331,-1,5
797,4.17712,-2.335,-1,5
798,4.17476,-2.353,-1,5
799,4.17241,-2.356,-1,5
800,4.17005,-2.363,-1,5
801,4.16768,-2.368,-1,5
802,4.16530,-2.380,-1,5
803,4.16291,-2.386,-1,5
804,4.16052,-2.394,-1,5
805,4.15812,-2.401,-1,5
806,4.15571,-2.410,-1,5
807,4.15329,-2.414,-1,5
808,4.15087,-2.426,-1,5
809,4.14844,-2.431,-1,5
810,4.14600,-2.438,-1,5
811,4.14355,-2.449,-1,5
812,4.14109,-2.454,-1,5
813,4.13864,-2.456,-1,5
814,4.13617,-2.470,-1,5
815,4.13369,-2.478,-1,5
816,4.13121,-2.483,-1,5
817,4.12872,-2.488,-1,5
818,4.12622,-2.498,-1,5
819,4.12372,-2.504,-1,5
820,4.12121,-2.509,-1,5
821,4.11869,-2.517,-1,5
822,4.11617,-2.522,-1,5
823,4.11364,-2.529,-1,5
824,4.11111,-2.534,-1,5
825,4.10857,-2.541,-1,5
826,4.10602,-2.547,-1,5
827,4.10347,-2.552,-1,5
828,4.10091,-2.556,-1,5
829,4.09835,-2.564,-1,5
830,4.09578,-2.570,-1,5
831,4.09320,-2.572,-1,5
832,4.09063,-2.578,-1,5
833,4.08804,-2.587,-1,5
834,4.08545,-2.590,-1,5
835,4.08285,-2.596,-1,5
836,4.08025,-2.601,-1,5
837,4.07765,-2.606,-1,5
838,4.07503,-2.614,-1,5
839,4.07241,-2.619,-1,5
840,4.06979,-2.622,-1,5
841,4.06716,-2.629,-1,5
842,4.06453,-2.631,-1,5
843,4.06190,-2.634,-1,5
844,4.05925,-2.644,-1,5
845,4.05660,-2.650,-1,5
846,4.05396,-2.646,-1,5
847,4.05131,-2.653,-1,5
848,4.04865,-2.660,-1,5
849,4.04598,-2.661,-1,5
850,4.04331,-2.670,-1,5
851,4.04064,-2.672,-1,5
852,4.03797,-2.675,-1,5
853,4.03529,-2.680,-1,5
854,4.03260,-2.689,-1,5
855,4.02991,-2.689,-1,5
856,4.02722,-2.691,-1,5
857,4.02452,-2.697,-1,5
858,4.02182,-2.702,-1,5
859,4.01911,-2.706,-1,5
860,4.01640,-2.711,-1,5
