cnt,pos,speed,Dir,Force,
1,0,1.0012,1,4
2,0.00101089,1.0027,1,4
3,0.00203133,1.0039,1,4
4,0.00304031,1.0055,1,4
5,0.00405121,1.0067,1,4
6,0.0050602,1.0079,1,4
7,0.00608063,1.0091,1,4
8,0.00709152,1.0099,1,4
9,0.00811005,1.0113,1,4
10,0.00913048,1.0134,1,4
11,0.0101604,1.0153,1,4
12,0.0111809,1.0168,1,4
13,0.0122013,1.0179,1,4
14,0.0132198,1.0187,1,4
15,0.0142498,1.0201,1,4
16,0.0152798,1.0217,1,4
17,0.0163097,1.0233,1,4
18,0.0173397,1.025,1,4
19,0.0183697,1.0266,1,4
20,0.0194111,1.0279,1,4
21,0.0204411,1.029,1,4
22,0.0214806,1.0297,1,4
23,0.0225105,1.0306,1,4
24,0.02355,1.0323,1,4
25,0.0245914,1.0343,1,4
26,0.0256405,1.0359,1,4
27,0.02668,1.0369,1,4
28,0.0277214,1.038,1,4
29,0.0287704,1.0392,1,4
30,0.02981,1.0403,1,4
31,0.0308609,1.0413,1,4
32,0.0319099,1.043,1,4
33,0.0329609,1.0453,1,4
34,0.0340214,1.0474,1,4
35,0.03508,1.0488,1,4
36,0.0361309,1.0495,1,4
37,0.0371914,1.0506,1,4
38,0.0382404,1.0521,1,4
39,0.0393105,1.0541,1,4
40,0.0403709,1.056,1,4
41,0.041441,1.0582,1,4
42,0.042511,1.0601,1,4
43,0.043581,1.0615,1,4
44,0.0446415,1.0622,1,4
45,0.0457115,1.0628,1,4
46,0.0467815,1.0646,1,4
47,0.0478611,1.0671,1,4
48,0.0489407,1.0695,1,4
49,0.0500202,1.071,1,4
50,0.0510998,1.0723,1,4
51,0.0521698,1.0733,1,4
52,0.0532513,1.0747,1,4
53,0.0543404,1.0761,1,4
54,0.0554199,1.078,1,4
55,0.0565109,1.0804,1,4
56,0.0576115,1.0826,1,4
57,0.0587006,1.0841,1,4
58,0.0597916,1.085,1,4
59,0.0608807,1.0862,1,4
60,0.0619812,1.0882,1,4
61,0.0630798,1.0906,1,4
62,0.0641804,1.0926,1,4
63,0.0652809,1.0946,1,4
64,0.066391,1.0967,1,4
65,0.0675011,1.0986,1,4
66,0.0685997,1.0999,1,4
67,0.0697098,1.1013,1,4
68,0.0708313,1.1036,1,4
69,0.0719509,1.1065,1,4
70,0.0730705,1.1088,1,4
71,0.0741901,1.1105,1,4
72,0.0753098,1.1123,1,4
73,0.0764313,1.1142,1,4
74,0.0775509,1.116,1,4
75,0.07868,1.1178,1,4
76,0.0798111,1.1205,1,4
77,0.0809498,1.1234,1,4
78,0.0820904,1.126,1,4
79,0.0832214,1.1275,1,4
80,0.0843601,1.1289,1,4
81,0.0855007,1.1313,1,4
82,0.0866508,1.1341,1,4
83,0.087801,1.1369,1,4
84,0.0889511,1.1397,1,4
85,0.0901108,1.1427,1,4
86,0.0912609,1.1452,1,4
87,0.0924206,1.1473,1,4
88,0.0935802,1.1493,1,4
89,0.0947514,1.1523,1,4
90,0.0959206,1.1559,1,4
91,0.0970898,1.159,1,4
92,0.0982609,1.1617,1,4
93,0.0994415,1.1644,1,4
94,0.10062,1.1669,1,4
95,0.101801,1.1693,1,4
96,0.102982,1.1718,1,4
97,0.10417,1.1752,1,4
98,0.105371,1.1787,1,4
99,0.10656,1.1816,1,4
100,0.10775,1.1837,1,4
101,0.108952,1.1859,1,4
102,0.110151,1.1885,1,4
103,0.111351,1.1911,1,4
104,0.11256,1.194,1,4
105,0.113771,1.1973,1,4
106,0.114981,1.2001,1,4
107,0.116201,1.2022,1,4
108,0.117411,1.2041,1,4
109,0.118631,1.2067,1,4
110,0.11986,1.2103,1,4
111,0.12108,1.2133,1,4
112,0.122311,1.2159,1,4
113,0.123541,1.2183,1,4
114,0.124771,1.221,1,4
115,0.126001,1.2231,1,4
116,0.127241,1.2258,1,4
117,0.128481,1.2289,1,4
118,0.12973,1.2319,1,4
119,0.13097,1.2341,1,4
120,0.13221,1.2359,1,4
121,0.133461,1.2383,1,4
122,0.13472,1.2407,1,4
123,0.135962,1.2431,1,4
124,0.13722,1.2454,1,4
125,0.138481,1.2478,1,4
126,0.13974,1.2501,1,4
127,0.141001,1.2517,1,4
128,0.142262,1.2538,1,4
129,0.14353,1.2563,1,4
130,0.1448,1.2584,1,4
131,0.14607,1.2605,1,4
132,0.147341,1.263,1,4
133,0.148621,1.2654,1,4
134,0.1499,1.2674,1,4
135,0.151171,1.2694,1,4
136,0.15246,1.2718,1,4
137,0.15374,1.2741,1,4
138,0.155031,1.2761,1,4
139,0.156321,1.2785,1,4
140,0.15761,1.2809,1,4
141,0.158901,1.283,1,4
142,0.1602,1.285,1,4
143,0.161491,1.2874,1,4
144,0.16279,1.2897,1,4
145,0.164091,1.292,1,4
146,0.165401,1.2941,1,4
147,0.16671,1.2969,1,4
148,0.16802,1.2996,1,4
149,0.16934,1.3017,1,4
150,0.17065,1.3042,1,4
151,0.17197,1.3065,1,4
152,0.173281,1.3088,1,4
153,0.17461,1.3116,1,4
154,0.175941,1.3147,1,4
155,0.177271,1.3175,1,4
156,0.1786,1.3197,1,4
157,0.17993,1.322,1,4
158,0.181271,1.3248,1,4
159,0.182611,1.3278,1,4
160,0.18396,1.3308,1,4
161,0.185301,1.334,1,4
162,0.186651,1.3367,1,4
163,0.188,1.3388,1,4
164,0.189362,1.3416,1,4
165,0.190722,1.3449,1,4
166,0.192081,1.3484,1,4
167,0.193441,1.3514,1,4
168,0.194811,1.3541,1,4
169,0.19618,1.3568,1,4
170,0.19755,1.3597,1,4
171,0.19894,1.3632,1,4
172,0.200321,1.3668,1,4
173,0.2017,1.3699,1,4
174,0.203081,1.3725,1,4
175,0.20447,1.3755,1,4
176,0.20587,1.3789,1,4
177,0.20727,1.3826,1,4
178,0.208672,1.3861,1,4
179,0.210072,1.389,1,4
180,0.211472,1.3915,1,4
181,0.212881,1.3946,1,4
182,0.21431,1.3986,1,4
183,0.215721,1.4028,1,4
184,0.21714,1.4059,1,4
185,0.21855,1.4082,1,4
186,0.219971,1.4104,1,4
187,0.221411,1.4138,1,4
188,0.222851,1.4181,1,4
189,0.224291,1.4224,1,4
190,0.225721,1.4252,1,4
191,0.22715,1.427,1,4
192,0.22859,1.429,1,4
193,0.230051,1.4325,1,4
194,0.23151,1.4372,1,4
195,0.232971,1.4412,1,4
196,0.234411,1.4436,1,4
197,0.235861,1.445,1,4
198,0.23732,1.4472,1,4
199,0.238811,1.4512,1,4
200,0.24028,1.456,1,4
201,0.241741,1.4593,1,4
202,0.2432,1.461,1,4
203,0.24468,1.4625,1,4
204,0.246161,1.4652,1,4
205,0.24766,1.4695,1,4
206,0.249151,1.4736,1,4
207,0.25062,1.4761,1,4
208,0.2521,1.4775,1,4
209,0.253592,1.4789,1,4
210,0.2551,1.4823,1,4
211,0.256611,1.4862,1,4
212,0.258091,1.4891,1,4
213,0.259581,1.491,1,4
214,0.261091,1.4926,1,4
215,0.262611,1.4949,1,4
216,0.264132,1.4983,1,4
217,0.265631,1.5014,1,4
218,0.26713,1.5032,1,4
219,0.26865,1.5051,1,4
220,0.27018,1.5072,1,4
221,0.271711,1.5102,1,4
222,0.273232,1.5131,1,4
223,0.27474,1.5153,1,4
224,0.27626,1.5167,1,4
225,0.277802,1.5185,1,4
226,0.279341,1.5211,1,4
227,0.28087,1.5238,1,4
228,0.282391,1.5261,1,4
229,0.28392,1.5279,1,4
230,0.285471,1.5295,1,4
231,0.287021,1.5312,1,4
232,0.28857,1.5338,1,4
233,0.290101,1.536,1,4
234,0.29164,1.5383,1,4
235,0.2932,1.5403,1,4
236,0.294761,1.5417,1,4
237,0.29631,1.5434,1,4
238,0.297851,1.5459,1,4
239,0.299411,1.5485,1,4
240,0.300981,1.5506,1,4
241,0.302541,1.5519,1,4
242,0.30409,1.5528,1,4
243,0.305651,1.555,1,4
244,0.30722,1.5578,1,4
245,0.308801,1.5597,1,4
246,0.310361,1.5606,1,4
247,0.31192,1.5617,1,4
248,0.313491,1.5637,1,4
249,0.31507,1.566,1,4
250,0.316661,1.5677,1,4
251,0.318231,1.5686,1,4
252,0.319791,1.57,1,4
253,0.321371,1.5721,1,4
254,0.322961,1.5742,1,4
255,0.324551,1.5753,1,4
256,0.326131,1.5766,1,4
257,0.327701,1.578,1,4
258,0.32929,1.5797,1,4
259,0.330891,1.5815,1,4
260,0.33248,1.5828,1,4
261,0.334061,1.5836,1,4
262,0.33565,1.5849,1,4
263,0.33724,1.5864,1,4
264,0.33884,1.5877,1,4
265,0.340441,1.5887,1,4
266,0.342031,1.5892,1,4
267,0.343611,1.5901,1,4
268,0.345211,1.5918,1,4
269,0.346821,1.5928,1,4
270,0.348421,1.5932,1,4
271,0.350011,1.594,1,4
272,0.35159,1.5948,1,4
273,0.35319,1.5955,1,4
274,0.3548,1.5963,1,4
275,0.356421,1.5974,1,4
276,0.35801,1.5982,1,4
277,0.359601,1.5989,1,4
278,0.3612,1.5987,1,4
279,0.362811,1.5993,1,4
280,0.36443,1.6009,1,4
281,0.366031,1.6022,1,4
282,0.36762,1.6024,1,4
283,0.369221,1.6027,1,4
284,0.370841,1.6034,1,4
285,0.37246,1.6048,1,4
286,0.37407,1.6066,1,4
287,0.37567,1.6071,1,4
288,0.377271,1.6076,1,4
289,0.378891,1.6084,1,4
290,0.380521,1.6095,1,4
291,0.38214,1.611,1,4
292,0.38374,1.6123,1,4
293,0.38535,1.6126,1,4
294,0.386971,1.6132,1,4
295,0.388611,1.6143,1,4
296,0.39023,1.6153,1,4
297,0.39183,1.6166,1,4
298,0.393451,1.6176,1,4
299,0.395081,1.6184,1,4
300,0.396721,1.6192,1,4
301,0.39834,1.6199,1,4
302,0.399951,1.6209,1,4
303,0.40157,1.6227,1,4
304,0.403211,1.6242,1,4
305,0.404851,1.6246,1,4
306,0.406481,1.6252,1,4
307,0.408101,1.6263,1,4
308,0.409731,1.6281,1,4
309,0.411381,1.6298,1,4
310,0.413021,1.6304,1,4
311,0.41464,1.6307,1,4
312,0.41627,1.6322,1,4
313,0.417911,1.634,1,4
314,0.41956,1.6353,1,4
315,0.42121,1.6359,1,4
316,0.422841,1.6364,1,4
317,0.42448,1.6382,1,4
318,0.42613,1.6404,1,4
319,0.427791,1.6414,1,4
320,0.42944,1.6419,1,4
321,0.43107,1.6431,1,4
322,0.43272,1.645,1,4
323,0.434391,1.6474,1,4
324,0.43605,1.6485,1,4
325,0.4377,1.6488,1,4
326,0.439341,1.6503,1,4
327,0.44101,1.6529,1,4
328,0.44268,1.6548,1,4
329,0.444341,1.6555,1,4
330,0.446001,1.6559,1,4
331,0.447651,1.6577,1,4
332,0.44933,1.6604,1,4
333,0.451,1.6617,1,4
334,0.452671,1.6621,1,4
335,0.45433,1.6632,1,4
336,0.455991,1.6648,1,4
337,0.45767,1.6666,1,4
338,0.459361,1.6679,1,4
339,0.461031,1.6688,1,4
340,0.462701,1.67,1,4
341,0.464371,1.6713,1,4
342,0.46605,1.6726,1,4
343,0.467751,1.674,1,4
344,0.46942,1.6749,1,4
345,0.47109,1.6758,1,4
346,0.472771,1.6773,1,4
347,0.474461,1.6787,1,4
348,0.476151,1.6794,1,4
349,0.477831,1.6801,1,4
350,0.47951,1.6812,1,4
351,0.4812,1.683,1,4
352,0.482901,1.6844,1,4
353,0.484591,1.6846,1,4
354,0.486271,1.6854,1,4
355,0.487961,1.687,1,4
356,0.489651,1.6887,1,4
357,0.491361,1.6895,1,4
358,0.493051,1.69,1,4
359,0.49474,1.6908,1,4
360,0.496441,1.6928,1,4
361,0.49814,1.6944,1,4
362,0.499841,1.695,1,4
363,0.50154,1.6955,1,4
364,0.503241,1.6964,1,4
365,0.504941,1.6984,1,4
366,0.506651,1.7002,1,4
367,0.508361,1.701,1,4
368,0.510071,1.7018,1,4
369,0.51177,1.7032,1,4
370,0.51348,1.7049,1,4
371,0.51521,1.7067,1,4
372,0.516931,1.7081,1,4
373,0.518641,1.7101,1,4
374,0.52037,1.7128,1,4
375,0.522091,1.715,1,4
376,0.523821,1.7167,1,4
377,0.525551,1.7188,1,4
378,0.527281,1.7213,1,4
379,0.52902,1.7246,1,4
380,0.530761,1.7272,1,4
381,0.5325,1.7295,1,4
382,0.53425,1.7322,1,4
383,0.535991,1.7347,1,4
384,0.537741,1.7371,1,4
385,0.539491,1.7396,1,4
386,0.541241,1.7421,1,4
387,0.543011,1.7452,1,4
388,0.54477,1.7486,1,4
389,0.546531,1.7511,1,4
390,0.54829,1.7533,1,4
391,0.55006,1.7556,1,4
392,0.55183,1.7585,1,4
393,0.55362,1.7624,1,4
394,0.55539,1.7654,1,4
395,0.557171,1.7679,1,4
396,0.55895,1.7705,1,4
397,0.56074,1.7731,1,4
398,0.562531,1.7763,1,4
399,0.564331,1.7794,1,4
400,0.56612,1.7825,1,4
401,0.56791,1.7853,1,4
402,0.569711,1.7881,1,4
403,0.571521,1.7908,1,4
404,0.573331,1.794,1,4
405,0.575141,1.7972,1,4
406,0.576951,1.8003,1,4
407,0.578771,1.8034,1,4
408,0.58059,1.8059,1,4
409,0.582411,1.8089,1,4
410,0.584241,1.8124,1,4
411,0.586071,1.8157,1,4
412,0.5879,1.8183,1,4
413,0.58973,1.8207,1,4
414,0.591571,1.824,1,4
415,0.59341,1.8274,1,4
416,0.595261,1.8303,1,4
417,0.5971,1.8327,1,4
418,0.59895,1.8355,1,4
419,0.600801,1.8391,1,4
420,0.60266,1.8421,1,4
421,0.60451,1.8447,1,4
422,0.606371,1.8476,1,4
423,0.608241,1.8509,1,4
424,0.61011,1.8541,1,4
425,0.61198,1.8567,1,4
426,0.613851,1.8595,1,4
427,0.615721,1.8627,1,4
428,0.617611,1.8661,1,4
429,0.619491,1.8689,1,4
430,0.621381,1.8715,1,4
431,0.62326,1.8746,1,4
432,0.625151,1.8777,1,4
433,0.62705,1.8805,1,4
434,0.628951,1.8832,1,4
435,0.63084,1.8863,1,4
436,0.632741,1.8893,1,4
437,0.634641,1.8919,1,4
438,0.636551,1.8945,1,4
439,0.638471,1.8975,1,4
440,0.640381,1.9005,1,4
441,0.642301,1.9032,1,4
442,0.644211,1.9057,1,4
443,0.646131,1.9086,1,4
444,0.648061,1.9117,1,4
445,0.649991,1.9145,1,4
446,0.65192,1.9172,1,4
447,0.653851,1.9202,1,4
448,0.65579,1.9235,1,4
449,0.657741,1.9264,1,4
450,0.65968,1.9293,1,4
451,0.661621,1.9323,1,4
452,0.66357,1.9356,1,4
453,0.665521,1.9389,1,4
454,0.66748,1.9417,1,4
455,0.66944,1.9446,1,4
456,0.671401,1.9482,1,4
457,0.673361,1.9517,1,4
458,0.675341,1.9546,1,4
459,0.677311,1.9574,1,4
460,0.679291,1.961,1,4
461,0.681261,1.9645,1,4
462,0.683241,1.9677,1,4
463,0.68523,1.9709,1,4
464,0.687231,1.9745,1,4
465,0.68922,1.9784,1,4
466,0.691211,1.9814,1,4
467,0.693211,1.9847,1,4
468,0.695221,1.9883,1,4
469,0.69723,1.9923,1,4
470,0.699241,1.9958,1,4
471,0.701261,1.9994,1,4
472,0.70328,2.0033,1,4
473,0.7053,2.0071,1,4
474,0.707331,2.0107,1,4
475,0.709361,2.0143,1,4
476,0.711401,2.0182,1,4
477,0.713441,2.0225,1,4
478,0.715481,2.0263,1,4
479,0.71753,2.0299,1,4
480,0.719581,2.0338,1,4
481,0.721631,2.0378,1,4
482,0.723701,2.0419,1,4
483,0.72576,2.0456,1,4
484,0.727831,2.0495,1,4
485,0.7299,2.0533,1,4
486,0.731971,2.0577,1,4
487,0.734051,2.0613,1,4
488,0.73614,2.0653,1,4
489,0.73822,2.0689,1,4
490,0.740311,2.0726,1,4
491,0.7424,2.0765,1,4
492,0.7445,2.0805,1,4
493,0.7466,2.0843,1,4
494,0.748701,2.0876,1,4
495,0.750811,2.0914,1,4
496,0.752931,2.0953,1,4
497,0.75504,2.099,1,4
498,0.75716,2.1024,1,4
499,0.75928,2.1061,1,4
500,0.761411,2.1102,1,4
501,0.76354,2.1141,1,4
502,0.765671,2.1174,1,4
503,0.767811,2.1207,1,4
504,0.769951,2.1247,1,4
505,0.7721,2.1288,1,4
506,0.774251,2.1325,1,4
507,0.776401,2.1359,1,4
508,0.77855,2.1393,1,4
509,0.78071,2.1431,1,4
510,0.782881,2.1468,1,4
511,0.78505,2.1504,1,4
512,0.78721,2.154,1,4
513,0.789391,2.1581,1,4
514,0.791571,2.1616,1,4
515,0.793751,2.1649,1,4
516,0.795931,2.1682,1,4
517,0.79812,2.1723,1,4
518,0.800311,2.1761,1,4
519,0.80251,2.1797,1,4
520,0.804701,2.1828,1,4
521,0.806911,2.1863,1,4
522,0.809111,2.1898,1,4
523,0.81132,2.1931,1,4
524,0.813531,2.1966,1,4
525,0.815751,2.2001,1,4
526,0.81797,2.2035,1,4
527,0.82019,2.2066,1,4
528,0.822411,2.2102,1,4
529,0.82464,2.2134,1,4
530,0.82688,2.2169,1,4
531,0.82911,2.2202,1,4
532,0.83135,2.2238,1,4
533,0.833591,2.2268,1,4
534,0.835831,2.2296,1,4
535,0.838071,2.2321,1,4
536,0.840321,2.235,1,4
537,0.842561,2.2375,1,4
538,0.844821,2.2403,1,4
539,0.84708,2.2432,1,4
540,0.84934,2.246,1,4
541,0.851601,2.2486,1,4
542,0.853861,2.251,1,4
543,0.856131,2.2537,1,4
544,0.858391,2.2565,1,4
545,0.860661,2.2594,1,4
546,0.86293,2.2619,1,4
547,0.865211,2.2645,1,4
548,0.867491,2.2668,1,4
549,0.869771,2.2691,1,4
550,0.87205,2.2712,1,4
551,0.874331,2.2736,1,4
552,0.87662,2.2762,1,4
553,0.878911,2.2788,1,4
554,0.881201,2.281,1,4
555,0.883501,2.2835,1,4
556,0.885791,2.2861,1,4
557,0.888101,2.289,1,4
558,0.890401,2.2915,1,4
559,0.892711,2.2942,1,4
560,0.895011,2.2968,1,4
561,0.897321,2.2995,1,4
562,0.899641,2.3018,1,4
563,0.90196,2.3045,1,4
564,0.904281,2.3075,1,4
565,0.906601,2.31,1,4
566,0.90892,2.3124,1,4
567,0.911251,2.3149,1,4
568,0.91357,2.3174,1,4
569,0.915911,2.32,1,4
570,0.918241,2.3225,1,4
571,0.92057,2.3248,1,4
572,0.922911,2.3268,1,4
573,0.925251,2.3292,1,4
574,0.92759,2.3312,1,4
575,0.929931,2.3337,1,4
576,0.932281,2.3362,1,4
577,0.93463,2.3386,1,4
578,0.93698,2.3404,1,4
579,0.939331,2.3424,1,4
580,0.94169,2.3448,1,4
581,0.944051,2.3472,1,4
582,0.946401,2.3493,1,4
583,0.948761,2.351,1,4
584,0.95112,2.3531,1,4
585,0.953481,2.3548,1,4
586,0.955851,2.3567,1,4
587,0.95822,2.3585,1,4
588,0.960581,2.3608,1,4
589,0.962951,2.3621,1,4
590,0.965321,2.3638,1,4
591,0.967701,2.3651,1,4
592,0.970071,2.3672,1,4
593,0.972441,2.3687,1,4
594,0.974821,2.3698,1,4
595,0.977191,2.3713,1,4
596,0.97957,2.3724,1,4
597,0.981951,2.3736,1,4
598,0.98433,2.3745,1,4
599,0.986711,2.3757,1,4
600,0.989091,2.3766,1,4
601,0.99147,2.3774,1,4
602,0.993851,2.3779,1,4
603,0.996231,2.3789,1,4
604,0.998621,2.3801,1,4
605,1.001,2.3809,1,4
606,1.00338,2.3815,1,4
607,1.00577,2.382,1,4
608,1.00816,2.383,1,4
609,1.01055,2.3842,1,4
610,1.01293,2.3847,1,4
611,1.01533,2.3859,1,4
612,1.01772,2.387,1,4
613,1.02011,2.3877,1,4
614,1.0225,2.3885,1,4
615,1.0249,2.3895,1,4
616,1.02729,2.3907,1,4
617,1.02969,2.392,1,4
618,1.03209,2.3928,1,4
619,1.03448,2.3935,1,4
620,1.03688,2.3944,1,4
621,1.03928,2.3951,1,4
622,1.04168,2.3961,1,4
623,1.04408,2.3974,1,4
624,1.04649,2.3987,1,4
625,1.04889,2.3997,1,4
626,1.0513,2.4007,1,4
627,1.05371,2.4018,1,4
628,1.05612,2.4031,1,4
629,1.05853,2.4043,1,4
630,1.06094,2.4057,1,4
631,1.06335,2.407,1,4
632,1.06576,2.4083,1,4
633,1.06817,2.4091,1,4
634,1.07059,2.41,1,4
635,1.07301,2.4114,1,4
636,1.07542,2.4125,1,4
637,1.07784,2.4131,1,4
638,1.08026,2.4143,1,4
639,1.08268,2.4156,1,4
640,1.0851,2.4165,1,4
641,1.08752,2.4172,1,4
642,1.08994,2.4181,1,4
643,1.09236,2.419,1,4
644,1.09479,2.42,1,4
645,1.09721,2.4206,1,4
646,1.09964,2.4214,1,4
647,1.10206,2.4222,1,4
648,1.10449,2.4228,1,4
649,1.10691,2.4231,1,4
650,1.10934,2.4238,1,4
651,1.11176,2.4247,1,4
652,1.11419,2.4252,1,4
653,1.11662,2.4255,1,4
654,1.11904,2.4258,1,4
655,1.12148,2.4264,1,4
656,1.12391,2.4272,1,4
657,1.12634,2.428,1,4
658,1.12877,2.4286,1,4
659,1.1312,2.4293,1,4
660,1.13364,2.4301,1,4
661,1.13607,2.431,1,4
662,1.13851,2.4318,1,4
663,1.14095,2.433,1,4
664,1.14338,2.434,1,4
665,1.14582,2.4347,1,4
666,1.14826,2.4354,1,4
667,1.1507,2.4364,1,4
668,1.15314,2.437,1,4
669,1.15558,2.4376,1,4
670,1.15802,2.4386,1,4
671,1.16047,2.4393,1,4
672,1.16291,2.4396,1,4
673,1.16535,2.44,1,4
674,1.16779,2.4409,1,4
675,1.17024,2.4415,1,4
676,1.17268,2.4422,1,4
677,1.17513,2.4425,1,4
678,1.17757,2.443,1,4
679,1.18002,2.4438,1,4
680,1.18246,2.4443,1,4
681,1.18491,2.4445,1,4
682,1.18736,2.4452,1,4
683,1.18981,2.4459,1,4
684,1.19225,2.4458,1,4
685,1.1947,2.4461,1,4
686,1.19715,2.4464,1,4
687,1.19959,2.4466,1,4
688,1.20204,2.4465,1,4
689,1.20448,2.4466,1,4
690,1.20693,2.4469,1,4
691,1.20938,2.447,1,4
692,1.21183,2.447,1,4
693,1.21428,2.4473,1,4
694,1.21673,2.4478,1,4
695,1.21917,2.4479,1,4
696,1.22163,2.4483,1,4
697,1.22408,2.4489,1,4
698,1.22653,2.4497,1,4
699,1.22898,2.4499,1,4
700,1.23143,2.4498,1,4
701,1.23388,2.4502,1,4
702,1.23633,2.4508,1,4
703,1.23879,2.4509,1,4
704,1.24124,2.4512,1,4
705,1.24369,2.4518,1,4
706,1.24615,2.4519,1,4
707,1.2486,2.4518,1,4
708,1.25105,2.4518,1,4
709,1.2535,2.4524,1,4
710,1.25596,2.4526,1,4
711,1.25841,2.4527,1,4
712,1.26086,2.453,1,4
713,1.26332,2.4532,1,4
714,1.26577,2.4533,1,4
715,1.26823,2.4535,1,4
716,1.27068,2.4537,1,4
717,1.27314,2.4541,1,4
718,1.2756,2.4546,1,4
719,1.27805,2.4549,1,4
720,1.28051,2.4555,1,4
721,1.28297,2.4562,1,4
722,1.28543,2.4566,1,4
723,1.28789,2.4572,1,4
724,1.29035,2.4581,1,4
725,1.29282,2.4589,1,4
726,1.29528,2.4597,1,4
727,1.29774,2.4605,1,4
728,1.30021,2.4616,1,4
729,1.30268,2.4625,1,4
730,1.30514,2.4631,1,4
731,1.30761,2.4638,1,4
732,1.31008,2.4649,1,4
733,1.31255,2.4659,1,4
734,1.31502,2.4665,1,4
735,1.31749,2.4671,1,4
736,1.31996,2.4681,1,4
737,1.32243,2.4691,1,4
738,1.32491,2.4699,1,4
739,1.32739,2.4709,1,4
740,1.32987,2.4723,1,4
741,1.33235,2.4736,1,4
742,1.33483,2.4746,1,4
743,1.33731,2.4759,1,4
744,1.33979,2.4775,1,4
745,1.34228,2.4788,1,4
746,1.34476,2.48,1,4
747,1.34725,2.4816,1,4
748,1.34974,2.4832,1,4
749,1.35223,2.4845,1,4
750,1.35473,2.486,1,4
751,1.35722,2.4877,1,4
752,1.35972,2.4895,1,4
753,1.36222,2.4912,1,4
754,1.36472,2.493,1,4
755,1.36723,2.4951,1,4
756,1.36973,2.4971,1,4
757,1.37224,2.499,1,4
758,1.37475,2.5008,1,4
759,1.37726,2.503,1,4
760,1.37978,2.5048,1,4
761,1.38229,2.5066,1,4
762,1.38481,2.5084,1,4
763,1.38732,2.5103,1,4
764,1.38984,2.5119,1,4
765,1.39236,2.5136,1,4
766,1.39489,2.5155,1,4
767,1.39742,2.5175,1,4
768,1.39994,2.5192,1,4
769,1.40247,2.5207,1,4
770,1.405,2.5226,1,4
771,1.40753,2.5245,1,4
772,1.41007,2.5265,1,4
773,1.41261,2.5283,1,4
774,1.41515,2.5302,1,4
775,1.41769,2.5322,1,4
776,1.42023,2.5341,1,4
777,1.42277,2.5357,1,4
778,1.42532,2.538,1,4
779,1.42787,2.54,1,4
780,1.43042,2.5419,1,4
781,1.43298,2.544,1,4
782,1.43553,2.5461,1,4
783,1.43809,2.5479,1,4
784,1.44064,2.55,1,4
785,1.44321,2.5522,1,4
786,1.44577,2.554,1,4
787,1.44833,2.5559,1,4
788,1.4509,2.5579,1,4
789,1.45347,2.5603,1,4
790,1.45604,2.5622,1,4
791,1.45862,2.5643,1,4
792,1.46119,2.5662,1,4
793,1.46377,2.5685,1,4
794,1.46635,2.5707,1,4
795,1.46894,2.5729,1,4
796,1.47152,2.5752,1,4
797,1.47411,2.5776,1,4
798,1.4767,2.5797,1,4
799,1.47929,2.5818,1,4
800,1.48189,2.5846,1,4
801,1.48449,2.5867,1,4
802,1.48708,2.589,1,4
803,1.48969,2.5917,1,4
804,1.49229,2.5941,1,4
805,1.4949,2.5965,1,4
806,1.49751,2.5989,1,4
807,1.50013,2.6017,1,4
808,1.50274,2.6042,1,4
809,1.50536,2.607,1,4
810,1.50798,2.6094,1,4
811,1.51061,2.6123,1,4
812,1.51323,2.6149,1,4
813,1.51586,2.6174,1,4
814,1.5185,2.6201,1,4
815,1.52113,2.623,1,4
816,1.52377,2.6258,1,4
817,1.52641,2.6283,1,4
818,1.52905,2.6312,1,4
819,1.5317,2.6337,1,4
820,1.53435,2.6367,1,4
821,1.537,2.6394,1,4
822,1.53966,2.6424,1,4
823,1.54231,2.6448,1,4
824,1.54497,2.6475,1,4
825,1.54763,2.6501,1,4
826,1.5503,2.6527,1,4
827,1.55296,2.6555,1,4
828,1.55564,2.6583,1,4
829,1.55831,2.6608,1,4
830,1.56098,2.6632,1,4
831,1.56366,2.666,1,4
832,1.56634,2.6685,1,4
833,1.56902,2.6715,1,4
834,1.57171,2.6744,1,4
835,1.5744,2.677,1,4
836,1.57709,2.6798,1,4
837,1.57979,2.6825,1,4
838,1.58249,2.6854,1,4
839,1.58519,2.6887,1,4
840,1.58789,2.6912,1,4
841,1.5906,2.6936,1,4
842,1.5933,2.6964,1,4
843,1.59602,2.6992,1,4
844,1.59873,2.7017,1,4
845,1.60144,2.7042,1,4
846,1.60416,2.7068,1,4
847,1.60688,2.7092,1,4
848,1.6096,2.7114,1,4
849,1.61233,2.7138,1,4
850,1.61506,2.7165,1,4
851,1.61779,2.7193,1,4
852,1.62052,2.7218,1,4
853,1.62325,2.724,1,4
854,1.62599,2.7263,1,4
855,1.62873,2.7286,1,4
856,1.63147,2.7311,1,4
857,1.63421,2.7336,1,4
858,1.63696,2.7358,1,4
