cnt,pos,speed,Dir,Force,
1,3.30889,1.200,-1,5
2,3.31009,1.198,-1,5
3,3.31128,1.189,-1,5
4,3.31248,1.196,-1,5
5,3.31368,1.208,-1,5
6,3.31489,1.208,-1,5
7,3.31609,1.202,-1,5
8,3.31730,1.207,-1,5
9,3.31851,1.211,-1,5
10,3.31972,1.210,-1,5
11,3.32093,1.207,-1,5
12,3.32214,1.215,-1,5
13,3.32337,1.222,-1,5
14,3.32458,1.216,-1,5
15,3.32580,1.215,-1,5
16,3.32702,1.223,-1,5
17,3.32824,1.223,-1,5
18,3.32946,1.221,-1,5
19,3.33068,1.221,-1,5
20,3.33191,1.234,-1,5
21,3.33315,1.233,-1,5
22,3.33437,1.227,-1,5
23,3.33560,1.227,-1,5
24,3.33684,1.237,-1,5
25,3.33932,1.240,-1,5
26,3.34056,1.243,-1,5
27,3.34181,1.249,-1,5
28,3.34306,1.248,-1,5
29,3.34430,1.243,-1,5
30,3.34555,1.249,-1,5
31,3.34681,1.260,-1,5
32,3.34807,1.259,-1,5
33,3.34933,1.256,-1,5
34,3.35059,1.260,-1,5
35,3.35185,1.262,-1,5
36,3.35311,1.260,-1,5
37,3.35437,1.263,-1,5
38,3.35565,1.273,-1,5
39,3.35692,1.273,-1,5
40,3.35819,1.266,-1,5
41,3.35945,1.266,-1,5
42,3.36073,1.278,-1,5
43,3.36201,1.278,-1,5
44,3.36328,1.274,-1,5
45,3.36456,1.279,-1,5
46,3.36585,1.285,-1,5
47,3.36713,1.280,-1,5
48,3.36841,1.281,-1,5
49,3.36970,1.289,-1,5
50,3.37099,1.291,-1,5
51,3.37228,1.289,-1,5
52,3.37356,1.286,-1,5
53,3.37485,1.292,-1,5
54,3.37615,1.293,-1,5
55,3.37744,1.291,-1,5
56,3.37873,1.296,-1,5
57,3.38004,1.300,-1,5
58,3.38133,1.294,-1,5
59,3.38262,1.291,-1,5
60,3.38392,1.298,-1,5
61,3.38522,1.302,-1,5
62,3.38652,1.295,-1,5
63,3.38781,1.298,-1,5
64,3.38912,1.304,-1,5
65,3.39042,1.301,-1,5
66,3.39172,1.296,-1,5
67,3.39302,1.303,-1,5
68,3.39433,1.309,-1,5
69,3.39563,1.304,-1,5
70,3.39694,1.306,-1,5
71,3.39825,1.313,-1,5
72,3.39956,1.311,-1,5
73,3.40087,1.308,-1,5
74,3.40218,1.314,-1,5
75,3.40350,1.320,-1,5
76,3.40482,1.320,-1,5
77,3.40614,1.315,-1,5
78,3.40746,1.322,-1,5
79,3.40879,1.325,-1,5
80,3.41011,1.324,-1,5
81,3.41144,1.327,-1,5
82,3.41277,1.331,-1,5
83,3.41410,1.329,-1,5
84,3.41542,1.327,-1,5
85,3.41676,1.334,-1,5
86,3.41810,1.340,-1,5
87,3.41943,1.333,-1,5
88,3.42077,1.335,-1,5
89,3.42211,1.342,-1,5
90,3.42345,1.341,-1,5
91,3.42479,1.342,-1,5
92,3.42614,1.348,-1,5
93,3.42749,1.353,-1,5
94,3.42884,1.348,-1,5
95,3.43019,1.349,-1,5
96,3.43155,1.356,-1,5
97,3.43290,1.358,-1,5
98,3.43426,1.357,-1,5
99,3.43562,1.363,-1,5
100,3.43699,1.364,-1,5
101,3.43835,1.359,-1,5
102,3.43971,1.361,-1,5
103,3.44108,1.370,-1,5
104,3.44245,1.370,-1,5
105,3.44381,1.367,-1,5
106,3.44518,1.369,-1,5
107,3.44655,1.370,-1,5
108,3.44792,1.368,-1,5
109,3.44929,1.374,-1,5
110,3.45067,1.374,-1,5
111,3.45205,1.374,-1,5
112,3.45342,1.371,-1,5
113,3.45480,1.379,-1,5
114,3.45618,1.383,-1,5
115,3.45756,1.380,-1,5
116,3.45894,1.383,-1,5
117,3.46033,1.382,-1,5
118,3.46171,1.385,-1,5
119,3.46310,1.394,-1,5
120,3.46588,1.392,-1,5
121,3.46588,1.389,-1,5
122,3.46727,1.390,-1,5
123,3.46866,1.390,-1,5
124,3.47005,1.395,-1,5
125,3.47145,1.401,-1,5
126,3.47426,1.405,-1,5
127,3.47565,1.398,-1,5
128,3.47705,1.394,-1,5
129,3.47845,1.403,-1,5
130,3.47986,1.410,-1,5
131,3.48127,1.410,-1,5
132,3.48268,1.412,-1,5
133,3.48409,1.407,-1,5
134,3.48550,1.404,-1,5
135,3.48691,1.411,-1,5
136,3.48833,1.419,-1,5
137,3.48975,1.420,-1,5
138,3.49116,1.415,-1,5
139,3.49258,1.414,-1,5
140,3.49399,1.415,-1,5
141,3.49541,1.420,-1,5
142,3.49684,1.427,-1,5
143,3.49826,1.425,-1,5
144,3.49968,1.418,-1,5
145,3.50110,1.417,-1,5
146,3.50252,1.429,-1,5
147,3.50395,1.429,-1,5
148,3.50538,1.426,-1,5
149,3.50681,1.426,-1,5
150,3.50823,1.421,-1,5
151,3.50965,1.419,-1,5
152,3.51108,1.431,-1,5
153,3.51251,1.437,-1,5
154,3.51394,1.430,-1,5
155,3.51537,1.423,-1,5
156,3.51679,1.420,-1,5
157,3.51821,1.420,-1,5
158,3.51964,1.432,-1,5
159,3.52108,1.439,-1,5
160,3.52251,1.428,-1,5
161,3.52392,1.415,-1,5
162,3.52534,1.414,-1,5
163,3.52676,1.424,-1,5
164,3.52819,1.433,-1,5
165,3.52963,1.434,-1,5
166,3.53105,1.421,-1,5
167,3.53246,1.410,-1,5
168,3.53387,1.410,-1,5
169,3.53529,1.428,-1,5
170,3.53673,1.433,-1,5
171,3.53815,1.426,-1,5
172,3.53957,1.418,-1,5
173,3.54098,1.410,-1,5
174,3.54239,1.412,-1,5
175,3.54382,1.425,-1,5
176,3.54525,1.431,-1,5
177,3.54667,1.418,-1,5
178,3.54807,1.407,-1,5
179,3.54948,1.409,-1,5
180,3.55090,1.415,-1,5
181,3.55231,1.418,-1,5
182,3.55373,1.417,-1,5
183,3.55514,1.405,-1,5
184,3.55653,1.397,-1,5
185,3.55794,1.404,-1,5
186,3.55935,1.413,-1,5
187,3.56076,1.408,-1,5
188,3.56216,1.399,-1,5
189,3.56355,1.392,-1,5
190,3.56494,1.392,-1,5
191,3.56634,1.396,-1,5
192,3.56774,1.404,-1,5
193,3.56914,1.395,-1,5
194,3.57052,1.382,-1,5
195,3.57190,1.380,-1,5
196,3.57329,1.388,-1,5
197,3.57468,1.388,-1,5
198,3.57606,1.385,-1,5
199,3.57744,1.380,-1,5
200,3.57881,1.373,-1,5
201,3.58018,1.368,-1,5
202,3.58156,1.376,-1,5
203,3.58293,1.377,-1,5
204,3.58430,1.368,-1,5
205,3.58566,1.362,-1,5
206,3.58703,1.363,-1,5
207,3.58839,1.362,-1,5
208,3.58975,1.360,-1,5
209,3.59111,1.359,-1,5
210,3.59247,1.358,-1,5
211,3.59382,1.353,-1,5
212,3.59517,1.350,-1,5
213,3.59653,1.355,-1,5
214,3.59788,1.350,-1,5
215,3.59922,1.348,-1,5
216,3.60057,1.349,-1,5
217,3.60192,1.348,-1,5
218,3.60326,1.340,-1,5
219,3.60460,1.340,-1,5
220,3.60595,1.346,-1,5
221,3.60729,1.343,-1,5
222,3.60863,1.338,-1,5
223,3.60997,1.337,-1,5
224,3.61130,1.335,-1,5
225,3.61263,1.333,-1,5
226,3.61397,1.334,-1,5
227,3.61531,1.340,-1,5
228,3.61664,1.333,-1,5
229,3.61796,1.325,-1,5
230,3.61929,1.326,-1,5
231,3.62062,1.331,-1,5
232,3.62195,1.329,-1,5
233,3.62328,1.328,-1,5
234,3.62461,1.330,-1,5
235,3.62593,1.321,-1,5
236,3.62725,1.318,-1,5
237,3.62857,1.323,-1,5
238,3.62990,1.327,-1,5
239,3.63122,1.321,-1,5
240,3.63253,1.315,-1,5
241,3.63385,1.317,-1,5
242,3.63517,1.316,-1,5
243,3.63648,1.313,-1,5
244,3.63779,1.314,-1,5
245,3.63911,1.315,-1,5
246,3.64042,1.308,-1,5
247,3.64172,1.306,-1,5
248,3.64303,1.309,-1,5
249,3.64434,1.311,-1,5
250,3.64565,1.304,-1,5
251,3.64695,1.301,-1,5
252,3.64825,1.303,-1,5
253,3.64955,1.302,-1,5
254,3.65085,1.299,-1,5
255,3.65215,1.301,-1,5
256,3.65346,1.304,-1,5
257,3.65475,1.296,-1,5
258,3.65605,1.292,-1,5
259,3.65734,1.297,-1,5
260,3.65864,1.296,-1,5
261,3.65993,1.294,-1,5
262,3.66123,1.294,-1,5
263,3.66252,1.296,-1,5
264,3.66381,1.289,-1,5
265,3.66510,1.284,-1,5
266,3.66638,1.288,-1,5
267,3.66768,1.293,-1,5
268,3.66896,1.287,-1,5
269,3.67025,1.283,-1,5
270,3.67153,1.284,-1,5
271,3.67281,1.280,-1,5
272,3.67408,1.276,-1,5
273,3.67537,1.282,-1,5
274,3.67665,1.283,-1,5
275,3.67793,1.270,-1,5
276,3.67920,1.270,-1,5
277,3.68047,1.277,-1,5
278,3.68175,1.277,-1,5
279,3.68302,1.270,-1,5
280,3.68429,1.270,-1,5
281,3.68557,1.274,-1,5
282,3.68684,1.272,-1,5
283,3.68810,1.264,-1,5
284,3.68937,1.265,-1,5
285,3.69064,1.271,-1,5
286,3.69191,1.267,-1,5
287,3.69317,1.262,-1,5
288,3.69443,1.263,-1,5
289,3.69569,1.261,-1,5
290,3.69695,1.259,-1,5
291,3.69820,1.253,-1,5
292,3.69946,1.261,-1,5
293,3.70072,1.260,-1,5
294,3.70198,1.253,-1,5
295,3.70323,1.248,-1,5
296,3.70448,1.253,-1,5
297,3.70573,1.253,-1,5
298,3.70698,1.248,-1,5
299,3.70823,1.249,-1,5
300,3.70948,1.252,-1,5
301,3.71073,1.248,-1,5
302,3.71197,1.240,-1,5
303,3.71321,1.243,-1,5
304,3.71446,1.247,-1,5
305,3.71570,1.245,-1,5
306,3.71694,1.239,-1,5
307,3.71818,1.243,-1,5
308,3.71943,1.241,-1,5
309,3.72066,1.236,-1,5
310,3.72189,1.233,-1,5
311,3.72313,1.240,-1,5
312,3.72437,1.239,-1,5
313,3.72560,1.231,-1,5
314,3.72683,1.229,-1,5
315,3.72807,1.236,-1,5
316,3.72930,1.233,-1,5
317,3.73053,1.225,-1,5
318,3.73175,1.227,-1,5
319,3.73298,1.231,-1,5
320,3.73421,1.229,-1,5
321,3.73543,1.220,-1,5
322,3.73666,1.224,-1,5
323,3.73789,1.229,-1,5
324,3.73911,1.225,-1,5
325,3.74033,1.219,-1,5
326,3.74155,1.220,-1,5
327,3.74277,1.224,-1,5
328,3.74399,1.218,-1,5
329,3.74520,1.213,-1,5
330,3.74642,1.219,-1,5
331,3.74764,1.221,-1,5
332,3.74886,1.213,-1,5
333,3.75006,1.207,-1,5
334,3.75128,1.214,-1,5
335,3.75249,1.214,-1,5
336,3.75370,1.206,-1,5
337,3.75490,1.204,-1,5
338,3.75611,1.212,-1,5
339,3.75732,1.210,-1,5
340,3.75852,1.200,-1,5
341,3.75972,1.197,-1,5
342,3.76093,1.206,-1,5
343,3.76213,1.207,-1,5
344,3.76333,1.196,-1,5
345,3.76453,1.197,-1,5
346,3.76573,1.203,-1,5
347,3.76693,1.201,-1,5
348,3.76813,1.195,-1,5
349,3.76932,1.193,-1,5
350,3.77052,1.199,-1,5
351,3.77172,1.201,-1,5
352,3.77291,1.191,-1,5
353,3.77410,1.192,-1,5
354,3.77530,1.200,-1,5
355,3.77650,1.197,-1,5
356,3.77768,1.186,-1,5
357,3.77888,1.191,-1,5
358,3.78007,1.198,-1,5
359,3.78127,1.188,-1,5
360,3.78245,1.190,-1,5
361,3.78365,1.197,-1,5
362,3.78484,1.197,-1,5
363,3.78604,1.187,-1,5
364,3.78722,1.187,-1,5
365,3.78841,1.191,-1,5
366,3.78961,1.199,-1,5
367,3.79081,1.197,-1,5
368,3.79200,1.189,-1,5
369,3.79440,1.203,-1,5
370,3.79560,1.201,-1,5
371,3.79679,1.193,-1,5
372,3.79799,1.199,-1,5
373,3.79919,1.206,-1,5
374,3.80040,1.202,-1,5
375,3.80160,1.200,-1,5
376,3.80280,1.206,-1,5
377,3.80402,1.214,-1,5
378,3.80522,1.207,-1,5
379,3.80642,1.201,-1,5
380,3.80763,1.210,-1,5
381,3.80885,1.216,-1,5
382,3.81006,1.213,-1,5
383,3.81128,1.213,-1,5
384,3.81249,1.217,-1,5
385,3.81371,1.222,-1,5
386,3.81493,1.215,-1,5
387,3.81614,1.215,-1,5
388,3.81737,1.226,-1,5
389,3.81860,1.230,-1,5
390,3.81982,1.225,-1,5
391,3.82105,1.222,-1,5
392,3.82228,1.233,-1,5
393,3.82351,1.235,-1,5
394,3.82475,1.231,-1,5
395,3.82598,1.233,-1,5
396,3.82722,1.243,-1,5
397,3.82846,1.242,-1,5
398,3.82970,1.239,-1,5
399,3.83094,1.242,-1,5
400,3.83219,1.249,-1,5
401,3.83344,1.248,-1,5
402,3.83469,1.247,-1,5
403,3.83594,1.252,-1,5
404,3.83720,1.257,-1,5
405,3.83845,1.251,-1,5
406,3.83970,1.254,-1,5
407,3.84096,1.262,-1,5
408,3.84223,1.267,-1,5
409,3.84349,1.260,-1,5
410,3.84475,1.262,-1,5
411,3.84602,1.271,-1,5
412,3.84729,1.272,-1,5
413,3.84857,1.272,-1,5
414,3.84984,1.275,-1,5
415,3.85113,1.283,-1,5
416,3.85241,1.281,-1,5
417,3.85369,1.279,-1,5
418,3.85497,1.288,-1,5
419,3.85627,1.294,-1,5
420,3.85756,1.292,-1,5
421,3.85885,1.295,-1,5
422,3.86016,1.302,-1,5
423,3.86146,1.302,-1,5
424,3.86276,1.300,-1,5
425,3.86407,1.308,-1,5
426,3.86538,1.316,-1,5
427,3.86669,1.313,-1,5
428,3.86801,1.313,-1,5
429,3.86933,1.322,-1,5
430,3.87065,1.325,-1,5
431,3.87198,1.323,-1,5
432,3.87331,1.330,-1,5
433,3.87465,1.338,-1,5
434,3.87598,1.336,-1,5
435,3.87732,1.337,-1,5
436,3.87867,1.348,-1,5
437,3.88002,1.354,-1,5
438,3.88137,1.350,-1,5
439,3.88272,1.354,-1,5
440,3.88409,1.365,-1,5
441,3.88546,1.366,-1,5
442,3.88682,1.366,-1,5
443,3.88820,1.375,-1,5
444,3.88958,1.378,-1,5
445,3.89095,1.378,-1,5
446,3.89234,1.385,-1,5
447,3.89373,1.391,-1,5
448,3.89512,1.390,-1,5
449,3.89651,1.395,-1,5
450,3.89792,1.406,-1,5
451,3.89933,1.406,-1,5
452,3.90073,1.405,-1,5
453,3.90214,1.410,-1,5
454,3.90356,1.420,-1,5
455,3.90498,1.420,-1,5
456,3.90641,1.430,-1,5
457,3.90784,1.433,-1,5
458,3.90927,1.431,-1,5
459,3.91071,1.436,-1,5
460,3.91216,1.448,-1,5
461,3.91361,1.451,-1,5
462,3.91506,1.449,-1,5
463,3.91651,1.457,-1,5
464,3.91798,1.463,-1,5
465,3.91944,1.465,-1,5
466,3.92091,1.471,-1,5
467,3.92239,1.476,-1,5
468,3.92387,1.477,-1,5
469,3.92535,1.484,-1,5
470,3.92685,1.493,-1,5
471,3.92834,1.492,-1,5
472,3.92983,1.494,-1,5
473,3.93134,1.507,-1,5
474,3.93284,1.507,-1,5
475,3.93436,1.512,-1,5
476,3.93588,1.521,-1,5
477,3.93740,1.524,-1,5
478,3.93893,1.526,-1,5
479,3.94046,1.535,-1,5
480,3.94200,1.546,-1,5
481,3.94355,1.552,-1,5
482,3.94665,1.555,-1,5
483,3.94821,1.554,-1,5
484,3.94821,1.564,-1,5
485,3.95134,1.571,-1,5
486,3.95134,1.571,-1,5
487,3.95292,1.577,-1,5
488,3.95450,1.582,-1,5
489,3.95608,1.585,-1,5
490,3.95926,1.597,-1,5
491,3.96087,1.605,-1,5
492,3.96248,1.608,-1,5
493,3.96409,1.610,-1,5
494,3.96570,1.613,-1,5
495,3.96732,1.620,-1,5
496,3.96895,1.632,-1,5
497,3.97059,1.636,-1,5
498,3.97222,1.635,-1,5
499,3.97386,1.642,-1,5
500,3.97551,1.646,-1,5
501,3.97717,1.656,-1,5
502,3.97883,1.663,-1,5
503,3.98049,1.662,-1,5
504,3.98216,1.666,-1,5
505,3.98383,1.678,-1,5
506,3.98552,1.682,-1,5
507,3.98721,1.688,-1,5
508,3.98890,1.691,-1,5
509,3.99059,1.693,-1,5
510,3.99230,1.707,-1,5
511,3.99401,1.715,-1,5
512,3.99573,1.716,-1,5
513,3.99745,1.719,-1,5
514,3.99917,1.723,-1,5
515,4.00091,1.737,-1,5
516,4.00266,1.747,-1,5
517,4.00440,1.744,-1,5
518,4.00615,1.747,-1,5
519,4.00790,1.756,-1,5
520,4.00967,1.769,-1,5
521,4.01145,1.780,-1,5
522,4.01322,1.772,-1,5
523,4.01500,1.776,-1,5
524,4.01679,1.791,-1,5
525,4.01859,1.803,-1,5
526,4.02040,1.808,-1,5
527,4.02220,1.805,-1,5
528,4.02401,1.808,-1,5
529,4.02584,1.827,-1,5
530,4.02767,1.834,-1,5
531,4.02951,1.835,-1,5
532,4.03135,1.838,-1,5
533,4.03319,1.844,-1,5
534,4.03505,1.859,-1,5
535,4.03691,1.859,-1,5
536,4.03877,1.861,-1,5
537,4.04064,1.871,-1,5
538,4.04252,1.878,-1,5
539,4.04440,1.883,-1,5
540,4.04628,1.881,-1,5
541,4.04817,1.890,-1,5
542,4.05007,1.902,-1,5
543,4.05198,1.903,-1,5
544,4.05388,1.900,-1,5
545,4.05578,1.904,-1,5
546,4.05770,1.919,-1,5
547,4.05963,1.927,-1,5
548,4.06154,1.915,-1,5
549,4.06346,1.918,-1,5
550,4.06539,1.931,-1,5
551,4.06733,1.944,-1,5
552,4.06927,1.939,-1,5
553,4.07120,1.927,-1,5
554,4.07314,1.941,-1,5
555,4.07510,1.956,-1,5
556,4.07706,1.959,-1,5
557,4.07900,1.948,-1,5
558,4.08095,1.948,-1,5
559,4.08291,1.962,-1,5
560,4.08488,1.969,-1,5
561,4.08685,1.970,-1,5
562,4.08881,1.962,-1,5
563,4.09078,1.967,-1,5
564,4.09276,1.975,-1,5
565,4.09474,1.982,-1,5
566,4.09672,1.982,-1,5
567,4.09870,1.976,-1,5
568,4.10068,1.982,-1,5
569,4.10267,1.989,-1,5
570,4.10466,1.997,-1,5
571,4.10666,1.993,-1,5
572,4.10864,1.988,-1,5
573,4.11064,1.994,-1,5
574,4.11264,2.003,-1,5
575,4.11465,2.008,-1,5
576,4.11665,2.000,-1,5
577,4.11864,1.995,-1,5
578,4.12065,2.006,-1,5
579,4.12266,2.013,-1,5
580,4.12468,2.014,-1,5
581,4.12668,2.006,-1,5
582,4.12869,2.016,-1,5
583,4.13070,2.016,-1,5
584,4.13272,2.017,-1,5
585,4.13474,2.017,-1,5
586,4.13675,2.015,-1,5
587,4.14078,2.018,-1,5
588,4.14281,2.028,-1,5
589,4.14483,2.019,-1,5
590,4.14684,2.008,-1,5
591,4.14885,2.016,-1,5
592,4.15088,2.027,-1,5
593,4.15291,2.026,-1,5
594,4.15492,2.013,-1,5
595,4.15693,2.010,-1,5
596,4.15895,2.023,-1,5
597,4.16098,2.027,-1,5
598,4.16300,2.021,-1,5
599,4.16501,2.011,-1,5
600,4.16703,2.018,-1,5
601,4.16905,2.024,-1,5
602,4.17108,2.023,-1,5
603,4.17309,2.017,-1,5
604,4.17511,2.018,-1,5
605,4.17713,2.019,-1,5
606,4.17914,2.015,-1,5
607,4.18117,2.024,-1,5
608,4.18319,2.015,-1,5
609,4.18520,2.015,-1,5
610,4.18721,2.010,-1,5
611,4.18924,2.022,-1,5
612,4.19127,2.032,-1,5
613,4.19328,2.017,-1,5
614,4.19529,2.008,-1,5
615,4.19731,2.015,-1,5
616,4.19934,2.029,-1,5
617,4.20338,2.011,-1,5
618,4.20539,2.010,-1,5
619,4.20741,2.024,-1,5
620,4.20945,2.035,-1,5
621,4.21147,2.020,-1,5
622,4.21348,2.012,-1,5
623,4.21550,2.018,-1,5
624,4.21752,2.027,-1,5
625,4.21955,2.031,-1,5
626,4.22158,2.022,-1,5
627,4.22359,2.017,-1,5
628,4.22561,2.018,-1,5
629,4.22764,2.032,-1,5
630,4.22967,2.032,-1,5
631,4.23170,2.022,-1,5
632,4.23371,2.015,-1,5
633,4.23574,2.023,-1,5
634,4.23777,2.039,-1,5
635,4.23981,2.033,-1,5
636,4.24182,2.016,-1,5
637,4.24384,2.018,-1,5
638,4.24588,2.035,-1,5
639,4.24792,2.042,-1,5
640,4.24995,2.027,-1,5
641,4.25197,2.019,-1,5
642,4.25399,2.023,-1,5
643,4.25603,2.044,-1,5
644,4.25807,2.039,-1,5
645,4.26009,2.022,-1,5
646,4.26212,2.022,-1,5
647,4.26415,2.033,-1,5
648,4.26619,2.044,-1,5
649,4.26823,2.035,-1,5
650,4.27025,2.024,-1,5
651,4.27227,2.023,-1,5
652,4.27431,2.037,-1,5
653,4.27635,2.044,-1,5
654,4.27839,2.033,-1,5
655,4.28041,2.021,-1,5
656,4.28243,2.022,-1,5
657,4.28447,2.041,-1,5
658,4.28651,2.042,-1,5
659,4.28854,2.026,-1,5
660,4.29056,2.017,-1,5
661,4.29258,2.024,-1,5
662,4.29462,2.041,-1,5
663,4.29666,2.035,-1,5
664,4.29868,2.020,-1,5
665,4.30069,2.013,-1,5
666,4.30271,2.025,-1,5
667,4.30475,2.035,-1,5
668,4.30678,2.029,-1,5
669,4.30880,2.019,-1,5
670,4.31081,2.011,-1,5
671,4.31283,2.021,-1,5
672,4.31486,2.033,-1,5
673,4.31689,2.029,-1,5
674,4.31890,2.011,-1,5
675,4.32091,2.007,-1,5
676,4.32293,2.023,-1,5
677,4.32496,2.030,-1,5
678,4.32699,2.023,-1,5
679,4.32900,2.009,-1,5
680,4.33100,2.008,-1,5
681,4.33303,2.022,-1,5
682,4.33505,2.025,-1,5
683,4.33707,2.019,-1,5
684,4.33908,2.009,-1,5
685,4.34109,2.013,-1,5
686,4.34311,2.017,-1,5
687,4.34513,2.021,-1,5
688,4.34715,2.019,-1,5
689,4.34916,2.013,-1,5
690,4.35117,2.011,-1,5
691,4.35319,2.015,-1,5
692,4.35521,2.021,-1,5
693,4.35723,2.013,-1,5
694,4.35924,2.013,-1,5
695,4.36125,2.016,-1,5
696,4.36327,2.016,-1,5
697,4.36529,2.018,-1,5
698,4.36730,2.011,-1,5
699,4.36931,2.015,-1,5
700,4.37334,2.013,-1,5
701,4.37535,2.010,-1,5
702,4.37736,2.010,-1,5
703,4.37938,2.017,-1,5
704,4.38139,2.013,-1,5
705,4.38340,2.009,-1,5
706,4.38540,2.004,-1,5
707,4.38742,2.013,-1,5
708,4.38943,2.015,-1,5
709,4.39144,2.008,-1,5
710,4.39345,2.005,-1,5
711,4.39545,2.004,-1,5
712,4.39746,2.006,-1,5
713,4.39946,2.006,-1,5
714,4.40147,2.004,-1,5
715,4.40347,2.004,-1,5
716,4.40547,1.996,-1,5
717,4.40746,1.998,-1,5
718,4.40946,2.000,-1,5
719,4.41146,1.999,-1,5
720,4.41345,1.988,-1,5
721,4.41544,1.988,-1,5
722,4.41743,1.990,-1,5
723,4.41942,1.990,-1,5
724,4.42141,1.978,-1,5
725,4.42339,1.978,-1,5
726,4.42537,1.982,-1,5
727,4.42735,1.981,-1,5
728,4.42933,1.976,-1,5
729,4.43130,1.971,-1,5
730,4.43327,1.967,-1,5
731,4.43524,1.970,-1,5
732,4.43720,1.967,-1,5
733,4.43916,1.961,-1,5
734,4.44112,1.955,-1,5
735,4.44307,1.954,-1,5
736,4.44503,1.956,-1,5
737,4.44698,1.951,-1,5
738,4.44892,1.945,-1,5
739,4.45087,1.941,-1,5
740,4.45280,1.937,-1,5
741,4.45474,1.940,-1,5
742,4.45668,1.935,-1,5
743,4.45861,1.929,-1,5
744,4.46053,1.919,-1,5
745,4.46244,1.918,-1,5
746,4.46437,1.923,-1,5
747,4.46628,1.918,-1,5
748,4.46819,1.906,-1,5
749,4.47009,1.898,-1,5
750,4.47199,1.899,-1,5
751,4.47389,1.905,-1,5
752,4.47579,1.894,-1,5
753,4.47767,1.882,-1,5
754,4.47954,1.876,-1,5
755,4.48143,1.882,-1,5
756,4.48331,1.882,-1,5
757,4.48518,1.868,-1,5
758,4.48703,1.857,-1,5
759,4.48889,1.858,-1,5
760,4.49075,1.858,-1,5
761,4.49261,1.858,-1,5
762,4.49445,1.845,-1,5
763,4.49629,1.835,-1,5
764,4.49812,1.830,-1,5
765,4.49995,1.832,-1,5
766,4.50178,1.836,-1,5
767,4.50361,1.822,-1,5
768,4.50542,1.809,-1,5
769,4.50722,1.801,-1,5
770,4.50903,1.809,-1,5
771,4.51084,1.812,-1,5
772,4.51264,1.801,-1,5
773,4.51442,1.779,-1,5
774,4.51620,1.777,-1,5
775,4.51798,1.782,-1,5
776,4.51977,1.792,-1,5
777,4.52155,1.776,-1,5
778,4.52330,1.755,-1,5
779,4.52505,1.752,-1,5
780,4.52681,1.761,-1,5
781,4.52858,1.767,-1,5
782,4.53034,1.753,-1,5
783,4.53207,1.732,-1,5
784,4.53380,1.731,-1,5
785,4.53554,1.741,-1,5
786,4.53728,1.741,-1,5
787,4.53901,1.728,-1,5
788,4.54072,1.713,-1,5
789,4.54243,1.712,-1,5
790,4.54415,1.720,-1,5
791,4.54587,1.714,-1,5
792,4.54757,1.702,-1,5
793,4.54927,1.697,-1,5
794,4.55096,1.694,-1,5
795,4.55266,1.698,-1,5
796,4.55435,1.690,-1,5
797,4.55603,1.679,-1,5
798,4.55771,1.680,-1,5
799,4.55939,1.682,-1,5
800,4.56106,1.675,-1,5
801,4.56273,1.667,-1,5
802,4.56439,1.660,-1,5
803,4.56606,1.665,-1,5
804,4.56772,1.666,-1,5
805,4.56937,1.653,-1,5
806,4.57102,1.642,-1,5
807,4.57266,1.646,-1,5
808,4.57431,1.647,-1,5
809,4.57595,1.645,-1,5
810,4.57759,1.634,-1,5
811,4.57921,1.622,-1,5
812,4.58084,1.628,-1,5
813,4.58247,1.621,-1,5
814,4.58409,1.614,-1,5
815,4.58570,1.610,-1,5
816,4.58731,1.610,-1,5
817,4.58892,1.610,-1,5
818,4.59053,1.600,-1,5
819,4.59213,1.600,-1,5
820,4.59532,1.594,-1,5
821,4.59691,1.594,-1,5
822,4.59850,1.585,-1,5
823,4.60008,1.578,-1,5
824,4.60165,1.573,-1,5
825,4.60322,1.575,-1,5
826,4.60480,1.575,-1,5
827,4.60636,1.565,-1,5
828,4.60792,1.553,-1,5
829,4.60947,1.554,-1,5
830,4.61103,1.555,-1,5
831,4.61258,1.552,-1,5
832,4.61412,1.544,-1,5
833,4.61566,1.535,-1,5
834,4.61719,1.532,-1,5
835,4.61872,1.534,-1,5
836,4.62026,1.532,-1,5
837,4.62178,1.520,-1,5
838,4.62330,1.519,-1,5
839,4.62481,1.514,-1,5
840,4.62632,1.509,-1,5
841,4.62782,1.506,-1,5
842,4.62933,1.504,-1,5
843,4.63082,1.495,-1,5
844,4.63232,1.493,-1,5
845,4.63381,1.491,-1,5
846,4.63529,1.482,-1,5
847,4.63677,1.476,-1,5
848,4.63825,1.479,-1,5
849,4.63971,1.469,-1,5
850,4.64118,1.464,-1,5
851,4.64264,1.464,-1,5
852,4.64410,1.458,-1,5
853,4.64555,1.450,-1,5
854,4.64700,1.449,-1,5
855,4.64844,1.443,-1,5
856,4.64988,1.434,-1,5
857,4.65131,1.438,-1,5
858,4.65275,1.434,-1,5
859,4.65417,1.422,-1,5
860,4.65558,1.415,-1,5
861,4.65700,1.415,-1,5
862,4.65841,1.411,-1,5
863,4.65982,1.406,-1,5
864,4.66122,1.405,-1,5
865,4.66262,1.394,-1,5
866,4.66400,1.384,-1,5
867,4.66539,1.386,-1,5
868,4.66678,1.389,-1,5
869,4.66816,1.380,-1,5
870,4.66953,1.372,-1,5
871,4.67090,1.371,-1,5
872,4.67226,1.366,-1,5
873,4.67363,1.361,-1,5
