cnt,pos,speed,Dir,Force,
1,0,1.0097,-1,4
2,0.00108981,1.0227,-1,4
3,0.00217986,1.0349,-1,4
4,0.00326991,1.0463,-1,4
5,0.00437999,1.0579,-1,4
6,0.00550985,1.0708,-1,4
7,0.00665998,1.0835,-1,4
8,0.00779986,1.0946,-1,4
9,0.00895,1.1053,-1,4
10,0.0101099,1.1177,-1,4
11,0.0113099,1.131,-1,4
12,0.0125098,1.1427,-1,4
13,0.01371,1.1532,-1,4
14,0.01492,1.1649,-1,4
15,0.01616,1.1781,-1,4
16,0.0174,1.19,-1,4
17,0.0186598,1.2001,-1,4
18,0.0199099,1.2111,-1,4
19,0.0211899,1.2242,-1,4
20,0.02248,1.2367,-1,4
21,0.0237799,1.2471,-1,4
22,0.02509,1.2575,-1,4
23,0.0264099,1.2693,-1,4
24,0.02774,1.2813,-1,4
25,0.0290799,1.2923,-1,4
26,0.0304399,1.3033,-1,4
27,0.0318,1.3144,-1,4
28,0.03317,1.3253,-1,4
29,0.03455,1.3362,-1,4
30,0.03596,1.3474,-1,4
31,0.03736,1.3581,-1,4
32,0.03878,1.3688,-1,4
33,0.0402,1.3797,-1,4
34,0.0416398,1.3906,-1,4
35,0.0430899,1.4011,-1,4
36,0.0445499,1.4115,-1,4
37,0.04602,1.4224,-1,4
38,0.0474999,1.4337,-1,4
39,0.049,1.4443,-1,4
40,0.0504999,1.454,-1,4
41,0.0520098,1.4646,-1,4
42,0.05353,1.4757,-1,4
43,0.0550699,1.4868,-1,4
44,0.0566099,1.4968,-1,4
45,0.0581598,1.5068,-1,4
46,0.0597198,1.5167,-1,4
47,0.06129,1.527,-1,4
48,0.0628798,1.5376,-1,4
49,0.0644698,1.5477,-1,4
50,0.0660698,1.5589,-1,4
51,0.0693099,1.5704,-1,4
52,0.0693099,1.5806,-1,4
53,0.07094,1.5903,-1,4
54,0.0725799,1.6006,-1,4
55,0.07423,1.6106,-1,4
56,0.0758898,1.6206,-1,4
57,0.07757,1.6309,-1,4
58,0.0792599,1.6409,-1,4
59,0.08094,1.6503,-1,4
60,0.0826399,1.6591,-1,4
61,0.0843599,1.6677,-1,4
62,0.0860798,1.6776,-1,4
63,0.0878098,1.6872,-1,4
64,0.08955,1.6966,-1,4
65,0.0913,1.7065,-1,4
66,0.09306,1.7171,-1,4
67,0.0948398,1.7269,-1,4
68,0.0966198,1.7361,-1,4
69,0.0983999,1.746,-1,4
70,0.1002,1.7562,-1,4
71,0.10203,1.767,-1,4
72,0.10385,1.7768,-1,4
73,0.10568,1.7863,-1,4
74,0.10751,1.7964,-1,4
75,0.10937,1.8072,-1,4
76,0.11124,1.8175,-1,4
77,0.11311,1.8274,-1,4
78,0.115,1.8379,-1,4
79,0.11689,1.8491,-1,4
80,0.11881,1.8606,-1,4
81,0.12074,1.8711,-1,4
82,0.12266,1.8812,-1,4
83,0.1246,1.8924,-1,4
84,0.12656,1.9045,-1,4
85,0.12853,1.9164,-1,4
86,0.13051,1.9274,-1,4
87,0.1325,1.9383,-1,4
88,0.1345,1.9501,-1,4
89,0.13651,1.9621,-1,4
90,0.13854,1.9732,-1,4
91,0.14058,1.9844,-1,4
92,0.14263,1.9966,-1,4
93,0.14469,2.0088,-1,4
94,0.14676,2.0204,-1,4
95,0.14885,2.0317,-1,4
96,0.15095,2.0435,-1,4
97,0.15305,2.0557,-1,4
98,0.15517,2.0673,-1,4
99,0.1573,2.0789,-1,4
100,0.15945,2.0908,-1,4
101,0.16161,2.1026,-1,4
102,0.16378,2.1147,-1,4
103,0.16596,2.1272,-1,4
104,0.16816,2.1397,-1,4
105,0.17036,2.1513,-1,4
106,0.17258,2.163,-1,4
107,0.17481,2.1755,-1,4
108,0.17705,2.1884,-1,4
109,0.17931,2.2004,-1,4
110,0.18157,2.2119,-1,4
111,0.18384,2.2236,-1,4
112,0.18614,2.2359,-1,4
113,0.18844,2.2477,-1,4
114,0.19075,2.2587,-1,4
115,0.19306,2.27,-1,4
116,0.1954,2.2818,-1,4
117,0.19774,2.2933,-1,4
118,0.20009,2.3039,-1,4
119,0.20245,2.3143,-1,4
120,0.20483,2.3254,-1,4
121,0.20721,2.3365,-1,4
122,0.2096,2.3464,-1,4
123,0.212,2.3559,-1,4
124,0.21441,2.3661,-1,4
125,0.21683,2.3762,-1,4
126,0.21926,2.3859,-1,4
127,0.22169,2.3948,-1,4
128,0.22413,2.4035,-1,4
129,0.22658,2.4127,-1,4
130,0.22904,2.4214,-1,4
131,0.2315,2.429,-1,4
132,0.23397,2.4367,-1,4
133,0.23645,2.4446,-1,4
134,0.23893,2.4515,-1,4
135,0.24141,2.4579,-1,4
136,0.2439,2.4641,-1,4
137,0.24639,2.4702,-1,4
138,0.24889,2.4757,-1,4
139,0.25139,2.4807,-1,4
140,0.25389,2.4852,-1,4
141,0.2564,2.4896,-1,4
142,0.2589,2.4938,-1,4
143,0.26141,2.4968,-1,4
144,0.26643,2.4999,-1,4
145,0.26894,2.5026,-1,4
146,0.27145,2.5042,-1,4
147,0.27396,2.5056,-1,4
148,0.27647,2.5071,-1,4
149,0.27897,2.5073,-1,4
150,0.28147,2.5071,-1,4
151,0.28397,2.507,-1,4
152,0.28647,2.5059,-1,4
153,0.28896,2.5044,-1,4
154,0.29145,2.5024,-1,4
155,0.29394,2.5004,-1,4
156,0.29642,2.4977,-1,4
157,0.2989,2.4946,-1,4
158,0.30138,2.4912,-1,4
159,0.30385,2.4879,-1,4
160,0.3063,2.4834,-1,4
161,0.30876,2.4786,-1,4
162,0.31121,2.4737,-1,4
163,0.31365,2.4688,-1,4
164,0.31609,2.4633,-1,4
165,0.31851,2.4573,-1,4
166,0.32093,2.4512,-1,4
167,0.32335,2.4447,-1,4
168,0.32575,2.4375,-1,4
169,0.32815,2.4307,-1,4
170,0.33054,2.4239,-1,4
171,0.33292,2.4163,-1,4
172,0.33529,2.4086,-1,4
173,0.33766,2.4007,-1,4
174,0.34001,2.3928,-1,4
175,0.34236,2.3839,-1,4
176,0.34703,2.3748,-1,4
177,0.34703,2.3654,-1,4
178,0.34935,2.357,-1,4
179,0.35166,2.348,-1,4
180,0.35396,2.3391,-1,4
181,0.35625,2.3306,-1,4
182,0.35854,2.3219,-1,4
183,0.36081,2.3131,-1,4
184,0.36307,2.3036,-1,4
185,0.36533,2.2952,-1,4
186,0.36758,2.2863,-1,4
187,0.37204,2.2769,-1,4
188,0.37204,2.2667,-1,4
189,0.37647,2.2568,-1,4
190,0.37647,2.2479,-1,4
191,0.37867,2.2386,-1,4
192,0.38086,2.229,-1,4
193,0.38304,2.2191,-1,4
194,0.38521,2.2101,-1,4
195,0.38737,2.2008,-1,4
196,0.38953,2.1922,-1,4
197,0.39167,2.1839,-1,4
198,0.3938,2.1755,-1,4
199,0.39593,2.1667,-1,4
200,0.39804,2.157,-1,4
201,0.40015,2.1473,-1,4
202,0.40224,2.1381,-1,4
203,0.40433,2.1295,-1,4
204,0.40642,2.1206,-1,4
205,0.40849,2.1117,-1,4
206,0.41055,2.1022,-1,4
207,0.4126,2.0935,-1,4
208,0.41669,2.0843,-1,4
209,0.41872,2.0748,-1,4
210,0.42074,2.0651,-1,4
211,0.42276,2.0565,-1,4
212,0.42477,2.0477,-1,4
213,0.42677,2.0385,-1,4
214,0.42876,2.0292,-1,4
215,0.43074,2.0204,-1,4
216,0.43272,2.0127,-1,4
217,0.43469,2.0042,-1,4
218,0.43666,1.9965,-1,4
219,0.43862,1.9897,-1,4
220,0.44058,1.9836,-1,4
221,0.44252,1.9767,-1,4
222,0.44447,1.9698,-1,4
223,0.4464,1.9636,-1,4
224,0.44833,1.9577,-1,4
225,0.45026,1.9521,-1,4
226,0.45219,1.9462,-1,4
227,0.45411,1.9413,-1,4
228,0.45602,1.9364,-1,4
229,0.45793,1.9312,-1,4
230,0.45984,1.9261,-1,4
231,0.46174,1.9218,-1,4
232,0.46365,1.9181,-1,4
233,0.46555,1.9142,-1,4
234,0.46744,1.9103,-1,4
235,0.46933,1.9069,-1,4
236,0.47123,1.9038,-1,4
237,0.47311,1.9006,-1,4
238,0.475,1.8974,-1,4
239,0.47688,1.8948,-1,4
240,0.47876,1.8927,-1,4
241,0.48065,1.8905,-1,4
242,0.48253,1.8881,-1,4
243,0.4844,1.8859,-1,4
244,0.48628,1.8846,-1,4
245,0.48817,1.8833,-1,4
246,0.49004,1.882,-1,4
247,0.49192,1.8808,-1,4
248,0.4938,1.8802,-1,4
249,0.49568,1.8797,-1,4
250,0.49756,1.8796,-1,4
251,0.49944,1.8795,-1,4
252,0.50133,1.8799,-1,4
253,0.50321,1.8806,-1,4
254,0.50509,1.8809,-1,4
255,0.50698,1.8815,-1,4
256,0.50887,1.8829,-1,4
257,0.51076,1.8842,-1,4
258,0.51266,1.8856,-1,4
259,0.51455,1.887,-1,4
260,0.51645,1.8888,-1,4
261,0.51835,1.891,-1,4
262,0.52026,1.893,-1,4
263,0.52216,1.8948,-1,4
264,0.52407,1.8974,-1,4
265,0.52598,1.9003,-1,4
266,0.5279,1.9028,-1,4
267,0.52982,1.9057,-1,4
268,0.53174,1.9086,-1,4
269,0.53367,1.912,-1,4
270,0.5356,1.9152,-1,4
271,0.53754,1.9183,-1,4
272,0.53947,1.9216,-1,4
273,0.54141,1.9254,-1,4
274,0.54336,1.9291,-1,4
275,0.54531,1.9328,-1,4
276,0.54727,1.9368,-1,4
277,0.54923,1.9407,-1,4
278,0.55118,1.9455,-1,4
279,0.55513,1.9509,-1,4
280,0.55711,1.9555,-1,4
281,0.55909,1.9597,-1,4
282,0.56107,1.9642,-1,4
283,0.56306,1.9697,-1,4
284,0.56507,1.9757,-1,4
285,0.56707,1.9802,-1,4
286,0.56907,1.9844,-1,4
287,0.57108,1.9895,-1,4
288,0.5731,1.9949,-1,4
289,0.57512,1.9991,-1,4
290,0.57715,2.0034,-1,4
291,0.57918,2.0085,-1,4
292,0.58121,2.0142,-1,4
293,0.58326,2.0193,-1,4
294,0.58531,2.0234,-1,4
295,0.58736,2.0287,-1,4
296,0.58941,2.0341,-1,4
297,0.59148,2.0395,-1,4
298,0.59354,2.0442,-1,4
299,0.59562,2.0495,-1,4
300,0.5977,2.0548,-1,4
301,0.59978,2.0599,-1,4
302,0.60187,2.0652,-1,4
303,0.60396,2.0704,-1,4
304,0.60606,2.0759,-1,4
305,0.60817,2.0808,-1,4
306,0.61028,2.0865,-1,4
307,0.6124,2.0924,-1,4
308,0.61453,2.098,-1,4
309,0.61665,2.1033,-1,4
310,0.61879,2.1091,-1,4
311,0.62093,2.1157,-1,4
312,0.62308,2.1217,-1,4
313,0.62524,2.1274,-1,4
314,0.6274,2.1332,-1,4
315,0.62957,2.1402,-1,4
316,0.63175,2.147,-1,4
317,0.63393,2.153,-1,4
318,0.63612,2.1592,-1,4
319,0.63832,2.1662,-1,4
320,0.64053,2.1738,-1,4
321,0.64274,2.1806,-1,4
322,0.64496,2.1873,-1,4
323,0.64718,2.1944,-1,4
324,0.64942,2.2025,-1,4
325,0.65167,2.2099,-1,4
326,0.65392,2.2174,-1,4
327,0.65618,2.2249,-1,4
328,0.65845,2.2334,-1,4
329,0.66073,2.2416,-1,4
330,0.66302,2.2494,-1,4
331,0.66531,2.2572,-1,4
332,0.66762,2.2659,-1,4
333,0.66994,2.2752,-1,4
334,0.67226,2.2836,-1,4
335,0.67459,2.2921,-1,4
336,0.67694,2.3011,-1,4
337,0.67929,2.311,-1,4
338,0.68166,2.3203,-1,4
339,0.68403,2.3295,-1,4
340,0.68641,2.3391,-1,4
341,0.68881,2.3496,-1,4
342,0.69122,2.3597,-1,4
343,0.69363,2.3695,-1,4
344,0.69606,2.3799,-1,4
345,0.6985,2.3909,-1,4
346,0.70095,2.4016,-1,4
347,0.70341,2.4121,-1,4
348,0.70589,2.423,-1,4
349,0.70837,2.4345,-1,4
350,0.71087,2.4457,-1,4
351,0.71338,2.4568,-1,4
352,0.7159,2.4687,-1,4
353,0.71844,2.4805,-1,4
354,0.72098,2.4922,-1,4
355,0.72355,2.5045,-1,4
356,0.72612,2.5168,-1,4
357,0.72871,2.5293,-1,4
358,0.73131,2.5418,-1,4
359,0.73392,2.5543,-1,4
360,0.73655,2.5676,-1,4
361,0.73919,2.581,-1,4
362,0.74184,2.5939,-1,4
363,0.74451,2.6074,-1,4
364,0.7472,2.6213,-1,4
365,0.74989,2.6346,-1,4
366,0.75261,2.6485,-1,4
367,0.75533,2.6626,-1,4
368,0.75807,2.6769,-1,4
369,0.76083,2.6913,-1,4
370,0.7636,2.7057,-1,4
371,0.76639,2.7201,-1,4
372,0.76919,2.7348,-1,4
373,0.77201,2.7497,-1,4
374,0.77484,2.7649,-1,4
375,0.77769,2.7802,-1,4
376,0.78056,2.7954,-1,4
377,0.78344,2.8111,-1,4
378,0.78634,2.8268,-1,4
379,0.78926,2.8428,-1,4
380,0.79219,2.8589,-1,4
381,0.79514,2.8754,-1,4
382,0.79811,2.8922,-1,4
383,0.8011,2.909,-1,4
384,0.8041,2.9256,-1,4
385,0.80712,2.9424,-1,4
386,0.81016,2.9599,-1,4
387,0.81321,2.9771,-1,4
388,0.81629,2.9943,-1,4
389,0.81938,3.0119,-1,4
390,0.82249,3.0294,-1,4
391,0.82561,3.0469,-1,4
392,0.82876,3.0647,-1,4
393,0.83192,3.0825,-1,4
394,0.8351,3.1004,-1,4
395,0.8383,3.1184,-1,4
396,0.84152,3.1361,-1,4
397,0.84475,3.1538,-1,4
398,0.848,3.1717,-1,4
399,0.85127,3.1893,-1,4
400,0.85455,3.2069,-1,4
401,0.85786,3.2249,-1,4
402,0.86118,3.2422,-1,4
403,0.86452,3.2596,-1,4
404,0.86787,3.2772,-1,4
405,0.87125,3.2947,-1,4
406,0.87463,3.3116,-1,4
407,0.87803,3.3283,-1,4
408,0.88146,3.3454,-1,4
409,0.88489,3.3622,-1,4
410,0.88834,3.3788,-1,4
411,0.8918,3.3943,-1,4
412,0.89528,3.4102,-1,4
413,0.89877,3.4255,-1,4
414,0.90228,3.4404,-1,4
415,0.9058,3.455,-1,4
416,0.90933,3.4694,-1,4
417,0.91287,3.4837,-1,4
418,0.91643,3.4972,-1,4
419,0.91999,3.5102,-1,4
420,0.92357,3.523,-1,4
421,0.92716,3.5357,-1,4
422,0.93076,3.5476,-1,4
423,0.93437,3.5592,-1,4
424,0.93798,3.5703,-1,4
425,0.94161,3.581,-1,4
426,0.94524,3.5915,-1,4
427,0.94888,3.6007,-1,4
428,0.95252,3.6094,-1,4
429,0.95617,3.6175,-1,4
430,0.95982,3.6251,-1,4
431,0.96348,3.6321,-1,4
432,0.96714,3.6381,-1,4
433,0.9708,3.6438,-1,4
434,0.97447,3.6489,-1,4
435,0.97814,3.6531,-1,4
436,0.98181,3.6562,-1,4
437,0.98547,3.6595,-1,4
438,0.98914,3.6619,-1,4
439,0.99281,3.6638,-1,4
440,0.99647,3.6648,-1,4
441,1.00014,3.6656,-1,4
442,1.0038,3.666,-1,4
443,1.00746,3.6657,-1,4
444,1.01112,3.6646,-1,4
445,1.01477,3.6634,-1,4
446,1.01843,3.662,-1,4
447,1.02207,3.6599,-1,4
448,1.02572,3.6576,-1,4
449,1.02936,3.655,-1,4
450,1.03299,3.6519,-1,4
451,1.03662,3.6484,-1,4
452,1.04025,3.6447,-1,4
453,1.04386,3.6404,-1,4
454,1.04748,3.6358,-1,4
455,1.05108,3.6307,-1,4
456,1.05468,3.6255,-1,4
457,1.05827,3.62,-1,4
458,1.06186,3.6141,-1,4
459,1.06544,3.608,-1,4
460,1.06901,3.6016,-1,4
461,1.07257,3.5946,-1,4
462,1.07612,3.5876,-1,4
463,1.07967,3.5802,-1,4
464,1.08321,3.5729,-1,4
465,1.08674,3.5655,-1,4
466,1.09026,3.5575,-1,4
467,1.09377,3.5495,-1,4
468,1.09727,3.541,-1,4
469,1.10076,3.5323,-1,4
470,1.10424,3.5236,-1,4
471,1.10772,3.5147,-1,4
472,1.11118,3.5056,-1,4
473,1.11463,3.4963,-1,4
474,1.11807,3.4867,-1,4
475,1.1215,3.4767,-1,4
476,1.12492,3.4668,-1,4
477,1.12833,3.4564,-1,4
478,1.13173,3.4461,-1,4
479,1.13511,3.4353,-1,4
480,1.13849,3.4246,-1,4
481,1.14186,3.4141,-1,4
482,1.14521,3.403,-1,4
483,1.14855,3.392,-1,4
484,1.15188,3.3808,-1,4
485,1.1552,3.3696,-1,4
486,1.1585,3.3581,-1,4
487,1.1618,3.3465,-1,4
488,1.16508,3.3347,-1,4
489,1.16835,3.3233,-1,4
490,1.1716,3.3115,-1,4
491,1.17485,3.299,-1,4
492,1.17808,3.2868,-1,4
493,1.18129,3.2745,-1,4
494,1.1845,3.2619,-1,4
495,1.18769,3.2496,-1,4
496,1.19087,3.2369,-1,4
497,1.19404,3.2245,-1,4
498,1.1972,3.212,-1,4
499,1.20034,3.1995,-1,4
500,1.20347,3.1865,-1,4
501,1.20658,3.1738,-1,4
502,1.20969,3.1611,-1,4
503,1.21277,3.148,-1,4
504,1.21585,3.1353,-1,4
505,1.21892,3.1224,-1,4
506,1.22197,3.1095,-1,4
507,1.22501,3.0967,-1,4
508,1.22803,3.084,-1,4
509,1.23104,3.0704,-1,4
510,1.23404,3.0574,-1,4
511,1.23702,3.0441,-1,4
512,1.23999,3.0306,-1,4
513,1.24295,3.0179,-1,4
514,1.2459,3.0049,-1,4
515,1.24883,2.9914,-1,4
516,1.25175,2.9786,-1,4
517,1.25466,2.9652,-1,4
518,1.25755,2.9521,-1,4
519,1.26043,2.9391,-1,4
520,1.2633,2.9264,-1,4
521,1.26616,2.9139,-1,4
522,1.269,2.9011,-1,4
523,1.27183,2.8882,-1,4
524,1.27465,2.8752,-1,4
525,1.27745,2.8624,-1,4
526,1.28025,2.8495,-1,4
527,1.28303,2.8372,-1,4
528,1.2858,2.8247,-1,4
529,1.28856,2.8126,-1,4
530,1.2913,2.8,-1,4
531,1.29404,2.788,-1,4
532,1.29677,2.7764,-1,4
533,1.29948,2.7645,-1,4
534,1.30218,2.753,-1,4
535,1.30487,2.7417,-1,4
536,1.30755,2.7303,-1,4
537,1.31022,2.7189,-1,4
538,1.31288,2.7078,-1,4
539,1.31553,2.6968,-1,4
540,1.31817,2.6861,-1,4
541,1.3208,2.6753,-1,4
542,1.32341,2.6643,-1,4
543,1.32602,2.6539,-1,4
544,1.32861,2.6434,-1,4
545,1.3312,2.6331,-1,4
546,1.33378,2.623,-1,4
547,1.33635,2.613,-1,4
548,1.33891,2.603,-1,4
549,1.34146,2.5933,-1,4
550,1.344,2.5836,-1,4
551,1.34654,2.5741,-1,4
552,1.34906,2.5653,-1,4
553,1.35158,2.5566,-1,4
554,1.35409,2.5478,-1,4
555,1.3566,2.5394,-1,4
556,1.3591,2.5316,-1,4
557,1.36159,2.5239,-1,4
558,1.36407,2.5163,-1,4
559,1.36655,2.5092,-1,4
560,1.36903,2.5026,-1,4
561,1.37149,2.4957,-1,4
562,1.37396,2.4894,-1,4
563,1.37642,2.4832,-1,4
564,1.37887,2.4777,-1,4
565,1.38132,2.4719,-1,4
566,1.38376,2.4665,-1,4
567,1.3862,2.4612,-1,4
568,1.38864,2.4566,-1,4
569,1.39107,2.4517,-1,4
570,1.3935,2.4474,-1,4
571,1.39593,2.4438,-1,4
572,1.39836,2.4401,-1,4
573,1.40078,2.4361,-1,4
574,1.4032,2.4328,-1,4
575,1.40562,2.4306,-1,4
576,1.40804,2.4278,-1,4
577,1.41045,2.4252,-1,4
578,1.41287,2.4232,-1,4
579,1.41529,2.422,-1,4
580,1.41771,2.4206,-1,4
581,1.42012,2.4193,-1,4
582,1.42254,2.4184,-1,4
583,1.42496,2.4185,-1,4
584,1.42738,2.4186,-1,4
585,1.42981,2.4187,-1,4
586,1.43223,2.4196,-1,4
587,1.43466,2.4213,-1,4
588,1.4371,2.4227,-1,4
589,1.43953,2.4245,-1,4
590,1.44197,2.4267,-1,4
591,1.44442,2.4298,-1,4
592,1.44687,2.4328,-1,4
593,1.44933,2.4365,-1,4
594,1.45179,2.4406,-1,4
595,1.45426,2.4453,-1,4
596,1.45673,2.45,-1,4
597,1.45922,2.4556,-1,4
598,1.46172,2.4618,-1,4
599,1.46422,2.4681,-1,4
600,1.46672,2.475,-1,4
601,1.46925,2.4825,-1,4
602,1.47178,2.4908,-1,4
603,1.47432,2.4991,-1,4
604,1.47687,2.508,-1,4
605,1.47944,2.5174,-1,4
606,1.48201,2.5276,-1,4
607,1.4846,2.5375,-1,4
608,1.4872,2.5484,-1,4
609,1.48982,2.5602,-1,4
610,1.49245,2.5726,-1,4
611,1.49509,2.5847,-1,4
612,1.49776,2.5979,-1,4
613,1.50044,2.6117,-1,4
614,1.50313,2.6261,-1,4
615,1.50585,2.6409,-1,4
616,1.50858,2.6566,-1,4
617,1.51133,2.673,-1,4
618,1.5141,2.6894,-1,4
619,1.51688,2.7064,-1,4
620,1.51969,2.7241,-1,4
621,1.52252,2.7425,-1,4
622,1.52537,2.7613,-1,4
623,1.52825,2.7808,-1,4
624,1.53114,2.8005,-1,4
625,1.53406,2.8208,-1,4
626,1.537,2.8416,-1,4
627,1.53996,2.8628,-1,4
628,1.54294,2.8843,-1,4
629,1.54595,2.9065,-1,4
630,1.54898,2.9288,-1,4
631,1.55204,2.9516,-1,4
632,1.55512,2.9745,-1,4
633,1.55822,2.9978,-1,4
634,1.56135,3.0214,-1,4
635,1.56451,3.0454,-1,4
636,1.56769,3.0692,-1,4
637,1.57089,3.0936,-1,4
638,1.57413,3.1185,-1,4
639,1.57739,3.1435,-1,4
640,1.58067,3.1684,-1,4
641,1.58398,3.1937,-1,4
642,1.58731,3.2189,-1,4
643,1.59067,3.2443,-1,4
644,1.59405,3.27,-1,4
645,1.59747,3.2956,-1,4
646,1.6009,3.3211,-1,4
647,1.60436,3.3468,-1,4
648,1.61136,3.3751,-1,4
649,1.6149,3.4027,-1,4
650,1.61846,3.4306,-1,4
651,1.62205,3.4587,-1,4
652,1.62566,3.4866,-1,4
653,1.6293,3.5144,-1,4
654,1.63295,3.5418,-1,4
655,1.63664,3.5691,-1,4
656,1.64035,3.5964,-1,4
657,1.64408,3.6235,-1,4
658,1.64784,3.6476,-1,4
659,1.65162,3.672,-1,4
660,1.65542,3.6958,-1,4
661,1.65924,3.7191,-1,4
662,1.66308,3.7421,-1,4
663,1.66694,3.7647,-1,4
664,1.67083,3.7871,-1,4
665,1.67473,3.8091,-1,4
666,1.67866,3.831,-1,4
667,1.68261,3.8523,-1,4
668,1.68657,3.8733,-1,4
669,1.69056,3.8939,-1,4
670,1.69456,3.9141,-1,4
671,1.69858,3.9338,-1,4
672,1.70262,3.9538,-1,4
673,1.70668,3.9735,-1,4
674,1.71075,3.9927,-1,4
675,1.71485,4.0115,-1,4
676,1.71896,4.0301,-1,4
677,1.72309,4.0481,-1,4
678,1.72723,4.0659,-1,4
679,1.73139,4.0831,-1,4
680,1.73556,4.1005,-1,4
681,1.73975,4.1177,-1,4
682,1.74396,4.1342,-1,4
683,1.74818,4.1499,-1,4
684,1.75241,4.1655,-1,4
685,1.75665,4.1805,-1,4
686,1.76091,4.1953,-1,4
687,1.76518,4.2099,-1,4
688,1.76947,4.2244,-1,4
689,1.77377,4.2383,-1,4
690,1.77808,4.2518,-1,4
691,1.7824,4.2649,-1,4
692,1.78673,4.2775,-1,4
693,1.79108,4.2906,-1,4
694,1.79544,4.3034,-1,4
695,1.79981,4.3156,-1,4
696,1.80418,4.3269,-1,4
697,1.80857,4.3382,-1,4
698,1.81296,4.3488,-1,4
699,1.81736,4.3593,-1,4
700,1.82177,4.3691,-1,4
701,1.82619,4.3786,-1,4
702,1.83061,4.3875,-1,4
703,1.83503,4.3952,-1,4
704,1.83946,4.4022,-1,4
705,1.8439,4.4092,-1,4
706,1.84834,4.4159,-1,4
707,1.85278,4.4217,-1,4
708,1.85723,4.427,-1,4
709,1.86168,4.4318,-1,4
710,1.86613,4.4361,-1,4
711,1.87058,4.4394,-1,4
712,1.87503,4.4423,-1,4
713,1.87948,4.445,-1,4
714,1.88393,4.447,-1,4
715,1.88838,4.4484,-1,4
716,1.89283,4.4488,-1,4
717,1.89727,4.4486,-1,4
718,1.90171,4.4479,-1,4
719,1.90615,4.4468,-1,4
720,1.91058,4.4451,-1,4
721,1.91501,4.443,-1,4
722,1.91944,4.4405,-1,4
723,1.92385,4.4368,-1,4
724,1.92826,4.4329,-1,4
725,1.93267,4.4284,-1,4
726,1.93707,4.4239,-1,4
727,1.94146,4.419,-1,4
728,1.94584,4.4132,-1,4
729,1.95021,4.4064,-1,4
730,1.95458,4.3995,-1,4
731,1.95893,4.3924,-1,4
732,1.96328,4.3848,-1,4
733,1.96762,4.377,-1,4
734,1.97195,4.3688,-1,4
735,1.97627,4.3599,-1,4
736,1.98057,4.3506,-1,4
737,1.98487,4.3411,-1,4
738,1.98916,4.3316,-1,4
739,1.99343,4.3222,-1,4
740,1.9977,4.312,-1,4
741,2.00195,4.3017,-1,4
742,2.00619,4.291,-1,4
743,2.01042,4.2799,-1,4
744,2.01463,4.2684,-1,4
745,2.01884,4.2574,-1,4
746,2.02303,4.246,-1,4
747,2.02721,4.2339,-1,4
748,2.03137,4.2213,-1,4
749,2.03552,4.2085,-1,4
750,2.03965,4.1956,-1,4
751,2.04378,4.1824,-1,4
752,2.04789,4.1691,-1,4
753,2.05198,4.1558,-1,4
754,2.05606,4.142,-1,4
755,2.06012,4.1275,-1,4
756,2.06416,4.1128,-1,4
757,2.0682,4.0986,-1,4
758,2.07221,4.0842,-1,4
759,2.07622,4.0699,-1,4
760,2.0802,4.055,-1,4
761,2.08417,4.0398,-1,4
762,2.08813,4.0241,-1,4
763,2.09206,4.0083,-1,4
764,2.09598,3.9928,-1,4
765,2.09989,3.9775,-1,4
766,2.10379,3.9628,-1,4
767,2.10767,3.9477,-1,4
768,2.11154,3.9325,-1,4
769,2.11538,3.9165,-1,4
770,2.11921,3.9011,-1,4
771,2.12303,3.8854,-1,4
772,2.12683,3.8704,-1,4
773,2.13062,3.8557,-1,4
774,2.13439,3.8409,-1,4
775,2.13815,3.8259,-1,4
776,2.1419,3.8106,-1,4
777,2.14562,3.795,-1,4
778,2.14933,3.7796,-1,4
779,2.15303,3.7644,-1,4
780,2.15671,3.7491,-1,4
781,2.16037,3.7342,-1,4
782,2.16402,3.7193,-1,4
783,2.16766,3.7041,-1,4
784,2.17128,3.6889,-1,4
785,2.17489,3.6736,-1,4
786,2.17847,3.658,-1,4
787,2.18205,3.6424,-1,4
788,2.1856,3.6271,-1,4
789,2.18915,3.612,-1,4
790,2.19267,3.5969,-1,4
791,2.19618,3.5814,-1,4
792,2.19968,3.5657,-1,4
793,2.20316,3.55,-1,4
794,2.20663,3.5346,-1,4
795,2.21008,3.5194,-1,4
796,2.21352,3.5042,-1,4
797,2.21694,3.4894,-1,4
798,2.22035,3.4743,-1,4
799,2.22374,3.4592,-1,4
800,2.22712,3.4441,-1,4
801,2.23048,3.4292,-1,4
802,2.23383,3.4143,-1,4
803,2.23716,3.3995,-1,4
804,2.24047,3.3844,-1,4
805,2.24378,3.3695,-1,4
806,2.24706,3.3546,-1,4
807,2.25034,3.3394,-1,4
808,2.2536,3.3247,-1,4
809,2.25684,3.3099,-1,4
810,2.26007,3.2951,-1,4
811,2.26328,3.2806,-1,4
812,2.26649,3.266,-1,4
813,2.26967,3.2514,-1,4
814,2.27285,3.2374,-1,4
815,2.27601,3.223,-1,4
816,2.27916,3.2091,-1,4
817,2.28229,3.1953,-1,4
818,2.28541,3.1814,-1,4
819,2.28852,3.1677,-1,4
820,2.29161,3.1542,-1,4
821,2.29469,3.1407,-1,4
822,2.29776,3.1276,-1,4
823,2.30082,3.115,-1,4
824,2.30387,3.1021,-1,4
825,2.3069,3.0896,-1,4
826,2.30993,3.0773,-1,4
827,2.31294,3.0653,-1,4
828,2.31594,3.0535,-1,4
829,2.31894,3.0421,-1,4
830,2.32192,3.0312,-1,4
831,2.32489,3.0203,-1,4
832,2.32786,3.0102,-1,4
833,2.33082,2.9999,-1,4
834,2.33377,2.99,-1,4
835,2.33671,2.9806,-1,4
836,2.33964,2.9714,-1,4
837,2.34257,2.9626,-1,4
838,2.34549,2.9543,-1,4
839,2.3484,2.9462,-1,4
840,2.3513,2.9384,-1,4
