cnt,pos,speed,Dir,Force,
1,3.11620,1.294,-1,4
2,3.11748,1.278,-1,4
3,3.11875,1.271,-1,4
4,3.12002,1.270,-1,4
5,3.12128,1.261,-1,4
6,3.12253,1.247,-1,4
7,3.12377,1.234,-1,4
8,3.12500,1.234,-1,4
9,3.12622,1.224,-1,4
10,3.12744,1.213,-1,4
11,3.12864,1.203,-1,4
12,3.12984,1.198,-1,4
13,3.13103,1.194,-1,4
14,3.13221,1.182,-1,4
15,3.13338,1.169,-1,4
16,3.13455,1.166,-1,4
17,3.13571,1.161,-1,4
18,3.13686,1.150,-1,4
19,3.13800,1.145,-1,4
20,3.13914,1.140,-1,4
21,3.14028,1.131,-1,4
22,3.14139,1.116,-1,4
23,3.14250,1.110,-1,4
24,3.14362,1.113,-1,4
25,3.14472,1.108,-1,4
26,3.14582,1.095,-1,4
27,3.14690,1.082,-1,4
28,3.14798,1.081,-1,4
29,3.14906,1.082,-1,4
30,3.15013,1.057,-1,4
31,3.15224,1.051,-1,4
32,3.15329,1.052,-1,4
33,3.15434,1.049,-1,4
34,3.15538,1.036,-1,4
35,3.15640,1.025,-1,4
36,3.15743,1.025,-1,4
37,3.15846,1.026,-1,4
38,3.15947,1.013,-1,4
39,3.16047,1.000,-1,4
40,3.16147,1.001,-1,4
41,3.16247,1.000,-1,4
42,3.16346,0.995,-1,4
43,3.16445,0.981,-1,4
44,3.16542,0.971,-1,4
45,3.16639,0.973,-1,4
46,3.16736,0.974,-1,4
47,3.16833,0.965,-1,4
48,3.16928,0.949,-1,4
49,3.17022,0.944,-1,4
50,3.17117,0.949,-1,4
51,3.17212,0.949,-1,4
52,3.17305,0.935,-1,4
53,3.17397,0.916,-1,4
54,3.17489,0.915,-1,4
55,3.17581,0.925,-1,4
56,3.17673,0.921,-1,4
57,3.17764,0.905,-1,4
58,3.17853,0.889,-1,4
59,3.17941,0.888,-1,4
60,3.18031,0.894,-1,4
61,3.18208,0.876,-1,4
62,3.18293,0.857,-1,4
63,3.18379,0.859,-1,4
64,3.18466,0.869,-1,4
65,3.18553,0.868,-1,4
66,3.18638,0.852,-1,4
67,3.18721,0.833,-1,4
68,3.18804,0.829,-1,4
69,3.18888,0.839,-1,4
70,3.18972,0.841,-1,4
71,3.19055,0.827,-1,4
72,3.19136,0.811,-1,4
73,3.19217,0.805,-1,4
74,3.19298,0.816,-1,4
75,3.19380,0.818,-1,4
76,3.19461,0.809,-1,4
77,3.19540,0.791,-1,4
78,3.19619,0.786,-1,4
79,3.19698,0.791,-1,4
80,3.19777,0.793,-1,4
81,3.19856,0.787,-1,4
82,3.19933,0.775,-1,4
83,3.20011,0.773,-1,4
84,3.20088,0.775,-1,4
85,3.20166,0.775,-1,4
86,3.20242,0.767,-1,4
87,3.20318,0.761,-1,4
88,3.20394,0.761,-1,4
89,3.20471,0.763,-1,4
90,3.20546,0.758,-1,4
91,3.20622,0.752,-1,4
92,3.20696,0.747,-1,4
93,3.20847,0.758,-1,4
94,3.20922,0.751,-1,4
95,3.20997,0.743,-1,4
96,3.21071,0.743,-1,4
97,3.21146,0.749,-1,4
98,3.21221,0.751,-1,4
99,3.21296,0.746,-1,4
100,3.21370,0.742,-1,4
101,3.21444,0.744,-1,4
102,3.21519,0.749,-1,4
103,3.21594,0.750,-1,4
104,3.21669,0.749,-1,4
105,3.21744,0.749,-1,4
106,3.21819,0.753,-1,4
107,3.21895,0.758,-1,4
108,3.21971,0.755,-1,4
109,3.22046,0.753,-1,4
110,3.22121,0.756,-1,4
111,3.22198,0.765,-1,4
112,3.22275,0.768,-1,4
113,3.22351,0.766,-1,4
114,3.22428,0.768,-1,4
115,3.22506,0.778,-1,4
116,3.22584,0.784,-1,4
117,3.22663,0.790,-1,4
118,3.22743,0.791,-1,4
119,3.22822,0.797,-1,4
120,3.22903,0.805,-1,4
121,3.23065,0.816,-1,4
122,3.23148,0.825,-1,4
123,3.23232,0.838,-1,4
124,3.23316,0.845,-1,4
125,3.23401,0.849,-1,4
126,3.23487,0.855,-1,4
127,3.23573,0.867,-1,4
128,3.23661,0.880,-1,4
129,3.23750,0.887,-1,4
130,3.23839,0.890,-1,4
131,3.23929,0.898,-1,4
132,3.24020,0.914,-1,4
133,3.24113,0.932,-1,4
134,3.24207,0.938,-1,4
135,3.24301,0.938,-1,4
136,3.24396,0.946,-1,4
137,3.24492,0.963,-1,4
138,3.24590,0.979,-1,4
139,3.24688,0.984,-1,4
140,3.24787,0.990,-1,4
141,3.24887,0.999,-1,4
142,3.24989,1.019,-1,4
143,3.25092,1.031,-1,4
144,3.25195,1.033,-1,4
145,3.25299,1.049,-1,4
146,3.25511,1.068,-1,4
147,3.25619,1.085,-1,4
148,3.25728,1.085,-1,4
149,3.25836,1.084,-1,4
150,3.25946,1.096,-1,4
151,3.26057,1.117,-1,4
152,3.26170,1.127,-1,4
153,3.26282,1.120,-1,4
154,3.26394,1.121,-1,4
155,3.26508,1.143,-1,4
156,3.26625,1.164,-1,4
157,3.26741,1.161,-1,4
158,3.26856,1.149,-1,4
159,3.26972,1.159,-1,4
160,3.27090,1.182,-1,4
161,3.27210,1.195,-1,4
162,3.27328,1.185,-1,4
163,3.27446,1.182,-1,4
164,3.27566,1.199,-1,4
165,3.27688,1.217,-1,4
166,3.27809,1.210,-1,4
167,3.27930,1.209,-1,4
168,3.28051,1.218,-1,4
169,3.28175,1.235,-1,4
170,3.28299,1.238,-1,4
171,3.28422,1.233,-1,4
172,3.28546,1.237,-1,4
173,3.28670,1.244,-1,4
174,3.28796,1.256,-1,4
175,3.28922,1.263,-1,4
176,3.29174,1.259,-1,4
177,3.29300,1.261,-1,4
178,3.29428,1.278,-1,4
179,3.29556,1.282,-1,4
180,3.29684,1.281,-1,4
181,3.29812,1.279,-1,4
182,3.29941,1.290,-1,4
183,3.30071,1.295,-1,4
184,3.30200,1.291,-1,4
185,3.30329,1.297,-1,4
186,3.30460,1.307,-1,4
187,3.30591,1.311,-1,4
188,3.30722,1.307,-1,4
189,3.30853,1.312,-1,4
190,3.30985,1.319,-1,4
191,3.31118,1.326,-1,4
192,3.31251,1.329,-1,4
193,3.31384,1.331,-1,4
194,3.31517,1.331,-1,4
195,3.31650,1.334,-1,4
196,3.31785,1.345,-1,4
197,3.31920,1.351,-1,4
198,3.32054,1.348,-1,4
199,3.32325,1.354,-1,4
200,3.32461,1.358,-1,4
201,3.32597,1.360,-1,4
202,3.32733,1.367,-1,4
203,3.32870,1.371,-1,4
204,3.33007,1.369,-1,4
205,3.33144,1.371,-1,4
206,3.33282,1.377,-1,4
207,3.33420,1.382,-1,4
208,3.33559,1.385,-1,4
209,3.33698,1.392,-1,4
210,3.33837,1.393,-1,4
211,3.33976,1.389,-1,4
212,3.34115,1.393,-1,4
213,3.34256,1.403,-1,4
214,3.34397,1.409,-1,4
215,3.34538,1.411,-1,4
216,3.34679,1.410,-1,4
217,3.34820,1.410,-1,4
218,3.34961,1.410,-1,4
219,3.35103,1.426,-1,4
220,3.35247,1.433,-1,4
221,3.35389,1.427,-1,4
222,3.35532,1.427,-1,4
223,3.35675,1.430,-1,4
224,3.35819,1.437,-1,4
225,3.35963,1.446,-1,4
226,3.36108,1.450,-1,4
227,3.36253,1.445,-1,4
228,3.36397,1.457,-1,4
229,3.36689,1.466,-1,4
230,3.36836,1.464,-1,4
231,3.36982,1.463,-1,4
232,3.37128,1.463,-1,4
233,3.37275,1.465,-1,4
234,3.37423,1.477,-1,4
235,3.37571,1.485,-1,4
236,3.37719,1.481,-1,4
237,3.37867,1.476,-1,4
238,3.38015,1.483,-1,4
239,3.38164,1.484,-1,4
240,3.38313,1.496,-1,4
241,3.38463,1.501,-1,4
242,3.38613,1.498,-1,4
243,3.38763,1.494,-1,4
244,3.38912,1.496,-1,4
245,3.39063,1.507,-1,4
246,3.39214,1.511,-1,4
247,3.39366,1.517,-1,4
248,3.39517,1.510,-1,4
249,3.39668,1.509,-1,4
250,3.39819,1.514,-1,4
251,3.39972,1.526,-1,4
252,3.40124,1.526,-1,4
253,3.40277,1.526,-1,4
254,3.40429,1.520,-1,4
255,3.40581,1.523,-1,4
256,3.40734,1.528,-1,4
257,3.40888,1.540,-1,4
258,3.41194,1.530,-1,4
259,3.41348,1.533,-1,4
260,3.41502,1.539,-1,4
261,3.41656,1.543,-1,4
262,3.41810,1.543,-1,4
263,3.41964,1.538,-1,4
264,3.42118,1.537,-1,4
265,3.42272,1.549,-1,4
266,3.42428,1.552,-1,4
267,3.42582,1.547,-1,4
268,3.42737,1.544,-1,4
269,3.42891,1.543,-1,4
270,3.43046,1.551,-1,4
271,3.43202,1.561,-1,4
272,3.43358,1.555,-1,4
273,3.43513,1.548,-1,4
274,3.43667,1.546,-1,4
275,3.43823,1.554,-1,4
276,3.43979,1.564,-1,4
277,3.44136,1.566,-1,4
278,3.44291,1.554,-1,4
279,3.44446,1.547,-1,4
280,3.44601,1.556,-1,4
281,3.44758,1.570,-1,4
282,3.44915,1.569,-1,4
283,3.45227,1.552,-1,4
284,3.45382,1.556,-1,4
285,3.45539,1.570,-1,4
286,3.45697,1.575,-1,4
287,3.45853,1.564,-1,4
288,3.46009,1.557,-1,4
289,3.46165,1.561,-1,4
290,3.46322,1.569,-1,4
291,3.46479,1.575,-1,4
292,3.46636,1.568,-1,4
293,3.46792,1.558,-1,4
294,3.46948,1.562,-1,4
295,3.47106,1.574,-1,4
296,3.47263,1.574,-1,4
297,3.47420,1.567,-1,4
298,3.47576,1.559,-1,4
299,3.47732,1.563,-1,4
300,3.47889,1.575,-1,4
301,3.48047,1.576,-1,4
302,3.48204,1.567,-1,4
303,3.48359,1.557,-1,4
304,3.48515,1.559,-1,4
305,3.48672,1.570,-1,4
306,3.48830,1.578,-1,4
307,3.48987,1.568,-1,4
308,3.49142,1.555,-1,4
309,3.49298,1.555,-1,4
310,3.49455,1.566,-1,4
311,3.49612,1.575,-1,4
312,3.49924,1.555,-1,4
313,3.50079,1.548,-1,4
314,3.50235,1.560,-1,4
315,3.50392,1.571,-1,4
316,3.50549,1.568,-1,4
317,3.50704,1.554,-1,4
318,3.50859,1.546,-1,4
319,3.51014,1.554,-1,4
320,3.51171,1.567,-1,4
321,3.51328,1.564,-1,4
322,3.51482,1.548,-1,4
323,3.51637,1.546,-1,4
324,3.51793,1.558,-1,4
325,3.51949,1.561,-1,4
326,3.52104,1.554,-1,4
327,3.52259,1.543,-1,4
328,3.52413,1.541,-1,4
329,3.52569,1.560,-1,4
330,3.52725,1.561,-1,4
331,3.52879,1.545,-1,4
332,3.53033,1.535,-1,4
333,3.53187,1.540,-1,4
334,3.53343,1.558,-1,4
335,3.53498,1.559,-1,4
336,3.53653,1.544,-1,4
337,3.53806,1.529,-1,4
338,3.53959,1.560,-1,4
339,3.54115,1.555,-1,4
340,3.54271,1.540,-1,4
341,3.54578,1.528,-1,4
342,3.54731,1.533,-1,4
343,3.55042,1.557,-1,4
344,3.55196,1.535,-1,4
345,3.55348,1.523,-1,4
346,3.55502,1.537,-1,4
347,3.55657,1.555,-1,4
348,3.55813,1.555,-1,4
349,3.55966,1.536,-1,4
350,3.56118,1.520,-1,4
351,3.56272,1.534,-1,4
352,3.56428,1.559,-1,4
353,3.56583,1.553,-1,4
354,3.56736,1.535,-1,4
355,3.56888,1.519,-1,4
356,3.57042,1.534,-1,4
357,3.57197,1.555,-1,4
358,3.57353,1.559,-1,4
359,3.57507,1.537,-1,4
360,3.57658,1.516,-1,4
361,3.57812,1.532,-1,4
362,3.57967,1.553,-1,4
363,3.58123,1.559,-1,4
364,3.58277,1.543,-1,4
365,3.58429,1.522,-1,4
366,3.58737,1.550,-1,4
367,3.58893,1.564,-1,4
368,3.59048,1.546,-1,4
369,3.59200,1.526,-1,4
370,3.59353,1.526,-1,4
371,3.59508,1.546,-1,4
372,3.59664,1.567,-1,4
373,3.59820,1.552,-1,4
374,3.59972,1.527,-1,4
375,3.60125,1.527,-1,4
376,3.60280,1.548,-1,4
377,3.60436,1.565,-1,4
378,3.60592,1.555,-1,4
379,3.60745,1.532,-1,4
380,3.60897,1.523,-1,4
381,3.61052,1.547,-1,4
382,3.61209,1.569,-1,4
383,3.61365,1.558,-1,4
384,3.61518,1.533,-1,4
385,3.61671,1.526,-1,4
386,3.61825,1.544,-1,4
387,3.61982,1.572,-1,4
388,3.62139,1.566,-1,4
389,3.62293,1.538,-1,4
390,3.62445,1.525,-1,4
391,3.62599,1.542,-1,4
392,3.62756,1.570,-1,4
393,3.62914,1.573,-1,4
394,3.63068,1.549,-1,4
395,3.63221,1.538,-1,4
396,3.63532,1.569,-1,4
397,3.63845,1.556,-1,4
398,3.63999,1.539,-1,4
399,3.64153,1.539,-1,4
400,3.64310,1.566,-1,4
401,3.64468,1.582,-1,4
402,3.64624,1.563,-1,4
403,3.64778,1.544,-1,4
404,3.64933,1.548,-1,4
405,3.65090,1.568,-1,4
406,3.65249,1.584,-1,4
407,3.65406,1.573,-1,4
408,3.65561,1.551,-1,4
409,3.65716,1.554,-1,4
410,3.65874,1.579,-1,4
411,3.66033,1.589,-1,4
412,3.66191,1.577,-1,4
413,3.66347,1.564,-1,4
414,3.66503,1.560,-1,4
415,3.66662,1.584,-1,4
416,3.66822,1.602,-1,4
417,3.66981,1.589,-1,4
418,3.67137,1.568,-1,4
419,3.67294,1.569,-1,4
420,3.67454,1.593,-1,4
421,3.67615,1.611,-1,4
422,3.67775,1.605,-1,4
423,3.67933,1.581,-1,4
424,3.68091,1.580,-1,4
425,3.68252,1.602,-1,4
426,3.68414,1.622,-1,4
427,3.68736,1.600,-1,4
428,3.68895,1.589,-1,4
429,3.69056,1.611,-1,4
430,3.69219,1.633,-1,4
431,3.69383,1.634,-1,4
432,3.69544,1.618,-1,4
433,3.69705,1.612,-1,4
434,3.69868,1.621,-1,4
435,3.70032,1.642,-1,4
436,3.70196,1.647,-1,4
437,3.70360,1.636,-1,4
438,3.70524,1.635,-1,4
439,3.70688,1.642,-1,4
440,3.70853,1.652,-1,4
441,3.71019,1.658,-1,4
442,3.71184,1.656,-1,4
443,3.71350,1.655,-1,4
444,3.71516,1.662,-1,4
445,3.71682,1.664,-1,4
446,3.71849,1.669,-1,4
447,3.72017,1.673,-1,4
448,3.72184,1.678,-1,4
449,3.72353,1.682,-1,4
450,3.72521,1.684,-1,4
451,3.72689,1.681,-1,4
452,3.72858,1.689,-1,4
453,3.73028,1.701,-1,4
454,3.73198,1.703,-1,4
455,3.73368,1.698,-1,4
456,3.73538,1.710,-1,4
457,3.73881,1.722,-1,4
458,3.74053,1.720,-1,4
459,3.74225,1.716,-1,4
460,3.74397,1.722,-1,4
461,3.74570,1.731,-1,4
462,3.74744,1.738,-1,4
463,3.74917,1.735,-1,4
464,3.75091,1.736,-1,4
465,3.75266,1.746,-1,4
466,3.75441,1.753,-1,4
467,3.75616,1.756,-1,4
468,3.75792,1.751,-1,4
469,3.75967,1.757,-1,4
470,3.76145,1.773,-1,4
471,3.76322,1.777,-1,4
472,3.76499,1.771,-1,4
473,3.76677,1.771,-1,4
474,3.76855,1.780,-1,4
475,3.77034,1.795,-1,4
476,3.77214,1.801,-1,4
477,3.77394,1.794,-1,4
478,3.77573,1.795,-1,4
479,3.77753,1.803,-1,4
480,3.77935,1.816,-1,4
481,3.78117,1.824,-1,4
482,3.78300,1.822,-1,4
483,3.78482,1.819,-1,4
484,3.78664,1.828,-1,4
485,3.78848,1.839,-1,4
486,3.79033,1.849,-1,4
487,3.79403,1.850,-1,4
488,3.79588,1.850,-1,4
489,3.79774,1.860,-1,4
490,3.79962,1.879,-1,4
491,3.80151,1.886,-1,4
492,3.80338,1.876,-1,4
493,3.80526,1.876,-1,4
494,3.80715,1.889,-1,4
495,3.80906,1.912,-1,4
496,3.81098,1.915,-1,4
497,3.81288,1.903,-1,4
498,3.81479,1.906,-1,4
499,3.81671,1.924,-1,4
500,3.81865,1.943,-1,4
501,3.82059,1.939,-1,4
502,3.82253,1.934,-1,4
503,3.82447,1.941,-1,4
504,3.82642,1.958,-1,4
505,3.82839,1.968,-1,4
506,3.83036,1.971,-1,4
507,3.83233,1.968,-1,4
508,3.83430,1.974,-1,4
509,3.83629,1.987,-1,4
510,3.83829,2.001,-1,4
511,3.84029,2.003,-1,4
512,3.84230,2.004,-1,4
513,3.84430,2.004,-1,4
514,3.84632,2.019,-1,4
515,3.84836,2.035,-1,4
516,3.85039,2.032,-1,4
517,3.85243,2.038,-1,4
518,3.85652,2.056,-1,4
519,3.85859,2.069,-1,4
520,3.86066,2.069,-1,4
521,3.86272,2.062,-1,4
522,3.86480,2.074,-1,4
523,3.86689,2.091,-1,4
524,3.86898,2.098,-1,4
525,3.87109,2.101,-1,4
526,3.87319,2.101,-1,4
527,3.87530,2.110,-1,4
528,3.87742,2.120,-1,4
529,3.87955,2.132,-1,4
530,3.88168,2.136,-1,4
531,3.88382,2.136,-1,4
532,3.88596,2.140,-1,4
533,3.88812,2.156,-1,4
534,3.89028,2.166,-1,4
535,3.89245,2.164,-1,4
536,3.89462,2.170,-1,4
537,3.89680,2.179,-1,4
538,3.89898,2.186,-1,4
539,3.90117,2.191,-1,4
540,3.90337,2.201,-1,4
541,3.90558,2.208,-1,4
542,3.90779,2.209,-1,4
543,3.91000,2.213,-1,4
544,3.91223,2.226,-1,4
545,3.91447,2.236,-1,4
546,3.91670,2.234,-1,4
547,3.91894,2.246,-1,4
548,3.92344,2.260,-1,4
549,3.92570,2.261,-1,4
550,3.92797,2.268,-1,4
551,3.93023,2.268,-1,4
552,3.93251,2.276,-1,4
553,3.93480,2.288,-1,4
554,3.93709,2.291,-1,4
555,3.93938,2.290,-1,4
556,3.94168,2.299,-1,4
557,3.94399,2.308,-1,4
558,3.94630,2.310,-1,4
559,3.94861,2.317,-1,4
560,3.95093,2.322,-1,4
561,3.95326,2.329,-1,4
562,3.95560,2.333,-1,4
563,3.95793,2.336,-1,4
564,3.96028,2.346,-1,4
565,3.96262,2.346,-1,4
566,3.96498,2.356,-1,4
567,3.96734,2.358,-1,4
568,3.96970,2.364,-1,4
569,3.97207,2.368,-1,4
570,3.97445,2.375,-1,4
571,3.97682,2.376,-1,4
572,3.97920,2.382,-1,4
573,3.98159,2.389,-1,4
574,3.98399,2.395,-1,4
575,3.98638,2.394,-1,4
576,3.98879,2.404,-1,4
577,3.99119,2.407,-1,4
578,3.99360,2.410,-1,4
579,3.99602,2.413,-1,4
580,4.00087,2.427,-1,4
581,4.00329,2.426,-1,4
582,4.00572,2.430,-1,4
583,4.00816,2.438,-1,4
584,4.01060,2.444,-1,4
585,4.01305,2.444,-1,4
586,4.01550,2.448,-1,4
587,4.01795,2.454,-1,4
588,4.02041,2.459,-1,4
589,4.02287,2.461,-1,4
590,4.02534,2.465,-1,4
591,4.02780,2.468,-1,4
592,4.03028,2.475,-1,4
593,4.03275,2.474,-1,4
594,4.03523,2.480,-1,4
595,4.03772,2.485,-1,4
596,4.04020,2.485,-1,4
597,4.04269,2.487,-1,4
598,4.04519,2.497,-1,4
599,4.04768,2.497,-1,4
600,4.05018,2.496,-1,4
601,4.05268,2.499,-1,4
602,4.05519,2.508,-1,4
603,4.06020,2.508,-1,4
604,4.06271,2.513,-1,4
605,4.06523,2.513,-1,4
606,4.06774,2.517,-1,4
607,4.07026,2.518,-1,4
608,4.07278,2.522,-1,4
609,4.07531,2.522,-1,4
610,4.07783,2.526,-1,4
611,4.08036,2.527,-1,4
612,4.08289,2.532,-1,4
613,4.08542,2.530,-1,4
614,4.08795,2.530,-1,4
615,4.09048,2.532,-1,4
616,4.09302,2.540,-1,4
617,4.09556,2.541,-1,4
618,4.09810,2.536,-1,4
619,4.10064,2.539,-1,4
620,4.10318,2.545,-1,4
621,4.10573,2.547,-1,4
622,4.10828,2.547,-1,4
623,4.11083,2.548,-1,4
624,4.11337,2.546,-1,4
625,4.11592,2.552,-1,4
626,4.11848,2.554,-1,4
627,4.12103,2.554,-1,4
628,4.12359,2.554,-1,4
629,4.12614,2.556,-1,4
630,4.12870,2.557,-1,4
631,4.13126,2.561,-1,4
632,4.13382,2.562,-1,4
633,4.13638,2.560,-1,4
634,4.14151,2.566,-1,4
635,4.14408,2.568,-1,4
636,4.14665,2.566,-1,4
637,4.14922,2.570,-1,4
638,4.15179,2.571,-1,4
639,4.15436,2.574,-1,4
640,4.15693,2.573,-1,4
641,4.15951,2.577,-1,4
642,4.16209,2.578,-1,4
643,4.16466,2.577,-1,4
644,4.16725,2.582,-1,4
645,4.16983,2.585,-1,4
646,4.17241,2.584,-1,4
647,4.17500,2.582,-1,4
648,4.17759,2.591,-1,4
649,4.18018,2.590,-1,4
650,4.18277,2.592,-1,4
651,4.18536,2.591,-1,4
652,4.18796,2.599,-1,4
653,4.19056,2.599,-1,4
654,4.19315,2.595,-1,4
655,4.19576,2.603,-1,4
656,4.19836,2.604,-1,4
657,4.20096,2.604,-1,4
658,4.20357,2.608,-1,4
659,4.20618,2.609,-1,4
660,4.20879,2.610,-1,4
661,4.21140,2.612,-1,4
662,4.21402,2.616,-1,4
663,4.21664,2.616,-1,4
664,4.22187,2.618,-1,4
665,4.22450,2.624,-1,4
666,4.22712,2.625,-1,4
667,4.22975,2.628,-1,4
668,4.23238,2.628,-1,4
669,4.23502,2.636,-1,4
670,4.23765,2.635,-1,4
671,4.24029,2.635,-1,4
672,4.24293,2.641,-1,4
673,4.24557,2.642,-1,4
674,4.24821,2.645,-1,4
675,4.25086,2.646,-1,4
676,4.25351,2.652,-1,4
677,4.25616,2.649,-1,4
678,4.25881,2.652,-1,4
679,4.26147,2.656,-1,4
680,4.26412,2.657,-1,4
681,4.26679,2.664,-1,4
682,4.26945,2.660,-1,4
683,4.27211,2.664,-1,4
684,4.27478,2.668,-1,4
685,4.27744,2.665,-1,4
686,4.28011,2.668,-1,4
687,4.28279,2.676,-1,4
688,4.28546,2.671,-1,4
689,4.28813,2.672,-1,4
690,4.29081,2.679,-1,4
691,4.29349,2.679,-1,4
692,4.29617,2.682,-1,4
693,4.29885,2.685,-1,4
694,4.30422,2.685,-1,4
695,4.30691,2.685,-1,4
696,4.30960,2.691,-1,4
697,4.31229,2.690,-1,4
698,4.31498,2.691,-1,4
699,4.31767,2.691,-1,4
700,4.32037,2.697,-1,4
701,4.32307,2.700,-1,4
702,4.32577,2.696,-1,4
703,4.32847,2.701,-1,4
704,4.33117,2.702,-1,4
705,4.33387,2.702,-1,4
706,4.33657,2.701,-1,4
707,4.33928,2.705,-1,4
708,4.34198,2.705,-1,4
709,4.34469,2.708,-1,4
710,4.34740,2.710,-1,4
711,4.35011,2.707,-1,4
712,4.35282,2.712,-1,4
713,4.35553,2.711,-1,4
714,4.35824,2.714,-1,4
715,4.36096,2.715,-1,4
716,4.36367,2.716,-1,4
717,4.36639,2.717,-1,4
718,4.36911,2.720,-1,4
719,4.37183,2.716,-1,4
720,4.37455,2.720,-1,4
721,4.37727,2.725,-1,4
722,4.38000,2.724,-1,4
723,4.38544,2.723,-1,4
724,4.38817,2.726,-1,4
725,4.39363,2.729,-1,4
726,4.39636,2.728,-1,4
727,4.39909,2.732,-1,4
728,4.40182,2.731,-1,4
729,4.40456,2.736,-1,4
730,4.40729,2.738,-1,4
731,4.41003,2.735,-1,4
732,4.41276,2.736,-1,4
733,4.41551,2.742,-1,4
734,4.41825,2.741,-1,4
735,4.42099,2.743,-1,4
736,4.42374,2.746,-1,4
737,4.42648,2.745,-1,4
738,4.42923,2.746,-1,4
739,4.43198,2.752,-1,4
740,4.43473,2.751,-1,4
741,4.43748,2.752,-1,4
742,4.44024,2.756,-1,4
743,4.44299,2.755,-1,4
744,4.44575,2.759,-1,4
745,4.44851,2.760,-1,4
746,4.45128,2.764,-1,4
747,4.45404,2.764,-1,4
748,4.45680,2.763,-1,4
749,4.45957,2.762,-1,4
750,4.46234,2.770,-1,4
751,4.46511,2.770,-1,4
752,4.46788,2.770,-1,4
753,4.47065,2.775,-1,4
754,4.47342,2.774,-1,4
755,4.47898,2.778,-1,4
756,4.48176,2.780,-1,4
757,4.48454,2.782,-1,4
758,4.48732,2.781,-1,4
759,4.49010,2.782,-1,4
760,4.49289,2.787,-1,4
761,4.49567,2.785,-1,4
762,4.49846,2.788,-1,4
763,4.50125,2.790,-1,4
764,4.50404,2.787,-1,4
765,4.50683,2.789,-1,4
766,4.50962,2.795,-1,4
767,4.51242,2.793,-1,4
768,4.51521,2.794,-1,4
769,4.51801,2.798,-1,4
770,4.52080,2.796,-1,4
771,4.52360,2.797,-1,4
772,4.52640,2.802,-1,4
773,4.52920,2.799,-1,4
774,4.53200,2.802,-1,4
775,4.53481,2.803,-1,4
776,4.53761,2.802,-1,4
777,4.54041,2.803,-1,4
778,4.54321,2.801,-1,4
779,4.54602,2.804,-1,4
780,4.54882,2.808,-1,4
781,4.55163,2.805,-1,4
782,4.55443,2.804,-1,4
783,4.55724,2.807,-1,4
784,4.56004,2.803,-1,4
785,4.56285,2.806,-1,4
786,4.56566,2.808,-1,4
787,4.56846,2.804,-1,4
788,4.57407,2.809,-1,4
789,4.57688,2.806,-1,4
790,4.57968,2.806,-1,4
791,4.58249,2.806,-1,4
792,4.58530,2.805,-1,4
793,4.58810,2.806,-1,4
794,4.59091,2.807,-1,4
795,4.59372,2.809,-1,4
796,4.59653,2.807,-1,4
797,4.59933,2.803,-1,4
798,4.60214,2.807,-1,4
799,4.60494,2.809,-1,4
800,4.60775,2.808,-1,4
801,4.61056,2.808,-1,4
802,4.61336,2.806,-1,4
803,4.61617,2.802,-1,4
804,4.61897,2.805,-1,4
805,4.62178,2.806,-1,4
806,4.62459,2.808,-1,4
807,4.62739,2.803,-1,4
808,4.63019,2.801,-1,4
809,4.63299,2.800,-1,4
810,4.63579,2.805,-1,4
811,4.63860,2.804,-1,4
812,4.64140,2.802,-1,4
813,4.64420,2.800,-1,4
814,4.64700,2.796,-1,4
815,4.64979,2.800,-1,4
816,4.65539,2.797,-1,4
817,4.65819,2.800,-1,4
818,4.66099,2.794,-1,4
819,4.66378,2.798,-1,4
820,4.66658,2.798,-1,4
821,4.66937,2.795,-1,4
822,4.67216,2.791,-1,4
823,4.67495,2.788,-1,4
824,4.67774,2.791,-1,4
825,4.68053,2.790,-1,4
826,4.68332,2.788,-1,4
827,4.68610,2.784,-1,4
828,4.68889,2.785,-1,4
829,4.69167,2.785,-1,4
830,4.69446,2.781,-1,4
831,4.69724,2.780,-1,4
832,4.70001,2.778,-1,4
833,4.70279,2.772,-1,4
834,4.70556,2.777,-1,4
835,4.70834,2.775,-1,4
836,4.71111,2.769,-1,4
837,4.71387,2.768,-1,4
838,4.71664,2.767,-1,4
839,4.71941,2.767,-1,4
840,4.72217,2.763,-1,4
841,4.72493,2.760,-1,4
842,4.72769,2.758,-1,4
843,4.73045,2.759,-1,4
844,4.73320,2.755,-1,4
845,4.73596,2.753,-1,4
846,4.73871,2.749,-1,4
847,4.74145,2.745,-1,4
848,4.74694,2.746,-1,4
849,4.74968,2.735,-1,4
850,4.75241,2.735,-1,4
851,4.75515,2.736,-1,4
852,4.75788,2.731,-1,4
853,4.76061,2.727,-1,4
854,4.76333,2.722,-1,4
855,4.76605,2.720,-1,4
856,4.76877,2.717,-1,4
857,4.77149,2.718,-1,4
858,4.77419,2.708,-1,4
859,4.77690,2.706,-1,4
860,4.77960,2.702,-1,4
861,4.78230,2.701,-1,4
862,4.78500,2.698,-1,4
863,4.78769,2.689,-1,4
864,4.79038,2.687,-1,4
865,4.79306,2.685,-1,4
866,4.79574,2.679,-1,4
867,4.79842,2.678,-1,4
868,4.80109,2.675,-1,4
869,4.80376,2.668,-1,4
870,4.80643,2.663,-1,4
871,4.80909,2.663,-1,4
872,4.81174,2.657,-1,4
873,4.81440,2.653,-1,4
