cnt,pos,speed,Dir,Force,
1,3.14226,1.028,-1,16
2,3.14331,1.057,-1,16
3,3.14437,1.054,-1,16
4,3.14542,1.049,-1,16
5,3.14649,1.077,-1,16
6,3.14761,1.120,-1,16
7,3.14875,1.134,-1,16
8,3.14986,1.113,-1,16
9,3.15098,1.117,-1,16
10,3.15214,1.167,-1,16
11,3.15335,1.203,-1,16
12,3.15453,1.182,-1,16
13,3.15569,1.163,-1,16
14,3.15690,1.210,-1,16
15,3.15817,1.269,-1,16
16,3.15942,1.247,-1,16
17,3.16063,1.212,-1,16
18,3.16188,1.252,-1,16
19,3.16321,1.325,-1,16
20,3.16452,1.314,-1,16
21,3.16579,1.269,-1,16
22,3.16710,1.305,-1,16
23,3.16847,1.372,-1,16
24,3.16983,1.366,-1,16
25,3.17117,1.333,-1,16
26,3.17253,1.365,-1,16
27,3.17394,1.410,-1,16
28,3.17535,1.406,-1,16
29,3.17816,1.416,-1,16
30,3.17960,1.439,-1,16
31,3.18105,1.450,-1,16
32,3.18250,1.451,-1,16
33,3.18394,1.445,-1,16
34,3.18542,1.473,-1,16
35,3.18692,1.508,-1,16
36,3.18842,1.494,-1,16
37,3.18990,1.479,-1,16
38,3.19141,1.518,-1,16
39,3.19297,1.552,-1,16
40,3.19450,1.534,-1,16
41,3.19604,1.541,-1,16
42,3.19761,1.566,-1,16
43,3.19918,1.579,-1,16
44,3.20077,1.590,-1,16
45,3.20237,1.596,-1,16
46,3.20397,1.604,-1,16
47,3.20561,1.637,-1,16
48,3.20725,1.641,-1,16
49,3.20888,1.629,-1,16
50,3.21054,1.660,-1,16
51,3.21223,1.684,-1,16
52,3.21391,1.685,-1,16
53,3.21561,1.694,-1,16
54,3.21731,1.705,-1,16
55,3.21904,1.727,-1,16
56,3.22079,1.754,-1,16
57,3.22254,1.745,-1,16
58,3.22610,1.796,-1,16
59,3.22790,1.801,-1,16
60,3.22972,1.816,-1,16
61,3.23155,1.829,-1,16
62,3.23340,1.859,-1,16
63,3.23528,1.877,-1,16
64,3.23715,1.869,-1,16
65,3.23904,1.894,-1,16
66,3.24097,1.928,-1,16
67,3.24291,1.943,-1,16
68,3.24486,1.946,-1,16
69,3.24681,1.952,-1,16
70,3.24881,2.001,-1,16
71,3.25083,2.019,-1,16
72,3.25285,2.022,-1,16
73,3.25488,2.032,-1,16
74,3.25696,2.071,-1,16
75,3.25906,2.102,-1,16
76,3.26116,2.097,-1,16
77,3.26327,2.115,-1,16
78,3.26542,2.147,-1,16
79,3.26760,2.178,-1,16
80,3.26977,2.199,-1,16
81,3.27421,2.233,-1,16
82,3.27646,2.256,-1,16
83,3.27872,2.263,-1,16
84,3.28102,2.291,-1,16
85,3.28334,2.324,-1,16
86,3.28568,2.342,-1,16
87,3.28803,2.351,-1,16
88,3.29042,2.390,-1,16
89,3.29284,2.417,-1,16
90,3.29526,2.422,-1,16
91,3.29770,2.439,-1,16
92,3.30018,2.480,-1,16
93,3.30268,2.505,-1,16
94,3.30520,2.513,-1,16
95,3.30773,2.534,-1,16
96,3.31031,2.579,-1,16
97,3.31291,2.595,-1,16
98,3.31551,2.605,-1,16
99,3.31814,2.628,-1,16
100,3.32082,2.677,-1,16
101,3.32350,2.687,-1,16
102,3.32619,2.687,-1,16
103,3.32892,2.727,-1,16
104,3.33168,2.762,-1,16
105,3.33445,2.767,-1,16
106,3.33722,2.777,-1,16
107,3.34004,2.820,-1,16
108,3.34289,2.842,-1,16
109,3.34573,2.842,-1,16
110,3.34859,2.867,-1,16
111,3.35149,2.892,-1,16
112,3.35732,2.919,-1,16
113,3.36025,2.934,-1,16
114,3.36320,2.954,-1,16
115,3.36617,2.972,-1,16
116,3.36916,2.984,-1,16
117,3.37215,2.988,-1,16
118,3.37515,3.005,-1,16
119,3.37818,3.028,-1,16
120,3.38120,3.024,-1,16
121,3.38423,3.028,-1,16
122,3.38728,3.050,-1,16
123,3.39034,3.054,-1,16
124,3.39338,3.048,-1,16
125,3.39644,3.057,-1,16
126,3.39950,3.062,-1,16
127,3.40256,3.061,-1,16
128,3.40563,3.063,-1,16
129,3.40868,3.055,-1,16
130,3.41174,3.053,-1,16
131,3.41479,3.059,-1,16
132,3.41785,3.050,-1,16
133,3.42088,3.036,-1,16
134,3.42392,3.039,-1,16
135,3.42695,3.031,-1,16
136,3.42997,3.017,-1,16
137,3.43298,3.008,-1,16
138,3.43597,2.998,-1,16
139,3.43896,2.984,-1,16
140,3.44193,2.975,-1,16
141,3.44489,2.945,-1,16
142,3.45077,2.932,-1,16
143,3.45369,2.920,-1,16
144,3.45659,2.900,-1,16
145,3.45947,2.880,-1,16
146,3.46234,2.873,-1,16
147,3.46519,2.852,-1,16
148,3.46802,2.826,-1,16
149,3.47083,2.814,-1,16
150,3.47363,2.799,-1,16
151,3.47640,2.773,-1,16
152,3.47916,2.755,-1,16
153,3.48190,2.740,-1,16
154,3.48461,2.716,-1,16
155,3.48730,2.691,-1,16
156,3.48999,2.681,-1,16
157,3.49264,2.652,-1,16
158,3.49526,2.627,-1,16
159,3.49787,2.608,-1,16
160,3.50047,2.595,-1,16
161,3.50303,2.565,-1,16
162,3.50557,2.534,-1,16
163,3.50809,2.524,-1,16
164,3.51059,2.504,-1,16
165,3.51307,2.450,-1,16
166,3.51797,2.445,-1,16
167,3.52038,2.416,-1,16
168,3.52277,2.385,-1,16
169,3.52514,2.369,-1,16
170,3.52750,2.365,-1,16
171,3.52983,2.329,-1,16
172,3.53213,2.300,-1,16
173,3.53442,2.290,-1,16
174,3.53671,2.288,-1,16
175,3.53896,2.254,-1,16
176,3.54119,2.231,-1,16
177,3.54341,2.219,-1,16
178,3.54563,2.220,-1,16
179,3.54782,2.192,-1,16
180,3.54999,2.165,-1,16
181,3.55215,2.158,-1,16
182,3.55431,2.163,-1,16
183,3.55646,2.147,-1,16
184,3.55857,2.115,-1,16
185,3.56068,2.111,-1,16
186,3.56280,2.118,-1,16
187,3.56492,2.121,-1,16
188,3.56701,2.086,-1,16
189,3.56909,2.079,-1,16
190,3.57118,2.091,-1,16
191,3.57328,2.105,-1,16
192,3.57537,2.083,-1,16
193,3.57742,2.058,-1,16
194,3.57950,2.079,-1,16
195,3.58160,2.094,-1,16
196,3.58576,2.065,-1,16
197,3.58783,2.078,-1,16
198,3.58994,2.105,-1,16
199,3.59205,2.112,-1,16
200,3.59414,2.093,-1,16
201,3.59623,2.091,-1,16
202,3.59836,2.129,-1,16
203,3.60050,2.142,-1,16
204,3.60264,2.136,-1,16
205,3.60477,2.126,-1,16
206,3.60693,2.158,-1,16
207,3.60910,2.179,-1,16
208,3.61129,2.189,-1,16
209,3.61348,2.183,-1,16
210,3.61567,2.197,-1,16
211,3.61790,2.231,-1,16
212,3.62015,2.251,-1,16
213,3.62240,2.248,-1,16
214,3.62465,2.251,-1,16
215,3.62694,2.285,-1,16
216,3.62925,2.316,-1,16
217,3.63158,2.322,-1,16
218,3.63389,2.311,-1,16
219,3.63622,2.336,-1,16
220,3.63860,2.381,-1,16
221,3.64099,2.388,-1,16
222,3.64336,2.372,-1,16
223,3.64576,2.394,-1,16
224,3.64819,2.435,-1,16
225,3.65065,2.455,-1,16
226,3.65553,2.446,-1,16
227,3.65802,2.490,-1,16
228,3.66053,2.511,-1,16
229,3.66302,2.489,-1,16
230,3.66551,2.489,-1,16
231,3.66804,2.536,-1,16
232,3.67060,2.556,-1,16
233,3.67313,2.533,-1,16
234,3.67566,2.527,-1,16
235,3.67823,2.570,-1,16
236,3.68082,2.586,-1,16
237,3.68338,2.565,-1,16
238,3.68594,2.556,-1,16
239,3.68852,2.586,-1,16
240,3.69112,2.596,-1,16
241,3.69370,2.581,-1,16
242,3.69627,2.572,-1,16
243,3.69885,2.582,-1,16
244,3.70145,2.596,-1,16
245,3.70403,2.584,-1,16
246,3.70661,2.571,-1,16
247,3.70918,2.571,-1,16
248,3.71176,2.581,-1,16
249,3.71689,2.561,-1,16
250,3.71944,2.549,-1,16
251,3.72199,2.549,-1,16
252,3.72455,2.556,-1,16
253,3.72708,2.538,-1,16
254,3.72960,2.516,-1,16
255,3.73212,2.515,-1,16
256,3.73465,2.531,-1,16
257,3.73716,2.510,-1,16
258,3.73964,2.483,-1,16
259,3.74212,2.480,-1,16
260,3.74462,2.497,-1,16
261,3.74709,2.478,-1,16
262,3.74954,2.446,-1,16
263,3.75198,2.443,-1,16
264,3.75444,2.460,-1,16
265,3.75689,2.445,-1,16
266,3.75930,2.413,-1,16
267,3.76172,2.415,-1,16
268,3.76415,2.429,-1,16
269,3.76656,2.414,-1,16
270,3.76895,2.389,-1,16
271,3.77134,2.391,-1,16
272,3.77374,2.402,-1,16
273,3.77613,2.393,-1,16
274,3.77850,2.368,-1,16
275,3.78088,2.374,-1,16
276,3.78326,2.384,-1,16
277,3.78563,2.372,-1,16
278,3.78799,2.361,-1,16
279,3.79274,2.377,-1,16
280,3.79511,2.372,-1,16
281,3.79747,2.359,-1,16
282,3.79985,2.377,-1,16
283,3.80223,2.381,-1,16
284,3.80460,2.374,-1,16
285,3.80697,2.372,-1,16
286,3.80936,2.390,-1,16
287,3.81176,2.397,-1,16
288,3.81415,2.391,-1,16
289,3.81654,2.392,-1,16
290,3.81896,2.420,-1,16
291,3.82139,2.424,-1,16
292,3.82381,2.418,-1,16
293,3.82623,2.424,-1,16
294,3.82869,2.456,-1,16
295,3.83114,2.459,-1,16
296,3.83360,2.458,-1,16
297,3.83606,2.463,-1,16
298,3.83856,2.498,-1,16
299,3.84107,2.504,-1,16
300,3.84357,2.502,-1,16
301,3.84608,2.513,-1,16
302,3.84863,2.549,-1,16
303,3.85119,2.558,-1,16
304,3.85374,2.574,-1,16
305,3.85632,2.601,-1,16
306,3.85892,2.611,-1,16
307,3.86415,2.615,-1,16
308,3.86678,2.638,-1,16
309,3.86944,2.659,-1,16
310,3.87212,2.673,-1,16
311,3.87480,2.702,-1,16
312,3.87750,2.722,-1,16
313,3.88022,2.722,-1,16
314,3.88296,2.736,-1,16
315,3.88571,2.754,-1,16
316,3.88848,2.765,-1,16
317,3.89126,2.780,-1,16
318,3.89406,2.801,-1,16
319,3.89688,2.819,-1,16
320,3.89970,2.827,-1,16
321,3.90254,2.841,-1,16
322,3.90542,2.872,-1,16
323,3.90830,2.882,-1,16
324,3.91118,2.883,-1,16
325,3.91409,2.908,-1,16
326,3.91702,2.925,-1,16
327,3.91996,2.940,-1,16
328,3.92291,2.950,-1,16
329,3.92587,2.962,-1,16
330,3.92885,2.981,-1,16
331,3.93185,3.000,-1,16
332,3.93788,3.018,-1,16
333,3.94091,3.034,-1,16
334,3.94397,3.057,-1,16
335,3.94703,3.064,-1,16
336,3.95010,3.071,-1,16
337,3.95319,3.092,-1,16
338,3.95630,3.109,-1,16
339,3.95942,3.117,-1,16
340,3.96255,3.131,-1,16
341,3.96570,3.144,-1,16
342,3.96885,3.158,-1,16
343,3.97203,3.173,-1,16
344,3.97521,3.182,-1,16
345,3.97840,3.193,-1,16
346,3.98161,3.212,-1,16
347,3.98484,3.225,-1,16
348,3.98807,3.231,-1,16
349,3.99131,3.245,-1,16
350,3.99457,3.258,-1,16
351,3.99785,3.274,-1,16
352,4.00113,3.287,-1,16
353,4.00442,3.291,-1,16
354,4.00773,3.307,-1,16
355,4.01106,3.325,-1,16
356,4.01439,3.333,-1,16
357,4.01773,3.343,-1,16
358,4.02109,3.356,-1,16
359,4.02446,3.367,-1,16
360,4.02784,3.389,-1,16
361,4.03124,3.394,-1,16
362,4.03464,3.419,-1,16
363,4.04149,3.431,-1,16
364,4.04493,3.440,-1,16
365,4.04838,3.452,-1,16
366,4.05184,3.457,-1,16
367,4.05531,3.475,-1,16
368,4.05880,3.487,-1,16
369,4.06229,3.491,-1,16
370,4.06579,3.506,-1,16
371,4.06931,3.516,-1,16
372,4.07283,3.525,-1,16
373,4.07637,3.533,-1,16
374,4.07991,3.544,-1,16
375,4.08347,3.555,-1,16
376,4.08703,3.567,-1,16
377,4.09060,3.569,-1,16
378,4.09419,3.583,-1,16
379,4.09778,3.591,-1,16
380,4.10138,3.599,-1,16
381,4.10498,3.604,-1,16
382,4.10859,3.612,-1,16
383,4.11221,3.621,-1,16
384,4.11583,3.623,-1,16
385,4.11946,3.628,-1,16
386,4.12310,3.640,-1,16
387,4.12674,3.642,-1,16
388,4.13039,3.641,-1,16
389,4.13403,3.646,-1,16
390,4.13768,3.646,-1,16
391,4.14134,3.658,-1,16
392,4.14499,3.653,-1,16
393,4.15229,3.654,-1,16
394,4.15595,3.659,-1,16
395,4.15961,3.659,-1,16
396,4.16327,3.653,-1,16
397,4.16692,3.651,-1,16
398,4.17058,3.659,-1,16
399,4.17423,3.651,-1,16
400,4.17787,3.648,-1,16
401,4.18152,3.647,-1,16
402,4.18516,3.643,-1,16
403,4.18881,3.646,-1,16
404,4.19245,3.638,-1,16
405,4.19608,3.634,-1,16
406,4.19972,3.635,-1,16
407,4.20335,3.630,-1,16
408,4.20697,3.625,-1,16
409,4.21060,3.624,-1,16
410,4.21422,3.624,-1,16
411,4.21784,3.624,-1,16
412,4.22146,3.612,-1,16
413,4.22507,3.615,-1,16
414,4.22868,3.613,-1,16
415,4.23229,3.611,-1,16
416,4.23590,3.610,-1,16
417,4.23951,3.603,-1,16
418,4.24311,3.607,-1,16
419,4.25032,3.599,-1,16
420,4.25392,3.598,-1,16
421,4.25752,3.599,-1,16
422,4.26111,3.596,-1,16
423,4.26471,3.596,-1,16
424,4.26830,3.591,-1,16
425,4.27189,3.592,-1,16
426,4.27548,3.589,-1,16
427,4.27906,3.584,-1,16
428,4.28265,3.586,-1,16
429,4.28623,3.582,-1,16
430,4.28981,3.576,-1,16
431,4.29339,3.579,-1,16
432,4.29696,3.574,-1,16
433,4.30053,3.572,-1,16
434,4.30410,3.567,-1,16
435,4.30766,3.563,-1,16
436,4.31123,3.566,-1,16
437,4.31479,3.558,-1,16
438,4.31834,3.552,-1,16
439,4.32189,3.551,-1,16
440,4.32544,3.546,-1,16
441,4.32898,3.547,-1,16
442,4.33252,3.539,-1,16
443,4.33605,3.532,-1,16
444,4.33959,3.535,-1,16
445,4.34312,3.528,-1,16
446,4.34664,3.525,-1,16
447,4.35016,3.520,-1,16
448,4.35368,3.518,-1,16
449,4.35719,3.515,-1,16
450,4.36071,3.511,-1,16
451,4.36421,3.505,-1,16
452,4.36772,3.509,-1,16
453,4.37473,3.502,-1,16
454,4.37823,3.501,-1,16
455,4.38172,3.496,-1,16
456,4.38522,3.500,-1,16
457,4.38872,3.494,-1,16
458,4.39221,3.493,-1,16
459,4.39570,3.496,-1,16
460,4.39920,3.492,-1,16
461,4.40269,3.489,-1,16
462,4.40618,3.494,-1,16
463,4.40967,3.489,-1,16
464,4.41316,3.491,-1,16
465,4.41665,3.489,-1,16
466,4.42013,3.483,-1,16
467,4.42363,3.494,-1,16
468,4.42712,3.492,-1,16
469,4.43060,3.484,-1,16
470,4.43409,3.489,-1,16
471,4.43758,3.488,-1,16
472,4.44107,3.488,-1,16
473,4.44455,3.486,-1,16
474,4.44803,3.481,-1,16
475,4.45152,3.490,-1,16
476,4.45501,3.486,-1,16
477,4.45849,3.477,-1,16
478,4.46197,3.482,-1,16
479,4.46892,3.476,-1,16
480,4.47240,3.474,-1,16
481,4.47586,3.467,-1,16
482,4.47933,3.470,-1,16
483,4.48280,3.463,-1,16
484,4.48626,3.458,-1,16
485,4.48971,3.454,-1,16
486,4.49316,3.451,-1,16
487,4.49660,3.442,-1,16
488,4.50005,3.443,-1,16
489,4.50348,3.431,-1,16
490,4.50690,3.424,-1,16
491,4.51032,3.421,-1,16
492,4.51373,3.408,-1,16
493,4.51714,3.407,-1,16
494,4.52053,3.394,-1,16
495,4.52391,3.383,-1,16
496,4.52729,3.377,-1,16
497,4.53066,3.365,-1,16
498,4.53401,3.354,-1,16
499,4.53736,3.346,-1,16
500,4.54069,3.330,-1,16
501,4.54400,3.316,-1,16
502,4.54731,3.309,-1,16
503,4.55060,3.293,-1,16
504,4.55388,3.278,-1,16
505,4.55715,3.264,-1,16
506,4.56039,3.248,-1,16
507,4.56363,3.238,-1,16
508,4.56686,3.224,-1,16
509,4.57006,3.200,-1,16
510,4.57325,3.174,-1,16
511,4.57958,3.159,-1,16
512,4.58272,3.143,-1,16
513,4.58585,3.127,-1,16
514,4.58896,3.108,-1,16
515,4.59206,3.096,-1,16
516,4.59514,3.082,-1,16
517,4.59819,3.057,-1,16
518,4.60124,3.043,-1,16
519,4.60427,3.031,-1,16
520,4.60728,3.014,-1,16
521,4.61027,2.993,-1,16
522,4.61325,2.979,-1,16
523,4.61621,2.960,-1,16
524,4.61916,2.945,-1,16
525,4.62209,2.932,-1,16
526,4.62500,2.910,-1,16
527,4.62789,2.892,-1,16
528,4.63078,2.885,-1,16
529,4.63365,2.868,-1,16
530,4.63649,2.846,-1,16
531,4.63933,2.837,-1,16
532,4.64215,2.825,-1,16
533,4.64496,2.807,-1,16
534,4.64775,2.792,-1,16
535,4.65054,2.786,-1,16
536,4.65331,2.769,-1,16
537,4.65606,2.755,-1,16
538,4.65881,2.753,-1,16
539,4.66155,2.735,-1,16
540,4.66427,2.721,-1,16
541,4.66699,2.721,-1,16
542,4.66971,2.714,-1,16
543,4.67241,2.703,-1,16
544,4.67510,2.694,-1,16
545,4.67779,2.686,-1,16
546,4.68316,2.677,-1,16
547,4.68583,2.675,-1,16
548,4.68851,2.678,-1,16
549,4.69118,2.675,-1,16
550,4.69385,2.665,-1,16
551,4.69653,2.677,-1,16
552,4.69920,2.676,-1,16
553,4.70188,2.676,-1,16
554,4.70456,2.681,-1,16
555,4.70725,2.689,-1,16
556,4.70994,2.689,-1,16
557,4.71263,2.691,-1,16
558,4.71534,2.710,-1,16
559,4.71805,2.713,-1,16
560,4.72077,2.718,-1,16
561,4.72350,2.733,-1,16
562,4.72625,2.748,-1,16
563,4.72901,2.758,-1,16
564,4.73177,2.765,-1,16
565,4.73456,2.790,-1,16
566,4.73736,2.802,-1,16
567,4.74018,2.812,-1,16
568,4.74301,2.836,-1,16
569,4.74587,2.855,-1,16
570,4.74874,2.868,-1,16
571,4.75163,2.891,-1,16
572,4.75454,2.917,-1,16
573,4.75748,2.934,-1,16
574,4.76043,2.983,-1,16
575,4.76642,3.004,-1,16
576,4.76944,3.023,-1,16
577,4.77249,3.054,-1,16
578,4.77557,3.080,-1,16
579,4.77868,3.103,-1,16
580,4.78181,3.134,-1,16
581,4.78815,3.183,-1,16
582,4.78815,3.218,-1,16
583,4.79137,3.218,-1,16
584,4.79461,3.243,-1,16
585,4.79788,3.267,-1,16
586,4.80118,3.305,-1,16
587,4.80451,3.331,-1,16
588,4.80788,3.361,-1,16
589,4.81127,3.391,-1,16
590,4.81468,3.419,-1,16
591,4.81814,3.453,-1,16
592,4.82162,3.478,-1,16
593,4.82512,3.507,-1,16
594,4.82866,3.542,-1,16
595,4.83224,3.573,-1,16
596,4.83584,3.601,-1,16
597,4.83947,3.628,-1,16
598,4.84312,3.656,-1,16
599,4.84682,3.694,-1,16
600,4.85054,3.724,-1,16
601,4.85429,3.749,-1,16
602,4.85807,3.780,-1,16
603,4.86188,3.813,-1,16
604,4.86573,3.844,-1,16
605,4.86960,3.896,-1,16
606,4.87349,3.935,-1,16
607,4.87743,3.963,-1,16
608,4.88538,3.990,-1,16
609,4.88940,4.020,-1,16
610,4.89345,4.051,-1,16
611,4.89753,4.081,-1,16
612,4.90164,4.138,-1,16
613,4.90577,4.138,-1,16
614,4.90994,4.169,-1,16
615,4.91415,4.203,-1,16
616,4.91837,4.227,-1,16
617,4.92263,4.256,-1,16
618,4.92692,4.287,-1,16
619,4.93123,4.318,-1,16
620,4.93558,4.349,-1,16
621,4.93996,4.377,-1,16
622,4.94437,4.410,-1,16
623,4.94881,4.440,-1,16
624,4.95328,4.467,-1,16
625,4.95777,4.495,-1,16
626,4.96230,4.525,-1,16
627,4.96685,4.553,-1,16
628,4.97143,4.582,-1,16
629,4.97604,4.604,-1,16
630,4.98067,4.633,-1,16
631,4.98533,4.654,-1,16
632,4.99001,4.681,-1,16
633,4.99471,4.700,-1,16
634,4.99943,4.726,-1,16
635,5.00418,4.745,-1,16
636,5.00895,4.767,-1,16
637,5.01373,4.780,-1,16
638,5.01852,4.798,-1,16
639,5.02334,4.813,-1,16
640,5.03301,4.840,-1,16
641,5.04272,4.857,-1,16
642,5.04758,4.867,-1,16
643,5.05246,4.875,-1,16
644,5.05734,4.886,-1,16
645,5.06223,4.882,-1,16
646,5.06711,4.883,-1,16
647,5.07200,4.886,-1,16
648,5.07688,4.886,-1,16
649,5.08177,4.885,-1,16
650,5.08665,4.883,-1,16
651,5.09153,4.882,-1,16
652,5.09640,4.868,-1,16
653,5.10126,4.863,-1,16
654,5.10612,4.857,-1,16
655,5.11097,4.848,-1,16
656,5.11581,4.839,-1,16
657,5.12063,4.824,-1,16
658,5.12544,4.811,-1,16
659,5.13024,4.796,-1,16
660,5.13502,4.784,-1,16
661,5.13979,4.772,-1,16
662,5.14455,4.754,-1,16
663,5.14928,4.735,-1,16
664,5.15400,4.717,-1,16
665,5.15870,4.695,-1,16
666,5.16338,4.681,-1,16
667,5.16804,4.662,-1,16
668,5.17268,4.639,-1,16
669,5.17729,4.611,-1,16
670,5.18188,4.590,-1,16
671,5.18645,4.542,-1,16
672,5.19550,4.513,-1,16
673,5.19999,4.490,-1,16
674,5.20445,4.463,-1,16
675,5.20889,4.432,-1,16
676,5.21329,4.401,-1,16
677,5.21766,4.375,-1,16
678,5.22201,4.348,-1,16
679,5.22633,4.322,-1,16
680,5.23062,4.288,-1,16
681,5.23488,4.255,-1,16
682,5.23910,4.226,-1,16
683,5.24330,4.199,-1,16
684,5.24747,4.165,-1,16
685,5.25160,4.130,-1,16
686,5.25570,4.103,-1,16
687,5.25977,4.070,-1,16
688,5.26381,4.042,-1,16
689,5.26781,3.999,-1,16
690,5.27178,3.973,-1,16
691,5.27573,3.945,-1,16
692,5.27964,3.915,-1,16
693,5.28352,3.878,-1,16
694,5.28737,3.845,-1,16
695,5.29119,3.822,-1,16
696,5.29498,3.790,-1,16
697,5.29873,3.757,-1,16
698,5.30246,3.729,-1,16
699,5.30616,3.696,-1,16
700,5.30983,3.672,-1,16
701,5.31348,3.644,-1,16
702,5.31709,3.588,-1,16
703,5.32423,3.557,-1,16
704,5.32777,3.535,-1,16
705,5.33128,3.509,-1,16
706,5.33476,3.482,-1,16
707,5.33822,3.462,-1,16
708,5.34166,3.441,-1,16
709,5.34508,3.415,-1,16
710,5.34847,3.396,-1,16
711,5.35185,3.378,-1,16
712,5.35521,3.357,-1,16
713,5.35855,3.342,-1,16
714,5.36187,3.323,-1,16
715,5.36519,3.314,-1,16
716,5.36848,3.298,-1,16
717,5.37177,3.284,-1,16
718,5.37504,3.276,-1,16
719,5.37831,3.264,-1,16
720,5.38156,3.252,-1,16
721,5.38481,3.252,-1,16
722,5.38805,3.239,-1,16
723,5.39128,3.233,-1,16
724,5.39452,3.234,-1,16
725,5.39775,3.230,-1,16
726,5.40097,3.222,-1,16
727,5.40419,3.226,-1,16
728,5.40742,3.229,-1,16
729,5.41065,3.226,-1,16
730,5.41388,3.234,-1,16
731,5.41712,3.239,-1,16
732,5.42037,3.245,-1,16
733,5.42362,3.258,-1,16
734,5.42689,3.266,-1,16
735,5.43346,3.291,-1,16
736,5.43676,3.303,-1,16
737,5.43676,3.319,-1,16
738,5.44341,3.333,-1,16
739,5.44676,3.347,-1,16
740,5.45013,3.366,-1,16
741,5.45351,3.383,-1,16
742,5.45691,3.398,-1,16
743,5.46033,3.421,-1,16
744,5.46376,3.433,-1,16
745,5.46721,3.450,-1,16
746,5.47069,3.478,-1,16
747,5.47418,3.494,-1,16
748,5.47770,3.512,-1,16
749,5.48123,3.532,-1,16
750,5.48478,3.554,-1,16
751,5.48836,3.575,-1,16
752,5.49195,3.593,-1,16
753,5.49556,3.608,-1,16
754,5.49919,3.633,-1,16
755,5.50284,3.650,-1,16
756,5.50651,3.668,-1,16
757,5.51019,3.685,-1,16
758,5.51389,3.699,-1,16
759,5.51761,3.713,-1,16
760,5.52133,3.724,-1,16
761,5.52507,3.738,-1,16
762,5.52882,3.749,-1,16
763,5.53257,3.755,-1,16
764,5.53634,3.767,-1,16
765,5.54011,3.772,-1,16
766,5.54389,3.777,-1,16
767,5.54767,3.781,-1,16
768,5.55145,3.778,-1,16
769,5.55523,3.785,-1,16
770,5.55902,3.784,-1,16
771,5.56280,3.782,-1,16
772,5.57037,3.780,-1,16
773,5.57415,3.780,-1,16
774,5.57792,3.772,-1,16
775,5.58169,3.764,-1,16
776,5.58545,3.754,-1,16
777,5.58920,3.754,-1,16
778,5.59296,3.750,-1,16
779,5.59669,3.736,-1,16
780,5.60042,3.730,-1,16
781,5.60414,3.720,-1,16
782,5.60785,3.704,-1,16
783,5.61154,3.693,-1,16
784,5.61522,3.680,-1,16
785,5.61889,3.669,-1,16
786,5.62254,3.652,-1,16
787,5.62618,3.636,-1,16
788,5.62980,3.622,-1,16
789,5.63340,3.606,-1,16
790,5.63699,3.590,-1,16
791,5.64057,3.579,-1,16
792,5.64413,3.557,-1,16
793,5.64768,3.546,-1,16
794,5.65121,3.533,-1,16
795,5.65472,3.511,-1,16
796,5.65822,3.501,-1,16
797,5.66171,3.486,-1,16
798,5.66518,3.472,-1,16
799,5.66864,3.461,-1,16
800,5.67209,3.444,-1,16
801,5.67552,3.433,-1,16
802,5.67894,3.423,-1,16
803,5.68236,3.414,-1,16
804,5.68576,3.403,-1,16
805,5.68915,3.390,-1,16
806,5.69592,3.384,-1,16
807,5.69929,3.371,-1,16
808,5.70265,3.363,-1,16
809,5.70601,3.363,-1,16
810,5.70938,3.362,-1,16
811,5.71273,3.357,-1,16
812,5.71609,3.355,-1,16
813,5.71944,3.352,-1,16
814,5.72280,3.360,-1,16
815,5.72616,3.360,-1,16
816,5.72952,3.360,-1,16
817,5.73289,3.365,-1,16
818,5.73626,3.373,-1,16
819,5.73963,3.375,-1,16
820,5.74302,3.386,-1,16
821,5.74641,3.390,-1,16
822,5.74981,3.396,-1,16
823,5.75322,3.413,-1,16
824,5.75664,3.426,-1,16
825,5.76008,3.431,-1,16
826,5.76352,3.445,-1,16
827,5.76698,3.462,-1,16
828,5.77046,3.478,-1,16
829,5.77395,3.490,-1,16
830,5.77746,3.505,-1,16
831,5.78099,3.532,-1,16
832,5.78453,3.545,-1,16
833,5.78809,3.562,-1,16
834,5.79168,3.585,-1,16
835,5.79528,3.606,-1,16
836,5.79891,3.627,-1,16
