cnt,pos,speed,Dir,Force,
1,3.12394,1.002,-1,8
2,3.12495,1.011,-1,8
3,3.12595,1.007,-1,8
4,3.12698,1.022,-1,8
5,3.12803,1.048,-1,8
6,3.12910,1.076,-1,8
7,3.13018,1.079,-1,8
8,3.13126,1.076,-1,8
9,3.13235,1.093,-1,8
10,3.13348,1.133,-1,8
11,3.13463,1.152,-1,8
12,3.13578,1.142,-1,8
13,3.13692,1.140,-1,8
14,3.13809,1.176,-1,8
15,3.13931,1.221,-1,8
16,3.14053,1.219,-1,8
17,3.14173,1.221,-1,8
18,3.14422,1.269,-1,8
19,3.14551,1.286,-1,8
20,3.14678,1.271,-1,8
21,3.14806,1.278,-1,8
22,3.14938,1.320,-1,8
23,3.15072,1.339,-1,8
24,3.15205,1.334,-1,8
25,3.15339,1.341,-1,8
26,3.15476,1.368,-1,8
27,3.15614,1.387,-1,8
28,3.15755,1.401,-1,8
29,3.15895,1.407,-1,8
30,3.16037,1.433,-1,8
31,3.16326,1.466,-1,8
32,3.16474,1.473,-1,8
33,3.16620,1.467,-1,8
34,3.16770,1.493,-1,8
35,3.16922,1.520,-1,8
36,3.17074,1.527,-1,8
37,3.17228,1.537,-1,8
38,3.17383,1.553,-1,8
39,3.17540,1.567,-1,8
40,3.17699,1.591,-1,8
41,3.17859,1.602,-1,8
42,3.18020,1.607,-1,8
43,3.18183,1.628,-1,8
44,3.18348,1.646,-1,8
45,3.18513,1.654,-1,8
46,3.18681,1.676,-1,8
47,3.18850,1.692,-1,8
48,3.19020,1.699,-1,8
49,3.19191,1.718,-1,8
50,3.19365,1.733,-1,8
51,3.19541,1.758,-1,8
52,3.19718,1.772,-1,8
53,3.19895,1.773,-1,8
54,3.20074,1.792,-1,8
55,3.20257,1.823,-1,8
56,3.20440,1.837,-1,8
57,3.20625,1.847,-1,8
58,3.20810,1.848,-1,8
59,3.20998,1.877,-1,8
60,3.21188,1.907,-1,8
61,3.21379,1.911,-1,8
62,3.21764,1.932,-1,8
63,3.21961,1.968,-1,8
64,3.22159,1.984,-1,8
65,3.22358,1.981,-1,8
66,3.22557,1.998,-1,8
67,3.22760,2.024,-1,8
68,3.22965,2.049,-1,8
69,3.23169,2.046,-1,8
70,3.23375,2.061,-1,8
71,3.23584,2.091,-1,8
72,3.23795,2.105,-1,8
73,3.24218,2.121,-1,8
74,3.24650,2.162,-1,8
75,3.24866,2.164,-1,8
76,3.25084,2.180,-1,8
77,3.25305,2.214,-1,8
78,3.25527,2.221,-1,8
79,3.25750,2.221,-1,8
80,3.25973,2.239,-1,8
81,3.26200,2.265,-1,8
82,3.26428,2.276,-1,8
83,3.26655,2.276,-1,8
84,3.26884,2.292,-1,8
85,3.27116,2.313,-1,8
86,3.27349,2.331,-1,8
87,3.27582,2.330,-1,8
88,3.27815,2.337,-1,8
89,3.28051,2.358,-1,8
90,3.28289,2.382,-1,8
91,3.28527,2.379,-1,8
92,3.28765,2.381,-1,8
93,3.29005,2.399,-1,8
94,3.29248,2.427,-1,8
95,3.29490,2.423,-1,8
96,3.29732,2.419,-1,8
97,3.29976,2.437,-1,8
98,3.30222,2.460,-1,8
99,3.30468,2.461,-1,8
100,3.30713,2.455,-1,8
101,3.30960,2.470,-1,8
102,3.31209,2.488,-1,8
103,3.31459,2.484,-1,8
104,3.31956,2.493,-1,8
105,3.32207,2.509,-1,8
106,3.32459,2.515,-1,8
107,3.32709,2.503,-1,8
108,3.32960,2.511,-1,8
109,3.33212,2.520,-1,8
110,3.33464,2.521,-1,8
111,3.33716,2.518,-1,8
112,3.33968,2.520,-1,8
113,3.34220,2.520,-1,8
114,3.34472,2.520,-1,8
115,3.34725,2.521,-1,8
116,3.35228,2.515,-1,8
117,3.35480,2.513,-1,8
118,3.35732,2.519,-1,8
119,3.35983,2.513,-1,8
120,3.36233,2.507,-1,8
121,3.36484,2.500,-1,8
122,3.36734,2.506,-1,8
123,3.36984,2.501,-1,8
124,3.37233,2.490,-1,8
125,3.37482,2.485,-1,8
126,3.37731,2.489,-1,8
127,3.37979,2.481,-1,8
128,3.38226,2.469,-1,8
129,3.38472,2.467,-1,8
130,3.38719,2.465,-1,8
131,3.38965,2.456,-1,8
132,3.39209,2.447,-1,8
133,3.39454,2.446,-1,8
134,3.39698,2.437,-1,8
135,3.39940,2.429,-1,8
136,3.40182,2.419,-1,8
137,3.40424,2.418,-1,8
138,3.40665,2.407,-1,8
139,3.40905,2.399,-1,8
140,3.41143,2.387,-1,8
141,3.41382,2.384,-1,8
142,3.41619,2.375,-1,8
143,3.41856,2.370,-1,8
144,3.42092,2.353,-1,8
145,3.42327,2.351,-1,8
146,3.42561,2.344,-1,8
147,3.43027,2.321,-1,8
148,3.43259,2.322,-1,8
149,3.43490,2.311,-1,8
150,3.43720,2.298,-1,8
151,3.43949,2.288,-1,8
152,3.44177,2.288,-1,8
153,3.44405,2.279,-1,8
154,3.44632,2.269,-1,8
155,3.44858,2.258,-1,8
156,3.45084,2.255,-1,8
157,3.45308,2.249,-1,8
158,3.45532,2.228,-1,8
159,3.45978,2.223,-1,8
160,3.46200,2.223,-1,8
161,3.46421,2.213,-1,8
162,3.46641,2.200,-1,8
163,3.46860,2.193,-1,8
164,3.47080,2.199,-1,8
165,3.47299,2.190,-1,8
166,3.47517,2.177,-1,8
167,3.47734,2.167,-1,8
168,3.47952,2.177,-1,8
169,3.48169,2.172,-1,8
170,3.48384,2.156,-1,8
171,3.48599,2.146,-1,8
172,3.48814,2.154,-1,8
173,3.49030,2.156,-1,8
174,3.49244,2.140,-1,8
175,3.49457,2.128,-1,8
176,3.49670,2.130,-1,8
177,3.49884,2.139,-1,8
178,3.50096,2.127,-1,8
179,3.50308,2.114,-1,8
180,3.50519,2.110,-1,8
181,3.50731,2.119,-1,8
182,3.50943,2.121,-1,8
183,3.51153,2.105,-1,8
184,3.51363,2.094,-1,8
185,3.51573,2.098,-1,8
186,3.51784,2.112,-1,8
187,3.51994,2.100,-1,8
188,3.52202,2.080,-1,8
189,3.52619,2.097,-1,8
190,3.52829,2.096,-1,8
191,3.53036,2.072,-1,8
192,3.53242,2.061,-1,8
193,3.53450,2.080,-1,8
194,3.53659,2.090,-1,8
195,3.53866,2.068,-1,8
196,3.54071,2.053,-1,8
197,3.54277,2.064,-1,8
198,3.54485,2.077,-1,8
199,3.54692,2.068,-1,8
200,3.54897,2.046,-1,8
201,3.55307,2.059,-1,8
202,3.55514,2.065,-1,8
203,3.55719,2.048,-1,8
204,3.55923,2.038,-1,8
205,3.56127,2.042,-1,8
206,3.56332,2.054,-1,8
207,3.56538,2.058,-1,8
208,3.56742,2.036,-1,8
209,3.56944,2.026,-1,8
210,3.57148,2.040,-1,8
211,3.57354,2.056,-1,8
212,3.57558,2.045,-1,8
213,3.57760,2.019,-1,8
214,3.57962,2.022,-1,8
215,3.58167,2.044,-1,8
216,3.58372,2.053,-1,8
217,3.58575,2.025,-1,8
218,3.58776,2.016,-1,8
219,3.58979,2.030,-1,8
220,3.59184,2.049,-1,8
221,3.59388,2.041,-1,8
222,3.59590,2.017,-1,8
223,3.59792,2.025,-1,8
224,3.59996,2.040,-1,8
225,3.60201,2.049,-1,8
226,3.60405,2.034,-1,8
227,3.60607,2.023,-1,8
228,3.60810,2.030,-1,8
229,3.61015,2.050,-1,8
230,3.61220,2.054,-1,8
231,3.61424,2.035,-1,8
232,3.61627,2.028,-1,8
233,3.62038,2.072,-1,8
234,3.62244,2.062,-1,8
235,3.62448,2.040,-1,8
236,3.62653,2.044,-1,8
237,3.62860,2.073,-1,8
238,3.63069,2.091,-1,8
239,3.63276,2.069,-1,8
240,3.63482,2.055,-1,8
241,3.63689,2.074,-1,8
242,3.63899,2.105,-1,8
243,3.64110,2.106,-1,8
244,3.64318,2.081,-1,8
245,3.64527,2.088,-1,8
246,3.64738,2.114,-1,8
247,3.64952,2.137,-1,8
248,3.65164,2.124,-1,8
249,3.65376,2.115,-1,8
250,3.65588,2.125,-1,8
251,3.65804,2.159,-1,8
252,3.66021,2.171,-1,8
253,3.66237,2.155,-1,8
254,3.66669,2.175,-1,8
255,3.66890,2.210,-1,8
256,3.67110,2.204,-1,8
257,3.67330,2.191,-1,8
258,3.67550,2.202,-1,8
259,3.67774,2.243,-1,8
260,3.67999,2.253,-1,8
261,3.68224,2.245,-1,8
262,3.68448,2.245,-1,8
263,3.68676,2.275,-1,8
264,3.68906,2.300,-1,8
265,3.69136,2.302,-1,8
266,3.69366,2.298,-1,8
267,3.69598,2.321,-1,8
268,3.69832,2.345,-1,8
269,3.70069,2.363,-1,8
270,3.70305,2.361,-1,8
271,3.70542,2.376,-1,8
272,3.70782,2.397,-1,8
273,3.71024,2.423,-1,8
274,3.71268,2.434,-1,8
275,3.71512,2.444,-1,8
276,3.71758,2.463,-1,8
277,3.72007,2.485,-1,8
278,3.72257,2.503,-1,8
279,3.72510,2.525,-1,8
280,3.72764,2.538,-1,8
281,3.73019,2.558,-1,8
282,3.73278,2.582,-1,8
283,3.73539,2.609,-1,8
284,3.73801,2.629,-1,8
285,3.74066,2.642,-1,8
286,3.74602,2.699,-1,8
287,3.74875,2.721,-1,8
288,3.75148,2.737,-1,8
289,3.75425,2.768,-1,8
290,3.75705,2.795,-1,8
291,3.75986,2.816,-1,8
292,3.76271,2.847,-1,8
293,3.76558,2.869,-1,8
294,3.76847,2.891,-1,8
295,3.77139,2.924,-1,8
296,3.77435,2.954,-1,8
297,3.77732,3.002,-1,8
298,3.78335,3.030,-1,8
299,3.78641,3.059,-1,8
300,3.78949,3.084,-1,8
301,3.79261,3.112,-1,8
302,3.79574,3.138,-1,8
303,3.79891,3.167,-1,8
304,3.80211,3.196,-1,8
305,3.80533,3.246,-1,8
306,3.81185,3.276,-1,8
307,3.81515,3.304,-1,8
308,3.81848,3.329,-1,8
309,3.81848,3.329,-1,8
310,3.82184,3.356,-1,8
311,3.82522,3.381,-1,8
312,3.82863,3.408,-1,8
313,3.83206,3.433,-1,8
314,3.83552,3.456,-1,8
315,3.83900,3.480,-1,8
316,3.84250,3.505,-1,8
317,3.84603,3.529,-1,8
318,3.84958,3.550,-1,8
319,3.85315,3.571,-1,8
320,3.85675,3.594,-1,8
321,3.86036,3.614,-1,8
322,3.86399,3.632,-1,8
323,3.86764,3.652,-1,8
324,3.87131,3.670,-1,8
325,3.87500,3.688,-1,8
326,3.87871,3.705,-1,8
327,3.88243,3.721,-1,8
328,3.88991,3.753,-1,8
329,3.89368,3.764,-1,8
330,3.89746,3.779,-1,8
331,3.90505,3.804,-1,8
332,3.90505,3.811,-1,8
333,3.90886,3.811,-1,8
334,3.91268,3.821,-1,8
335,3.91651,3.829,-1,8
336,3.92035,3.835,-1,8
337,3.92420,3.850,-1,8
338,3.92805,3.858,-1,8
339,3.93578,3.864,-1,8
340,3.93965,3.869,-1,8
341,3.94352,3.876,-1,8
342,3.94740,3.878,-1,8
343,3.95128,3.882,-1,8
344,3.95517,3.885,-1,8
345,3.95905,3.885,-1,8
346,3.96294,3.885,-1,8
347,3.96682,3.883,-1,8
348,3.97071,3.884,-1,8
349,3.97459,3.880,-1,8
350,3.97846,3.872,-1,8
351,3.98233,3.866,-1,8
352,3.98620,3.866,-1,8
353,3.99006,3.863,-1,8
354,3.99392,3.854,-1,8
355,3.99776,3.844,-1,8
356,4.00160,3.838,-1,8
357,4.00543,3.832,-1,8
358,4.00925,3.822,-1,8
359,4.01307,3.812,-1,8
360,4.01687,3.801,-1,8
361,4.02066,3.790,-1,8
362,4.02443,3.777,-1,8
363,4.02821,3.772,-1,8
364,4.03196,3.754,-1,8
365,4.03570,3.743,-1,8
366,4.03943,3.730,-1,8
367,4.04315,3.714,-1,8
368,4.04685,3.706,-1,8
369,4.05054,3.690,-1,8
370,4.05421,3.671,-1,8
371,4.05787,3.645,-1,8
372,4.06515,3.631,-1,8
373,4.06876,3.612,-1,8
374,4.07235,3.595,-1,8
375,4.07593,3.581,-1,8
376,4.07950,3.565,-1,8
377,4.08305,3.547,-1,8
378,4.08658,3.531,-1,8
379,4.09009,3.515,-1,8
380,4.09360,3.502,-1,8
381,4.09708,3.484,-1,8
382,4.10055,3.467,-1,8
383,4.10399,3.447,-1,8
384,4.10743,3.437,-1,8
385,4.11085,3.420,-1,8
386,4.11425,3.401,-1,8
387,4.11763,3.382,-1,8
388,4.12100,3.369,-1,8
389,4.12436,3.338,-1,8
390,4.13102,3.320,-1,8
391,4.13432,3.306,-1,8
392,4.13761,3.291,-1,8
393,4.14090,3.282,-1,8
394,4.14416,3.264,-1,8
395,4.14740,3.245,-1,8
396,4.15064,3.235,-1,8
397,4.15387,3.229,-1,8
398,4.15708,3.213,-1,8
399,4.16028,3.198,-1,8
400,4.16347,3.191,-1,8
401,4.16665,3.179,-1,8
402,4.16983,3.176,-1,8
403,4.17299,3.161,-1,8
404,4.17614,3.152,-1,8
405,4.17928,3.146,-1,8
406,4.18243,3.142,-1,8
407,4.18556,3.133,-1,8
408,4.18869,3.129,-1,8
409,4.19181,3.118,-1,8
410,4.19492,3.118,-1,8
411,4.19804,3.117,-1,8
412,4.20115,3.110,-1,8
413,4.20426,3.106,-1,8
414,4.20736,3.107,-1,8
415,4.21047,3.107,-1,8
416,4.21358,3.104,-1,8
417,4.21668,3.106,-1,8
418,4.21979,3.104,-1,8
419,4.22289,3.106,-1,8
420,4.22600,3.112,-1,8
421,4.23223,3.110,-1,8
422,4.23535,3.122,-1,8
423,4.23847,3.124,-1,8
424,4.24160,3.129,-1,8
425,4.24474,3.133,-1,8
426,4.24787,3.138,-1,8
427,4.25102,3.144,-1,8
428,4.25417,3.149,-1,8
429,4.25732,3.157,-1,8
430,4.26048,3.159,-1,8
431,4.26365,3.168,-1,8
432,4.26683,3.180,-1,8
433,4.27319,3.187,-1,8
434,4.27639,3.191,-1,8
435,4.28279,3.210,-1,8
436,4.28279,3.210,-1,8
437,4.28600,3.210,-1,8
438,4.28921,3.214,-1,8
439,4.29244,3.223,-1,8
440,4.29567,3.229,-1,8
441,4.29890,3.231,-1,8
442,4.30213,3.237,-1,8
443,4.30537,3.237,-1,8
444,4.30861,3.243,-1,8
445,4.31186,3.250,-1,8
446,4.31512,3.251,-1,8
447,4.31836,3.247,-1,8
448,4.32161,3.251,-1,8
449,4.32487,3.253,-1,8
450,4.32812,3.259,-1,8
451,4.33138,3.253,-1,8
452,4.33462,3.246,-1,8
453,4.33787,3.249,-1,8
454,4.34112,3.251,-1,8
455,4.34437,3.245,-1,8
456,4.34761,3.240,-1,8
457,4.35084,3.233,-1,8
458,4.35407,3.231,-1,8
459,4.35730,3.219,-1,8
460,4.36052,3.210,-1,8
461,4.36373,3.206,-1,8
462,4.37014,3.199,-1,8
463,4.37333,3.189,-1,8
464,4.37651,3.181,-1,8
465,4.37968,3.174,-1,8
466,4.38284,3.160,-1,8
467,4.38600,3.156,-1,8
468,4.38914,3.141,-1,8
469,4.39227,3.130,-1,8
470,4.39539,3.121,-1,8
471,4.39850,3.109,-1,8
472,4.40159,3.093,-1,8
473,4.40467,3.083,-1,8
474,4.40775,3.073,-1,8
475,4.41080,3.045,-1,8
476,4.41688,3.031,-1,8
477,4.41989,3.013,-1,8
478,4.42290,3.006,-1,8
479,4.42589,2.991,-1,8
480,4.42886,2.972,-1,8
481,4.43182,2.961,-1,8
482,4.43477,2.948,-1,8
483,4.43771,2.935,-1,8
484,4.44062,2.917,-1,8
485,4.44353,2.904,-1,8
486,4.44642,2.892,-1,8
487,4.44930,2.880,-1,8
488,4.45216,2.865,-1,8
489,4.45502,2.854,-1,8
490,4.45785,2.833,-1,8
491,4.46068,2.826,-1,8
492,4.46349,2.815,-1,8
493,4.46629,2.799,-1,8
494,4.46908,2.788,-1,8
495,4.47186,2.779,-1,8
496,4.47462,2.765,-1,8
497,4.47737,2.751,-1,8
498,4.48012,2.748,-1,8
499,4.48285,2.733,-1,8
500,4.48558,2.722,-1,8
501,4.48829,2.715,-1,8
502,4.49100,2.707,-1,8
503,4.49370,2.699,-1,8
504,4.49639,2.689,-1,8
505,4.49907,2.685,-1,8
506,4.50175,2.680,-1,8
507,4.50442,2.667,-1,8
508,4.50975,2.666,-1,8
509,4.51241,2.657,-1,8
510,4.51506,2.651,-1,8
511,4.51772,2.657,-1,8
512,4.52037,2.650,-1,8
513,4.52301,2.647,-1,8
514,4.52567,2.651,-1,8
515,4.52832,2.653,-1,8
516,4.53097,2.652,-1,8
517,4.53362,2.651,-1,8
518,4.53628,2.660,-1,8
519,4.53894,2.658,-1,8
520,4.54160,2.663,-1,8
521,4.54695,2.677,-1,8
522,4.54963,2.683,-1,8
523,4.55232,2.688,-1,8
524,4.55502,2.701,-1,8
525,4.55773,2.710,-1,8
526,4.56045,2.717,-1,8
527,4.56318,2.730,-1,8
528,4.56592,2.741,-1,8
529,4.56867,2.754,-1,8
530,4.57144,2.766,-1,8
531,4.57423,2.786,-1,8
532,4.57702,2.798,-1,8
533,4.57983,2.811,-1,8
534,4.58267,2.833,-1,8
535,4.58551,2.846,-1,8
536,4.58838,2.868,-1,8
537,4.59126,2.884,-1,8
538,4.59417,2.907,-1,8
539,4.59709,2.923,-1,8
540,4.60004,2.944,-1,8
541,4.60301,2.968,-1,8
542,4.60600,2.991,-1,8
543,4.60901,3.009,-1,8
544,4.61204,3.037,-1,8
545,4.61510,3.057,-1,8
546,4.61818,3.079,-1,8
547,4.62129,3.110,-1,8
548,4.62442,3.133,-1,8
549,4.62757,3.154,-1,8
550,4.63076,3.182,-1,8
551,4.63720,3.234,-1,8
552,4.64046,3.262,-1,8
553,4.64375,3.290,-1,8
554,4.64707,3.316,-1,8
555,4.65041,3.345,-1,8
556,4.65379,3.376,-1,8
557,4.65719,3.402,-1,8
558,4.66062,3.433,-1,8
559,4.66409,3.464,-1,8
560,4.66758,3.490,-1,8
561,4.67110,3.518,-1,8
562,4.67465,3.549,-1,8
563,4.67823,3.613,-1,8
564,4.68548,3.637,-1,8
565,4.68915,3.671,-1,8
566,4.69285,3.703,-1,8
567,4.69658,3.732,-1,8
568,4.70035,3.761,-1,8
569,4.70414,3.824,-1,8
570,4.71181,3.853,-1,8
571,4.71570,3.884,-1,8
572,4.71961,3.911,-1,8
573,4.72355,3.940,-1,8
574,4.72752,3.971,-1,8
575,4.73151,3.996,-1,8
576,4.73554,4.027,-1,8
577,4.73960,4.056,-1,8
578,4.74368,4.083,-1,8
579,4.74779,4.108,-1,8
580,4.75192,4.134,-1,8
581,4.75608,4.158,-1,8
582,4.76026,4.183,-1,8
583,4.76447,4.206,-1,8
584,4.76870,4.228,-1,8
585,4.77295,4.250,-1,8
586,4.77722,4.272,-1,8
587,4.78151,4.291,-1,8
588,4.78582,4.309,-1,8
589,4.79014,4.325,-1,8
590,4.79449,4.346,-1,8
591,4.79885,4.380,-1,8
592,4.80762,4.392,-1,8
593,4.80762,4.404,-1,8
594,4.81203,4.419,-1,8
595,4.82088,4.434,-1,8
596,4.82533,4.443,-1,8
597,4.82978,4.452,-1,8
598,4.83424,4.462,-1,8
599,4.83871,4.470,-1,8
600,4.84319,4.479,-1,8
601,4.84767,4.484,-1,8
602,4.85216,4.491,-1,8
603,4.85666,4.496,-1,8
604,4.86116,4.503,-1,8
605,4.86567,4.504,-1,8
606,4.87017,4.504,-1,8
607,4.87468,4.507,-1,8
608,4.87919,4.513,-1,8
609,4.88821,4.507,-1,8
610,4.89271,4.507,-1,8
611,4.89722,4.508,-1,8
612,4.90172,4.501,-1,8
613,4.90622,4.496,-1,8
614,4.91071,4.492,-1,8
615,4.91520,4.488,-1,8
616,4.91969,4.487,-1,8
617,4.92416,4.477,-1,8
618,4.92863,4.470,-1,8
619,4.93309,4.461,-1,8
620,4.93755,4.457,-1,8
621,4.94200,4.450,-1,8
622,4.94644,4.442,-1,8
623,4.95087,4.430,-1,8
624,4.95530,4.422,-1,8
625,4.95971,4.413,-1,8
626,4.96411,4.402,-1,8
627,4.96850,4.391,-1,8
628,4.97288,4.384,-1,8
629,4.97726,4.371,-1,8
630,4.98161,4.358,-1,8
631,4.98596,4.343,-1,8
632,4.99029,4.332,-1,8
633,4.99461,4.326,-1,8
634,4.99892,4.310,-1,8
635,5.00322,4.297,-1,8
636,5.00750,4.283,-1,8
637,5.01178,4.272,-1,8
638,5.01603,4.248,-1,8
639,5.02451,4.228,-1,8
640,5.02873,4.220,-1,8
641,5.03294,4.208,-1,8
642,5.03713,4.197,-1,8
643,5.04131,4.176,-1,8
644,5.04547,4.163,-1,8
645,5.04963,4.153,-1,8
646,5.05377,4.139,-1,8
647,5.05789,4.128,-1,8
648,5.06200,4.109,-1,8
649,5.07018,4.082,-1,8
650,5.07426,4.074,-1,8
651,5.07832,4.060,-1,8
652,5.08237,4.049,-1,8
653,5.08640,4.036,-1,8
654,5.09043,4.030,-1,8
655,5.09445,4.015,-1,8
656,5.09845,4.002,-1,8
657,5.10244,3.993,-1,8
658,5.10643,3.988,-1,8
659,5.11040,3.972,-1,8
660,5.11437,3.966,-1,8
661,5.11833,3.958,-1,8
662,5.12227,3.947,-1,8
663,5.12621,3.940,-1,8
664,5.13015,3.935,-1,8
665,5.13408,3.929,-1,8
666,5.13800,3.919,-1,8
667,5.14191,3.916,-1,8
668,5.14582,3.911,-1,8
669,5.14973,3.910,-1,8
670,5.15364,3.902,-1,8
671,5.15753,3.898,-1,8
672,5.16143,3.896,-1,8
673,5.16533,3.897,-1,8
674,5.16922,3.895,-1,8
675,5.17311,3.891,-1,8
676,5.17701,3.895,-1,8
677,5.18090,3.896,-1,8
678,5.18480,3.895,-1,8
679,5.18869,3.895,-1,8
680,5.19259,3.897,-1,8
681,5.20040,3.906,-1,8
682,5.20431,3.908,-1,8
683,5.20822,3.915,-1,8
684,5.21214,3.918,-1,8
685,5.21607,3.928,-1,8
686,5.22000,3.932,-1,8
687,5.22394,3.944,-1,8
688,5.22789,3.952,-1,8
689,5.23185,3.959,-1,8
690,5.23582,3.969,-1,8
691,5.23980,3.978,-1,8
692,5.24379,3.991,-1,8
693,5.24780,4.006,-1,8
694,5.25181,4.011,-1,8
695,5.25583,4.027,-1,8
696,5.25987,4.039,-1,8
697,5.26392,4.052,-1,8
698,5.26799,4.065,-1,8
699,5.27207,4.094,-1,8
700,5.28027,4.107,-1,8
701,5.28439,4.123,-1,8
702,5.28853,4.136,-1,8
703,5.29268,4.152,-1,8
704,5.29684,4.165,-1,8
705,5.30103,4.183,-1,8
706,5.30522,4.196,-1,8
707,5.30943,4.207,-1,8
708,5.31365,4.222,-1,8
709,5.31789,4.238,-1,8
710,5.32214,4.251,-1,8
711,5.32640,4.259,-1,8
712,5.33067,4.273,-1,8
713,5.33496,4.284,-1,8
714,5.33926,4.300,-1,8
715,5.34357,4.308,-1,8
716,5.34789,4.318,-1,8
717,5.35221,4.325,-1,8
718,5.35655,4.337,-1,8
719,5.36089,4.344,-1,8
720,5.36525,4.354,-1,8
721,5.36961,4.361,-1,8
722,5.37397,4.365,-1,8
723,5.37834,4.372,-1,8
724,5.38272,4.378,-1,8
725,5.38710,4.380,-1,8
726,5.39148,4.382,-1,8
727,5.39587,4.388,-1,8
728,5.40026,4.387,-1,8
729,5.40465,4.391,-1,8
730,5.40903,4.384,-1,8
731,5.41342,4.385,-1,8
732,5.42219,4.384,-1,8
733,5.42657,4.379,-1,8
734,5.43094,4.377,-1,8
735,5.43531,4.370,-1,8
736,5.43968,4.366,-1,8
737,5.44404,4.362,-1,8
738,5.44839,4.351,-1,8
739,5.45274,4.348,-1,8
740,5.45708,4.338,-1,8
741,5.46141,4.330,-1,8
742,5.46573,4.319,-1,8
743,5.47003,4.309,-1,8
744,5.47433,4.294,-1,8
745,5.47862,4.274,-1,8
746,5.48715,4.263,-1,8
747,5.49140,4.246,-1,8
748,5.49563,4.230,-1,8
749,5.49985,4.219,-1,8
750,5.50406,4.206,-1,8
751,5.50824,4.190,-1,8
752,5.51242,4.174,-1,8
753,5.51658,4.157,-1,8
754,5.52072,4.140,-1,8
755,5.52484,4.123,-1,8
756,5.52895,4.108,-1,8
757,5.53304,4.092,-1,8
758,5.53711,4.074,-1,8
759,5.54117,4.053,-1,8
760,5.54520,4.038,-1,8
761,5.54922,4.020,-1,8
762,5.55322,4.001,-1,8
763,5.55721,3.984,-1,8
764,5.56117,3.965,-1,8
765,5.56512,3.949,-1,8
766,5.56905,3.929,-1,8
767,5.57297,3.914,-1,8
768,5.57686,3.894,-1,8
769,5.58074,3.877,-1,8
770,5.58460,3.862,-1,8
771,5.58844,3.843,-1,8
772,5.59227,3.825,-1,8
773,5.59608,3.806,-1,8
774,5.59987,3.791,-1,8
775,5.60740,3.755,-1,8
776,5.61114,3.738,-1,8
777,5.61486,3.720,-1,8
778,5.61856,3.706,-1,8
779,5.62225,3.691,-1,8
780,5.62593,3.673,-1,8
781,5.62958,3.659,-1,8
782,5.63323,3.643,-1,8
783,5.63685,3.628,-1,8
784,5.64047,3.617,-1,8
785,5.64407,3.601,-1,8
786,5.64766,3.589,-1,8
787,5.65481,3.569,-1,8
788,5.66191,3.542,-1,8
789,5.66544,3.534,-1,8
790,5.66897,3.530,-1,8
791,5.67249,3.519,-1,8
792,5.67600,3.509,-1,8
793,5.67950,3.502,-1,8
794,5.68300,3.500,-1,8
795,5.68649,3.494,-1,8
796,5.68998,3.484,-1,8
797,5.69346,3.481,-1,8
798,5.69694,3.483,-1,8
799,5.70042,3.479,-1,8
800,5.70390,3.475,-1,8
801,5.70737,3.472,-1,8
802,5.71084,3.475,-1,8
803,5.71432,3.479,-1,8
804,5.71780,3.481,-1,8
805,5.72128,3.480,-1,8
806,5.72477,3.485,-1,8
807,5.72826,3.496,-1,8
808,5.73176,3.496,-1,8
809,5.73526,3.502,-1,8
810,5.73877,3.510,-1,8
811,5.74230,3.524,-1,8
812,5.74583,3.529,-1,8
813,5.74936,3.535,-1,8
814,5.75291,3.550,-1,8
815,5.75647,3.563,-1,8
816,5.76364,3.588,-1,8
817,5.76724,3.599,-1,8
818,5.77085,3.616,-1,8
819,5.77449,3.634,-1,8
820,5.77814,3.650,-1,8
821,5.78180,3.666,-1,8
822,5.78548,3.681,-1,8
823,5.78919,3.706,-1,8
824,5.79291,3.725,-1,8
825,5.79665,3.742,-1,8
826,5.80042,3.761,-1,8
827,5.80420,3.786,-1,8
828,5.80801,3.808,-1,8
829,5.81184,3.828,-1,8
830,5.81568,3.846,-1,8
831,5.81956,3.874,-1,8
832,5.82346,3.898,-1,8
833,5.83131,3.937,-1,8
834,5.83527,3.961,-1,8
835,5.83927,3.993,-1,8
836,5.84328,4.013,-1,8
837,5.84731,4.032,-1,8
838,5.85137,4.057,-1,8
839,5.85545,4.109,-1,8
840,5.85956,4.109,-1,8
841,5.86369,4.128,-1,8
842,5.86784,4.153,-1,8
843,5.87203,4.180,-1,8
844,5.87623,4.206,-1,8
845,5.88045,4.224,-1,8
846,5.88470,4.270,-1,8
847,5.88897,4.291,-1,8
848,5.89326,4.291,-1,8
849,5.89757,4.313,-1,8
850,5.90190,4.331,-1,8
851,5.90626,4.351,-1,8
852,5.91063,4.375,-1,8
853,5.91503,4.396,-1,8
854,5.91944,4.410,-1,8
855,5.92387,4.429,-1,8
856,5.92832,4.451,-1,8
857,5.93279,4.473,-1,8
858,5.93728,4.491,-1,8
859,5.94178,4.503,-1,8
860,5.94631,4.523,-1,8
861,5.95085,4.539,-1,8
862,5.95540,4.557,-1,8
863,5.95997,4.569,-1,8
864,5.96456,4.586,-1,8
865,5.96916,4.598,-1,8
866,5.97377,4.626,-1,8
867,5.98303,4.637,-1,8
868,5.98768,4.652,-1,8
869,5.99235,4.664,-1,8
870,5.99702,4.673,-1,8
871,6.00170,4.683,-1,8
872,6.00640,4.693,-1,8
873,6.01110,4.703,-1,8
