cnt,pos,speed,Dir,Force,
1,3.11890,1.007,-1,14
2,3.11992,1.022,-1,14
3,3.12094,1.015,-1,14
4,3.12195,1.014,-1,14
5,3.12300,1.046,-1,14
6,3.12408,1.085,-1,14
7,3.12517,1.094,-1,14
8,3.12625,1.074,-1,14
9,3.12733,1.081,-1,14
10,3.12846,1.128,-1,14
11,3.12963,1.170,-1,14
12,3.13078,1.157,-1,14
13,3.13192,1.139,-1,14
14,3.13310,1.174,-1,14
15,3.13434,1.240,-1,14
16,3.13558,1.247,-1,14
17,3.13679,1.208,-1,14
18,3.13802,1.227,-1,14
19,3.13932,1.302,-1,14
20,3.14065,1.330,-1,14
21,3.14194,1.292,-1,14
22,3.14324,1.297,-1,14
23,3.14460,1.363,-1,14
24,3.14600,1.400,-1,14
25,3.14738,1.381,-1,14
26,3.14877,1.386,-1,14
27,3.15019,1.425,-1,14
28,3.15313,1.475,-1,14
29,3.15460,1.477,-1,14
30,3.15610,1.493,-1,14
31,3.15763,1.536,-1,14
32,3.15920,1.568,-1,14
33,3.16076,1.558,-1,14
34,3.16233,1.574,-1,14
35,3.16395,1.624,-1,14
36,3.16561,1.652,-1,14
37,3.16727,1.659,-1,14
38,3.16894,1.675,-1,14
39,3.17064,1.700,-1,14
40,3.17238,1.743,-1,14
41,3.17415,1.766,-1,14
42,3.17591,1.765,-1,14
43,3.17772,1.801,-1,14
44,3.17955,1.837,-1,14
45,3.18141,1.857,-1,14
46,3.18328,1.871,-1,14
47,3.18517,1.889,-1,14
48,3.18711,1.938,-1,14
49,3.18906,1.954,-1,14
50,3.19102,1.960,-1,14
51,3.19301,1.991,-1,14
52,3.19505,2.034,-1,14
53,3.19712,2.070,-1,14
54,3.19918,2.065,-1,14
55,3.20127,2.094,-1,14
56,3.20560,2.179,-1,14
57,3.20778,2.182,-1,14
58,3.20998,2.198,-1,14
59,3.21223,2.250,-1,14
60,3.21451,2.283,-1,14
61,3.21680,2.291,-1,14
62,3.21911,2.305,-1,14
63,3.22146,2.353,-1,14
64,3.22385,2.389,-1,14
65,3.22625,2.398,-1,14
66,3.22865,2.407,-1,14
67,3.23110,2.451,-1,14
68,3.23359,2.484,-1,14
69,3.23608,2.495,-1,14
70,3.23858,2.496,-1,14
71,3.24111,2.534,-1,14
72,3.24369,2.574,-1,14
73,3.24626,2.573,-1,14
74,3.24883,2.576,-1,14
75,3.25145,2.619,-1,14
76,3.25411,2.652,-1,14
77,3.25675,2.640,-1,14
78,3.25940,2.653,-1,14
79,3.26209,2.691,-1,14
80,3.26480,2.712,-1,14
81,3.26750,2.701,-1,14
82,3.27021,2.749,-1,14
83,3.27296,2.756,-1,14
84,3.27571,2.741,-1,14
85,3.28121,2.756,-1,14
86,3.28400,2.786,-1,14
87,3.28678,2.786,-1,14
88,3.28955,2.771,-1,14
89,3.29235,2.792,-1,14
90,3.29515,2.802,-1,14
91,3.29795,2.797,-1,14
92,3.30073,2.780,-1,14
93,3.30348,2.754,-1,14
94,3.30622,2.740,-1,14
95,3.30896,2.737,-1,14
96,3.31170,2.739,-1,14
97,3.31442,2.722,-1,14
98,3.31712,2.704,-1,14
99,3.31984,2.713,-1,14
100,3.32255,2.713,-1,14
101,3.32525,2.698,-1,14
102,3.32793,2.685,-1,14
103,3.33062,2.691,-1,14
104,3.33331,2.684,-1,14
105,3.33598,2.667,-1,14
106,3.33863,2.650,-1,14
107,3.34123,2.606,-1,14
108,3.34379,2.560,-1,14
109,3.34633,2.536,-1,14
110,3.34887,2.531,-1,14
111,3.35390,2.496,-1,14
112,3.35637,2.473,-1,14
113,3.35885,2.476,-1,14
114,3.36132,2.471,-1,14
115,3.36377,2.446,-1,14
116,3.36620,2.429,-1,14
117,3.36862,2.425,-1,14
118,3.37104,2.416,-1,14
119,3.37343,2.390,-1,14
120,3.37581,2.383,-1,14
121,3.37818,2.372,-1,14
122,3.38054,2.359,-1,14
123,3.38289,2.346,-1,14
124,3.38522,2.336,-1,14
125,3.38754,2.318,-1,14
126,3.38984,2.297,-1,14
127,3.39212,2.284,-1,14
128,3.39441,2.286,-1,14
129,3.39668,2.268,-1,14
130,3.39892,2.245,-1,14
131,3.40116,2.235,-1,14
132,3.40339,2.229,-1,14
133,3.40560,2.213,-1,14
134,3.40778,2.182,-1,14
135,3.40995,2.174,-1,14
136,3.41213,2.173,-1,14
137,3.41430,2.168,-1,14
138,3.41643,2.135,-1,14
139,3.41855,2.124,-1,14
140,3.42279,2.119,-1,14
141,3.42488,2.094,-1,14
142,3.42694,2.054,-1,14
143,3.42897,2.031,-1,14
144,3.43098,2.011,-1,14
145,3.43298,1.998,-1,14
146,3.43494,1.962,-1,14
147,3.43688,1.944,-1,14
148,3.43882,1.935,-1,14
149,3.44075,1.934,-1,14
150,3.44268,1.922,-1,14
151,3.44457,1.894,-1,14
152,3.44647,1.896,-1,14
153,3.44836,1.899,-1,14
154,3.45025,1.889,-1,14
155,3.45212,1.871,-1,14
156,3.45398,1.851,-1,14
157,3.45585,1.871,-1,14
158,3.45772,1.870,-1,14
159,3.45957,1.853,-1,14
160,3.46141,1.844,-1,14
161,3.46325,1.838,-1,14
162,3.46509,1.843,-1,14
163,3.46692,1.829,-1,14
164,3.46874,1.815,-1,14
165,3.47056,1.824,-1,14
166,3.47238,1.821,-1,14
167,3.47419,1.811,-1,14
168,3.47600,1.804,-1,14
169,3.47962,1.815,-1,14
170,3.48141,1.790,-1,14
171,3.48318,1.770,-1,14
172,3.48496,1.782,-1,14
173,3.48675,1.792,-1,14
174,3.48854,1.788,-1,14
175,3.49030,1.762,-1,14
176,3.49205,1.754,-1,14
177,3.49384,1.782,-1,14
178,3.49562,1.782,-1,14
179,3.49739,1.769,-1,14
180,3.49915,1.762,-1,14
181,3.50091,1.757,-1,14
182,3.50268,1.776,-1,14
183,3.50445,1.766,-1,14
184,3.50620,1.752,-1,14
185,3.50797,1.765,-1,14
186,3.50973,1.770,-1,14
187,3.51150,1.769,-1,14
188,3.51327,1.767,-1,14
189,3.51503,1.761,-1,14
190,3.51682,1.783,-1,14
191,3.51859,1.776,-1,14
192,3.52035,1.757,-1,14
193,3.52212,1.783,-1,14
194,3.52569,1.789,-1,14
195,3.52746,1.770,-1,14
196,3.52921,1.751,-1,14
197,3.53098,1.776,-1,14
198,3.53278,1.793,-1,14
199,3.53455,1.775,-1,14
200,3.53631,1.759,-1,14
201,3.53807,1.756,-1,14
202,3.53985,1.780,-1,14
203,3.54164,1.788,-1,14
204,3.54339,1.755,-1,14
205,3.54514,1.753,-1,14
206,3.54691,1.770,-1,14
207,3.54869,1.774,-1,14
208,3.55046,1.769,-1,14
209,3.55220,1.743,-1,14
210,3.55396,1.757,-1,14
211,3.55574,1.779,-1,14
212,3.55749,1.758,-1,14
213,3.55924,1.743,-1,14
214,3.56098,1.747,-1,14
215,3.56275,1.763,-1,14
216,3.56452,1.769,-1,14
217,3.56626,1.740,-1,14
218,3.56799,1.730,-1,14
219,3.56974,1.756,-1,14
220,3.57149,1.743,-1,14
221,3.57324,1.720,-1,14
222,3.57668,1.722,-1,14
223,3.57843,1.746,-1,14
224,3.58016,1.734,-1,14
225,3.58187,1.712,-1,14
226,3.58359,1.714,-1,14
227,3.58530,1.716,-1,14
228,3.58703,1.724,-1,14
229,3.58874,1.715,-1,14
230,3.59044,1.696,-1,14
231,3.59215,1.711,-1,14
232,3.59386,1.713,-1,14
233,3.59556,1.696,-1,14
234,3.59725,1.695,-1,14
235,3.59894,1.691,-1,14
236,3.60064,1.698,-1,14
237,3.60234,1.703,-1,14
238,3.60402,1.679,-1,14
239,3.60570,1.679,-1,14
240,3.60739,1.692,-1,14
241,3.60908,1.684,-1,14
242,3.61076,1.686,-1,14
243,3.61245,1.681,-1,14
244,3.61412,1.669,-1,14
245,3.61580,1.681,-1,14
246,3.61916,1.677,-1,14
247,3.62084,1.686,-1,14
248,3.62252,1.676,-1,14
249,3.62419,1.674,-1,14
250,3.62588,1.688,-1,14
251,3.62757,1.687,-1,14
252,3.62925,1.686,-1,14
253,3.63094,1.688,-1,14
254,3.63262,1.675,-1,14
255,3.63431,1.690,-1,14
256,3.63601,1.700,-1,14
257,3.63770,1.691,-1,14
258,3.63939,1.694,-1,14
259,3.64109,1.694,-1,14
260,3.64278,1.696,-1,14
261,3.64449,1.712,-1,14
262,3.64620,1.706,-1,14
263,3.64791,1.706,-1,14
264,3.64963,1.720,-1,14
265,3.65134,1.718,-1,14
266,3.65307,1.725,-1,14
267,3.65480,1.729,-1,14
268,3.65653,1.730,-1,14
269,3.65828,1.748,-1,14
270,3.66003,1.749,-1,14
271,3.66177,1.744,-1,14
272,3.66353,1.760,-1,14
273,3.66530,1.767,-1,14
274,3.66708,1.782,-1,14
275,3.66887,1.786,-1,14
276,3.67065,1.802,-1,14
277,3.67427,1.823,-1,14
278,3.67610,1.832,-1,14
279,3.67794,1.837,-1,14
280,3.67978,1.839,-1,14
281,3.68165,1.866,-1,14
282,3.68353,1.889,-1,14
283,3.68543,1.890,-1,14
284,3.68733,1.901,-1,14
285,3.68923,1.907,-1,14
286,3.69117,1.940,-1,14
287,3.69313,1.956,-1,14
288,3.69509,1.959,-1,14
289,3.69706,1.976,-1,14
290,3.69906,1.994,-1,14
291,3.70108,2.023,-1,14
292,3.70311,2.032,-1,14
293,3.70516,2.050,-1,14
294,3.70724,2.074,-1,14
295,3.70933,2.095,-1,14
296,3.71145,2.113,-1,14
297,3.71358,2.131,-1,14
298,3.71574,2.164,-1,14
299,3.71792,2.181,-1,14
300,3.72012,2.198,-1,14
301,3.72234,2.220,-1,14
302,3.72460,2.257,-1,14
303,3.72687,2.292,-1,14
304,3.73148,2.316,-1,14
305,3.73384,2.362,-1,14
306,3.73623,2.381,-1,14
307,3.73862,2.422,-1,14
308,3.74104,2.464,-1,14
309,3.74351,2.464,-1,14
310,3.74600,2.487,-1,14
311,3.74850,2.500,-1,14
312,3.75101,2.516,-1,14
313,3.75358,2.567,-1,14
314,3.75617,2.592,-1,14
315,3.75877,2.600,-1,14
316,3.76139,2.620,-1,14
317,3.76406,2.664,-1,14
318,3.76674,2.686,-1,14
319,3.76943,2.693,-1,14
320,3.77215,2.720,-1,14
321,3.77490,2.747,-1,14
322,3.77767,2.768,-1,14
323,3.78045,2.780,-1,14
324,3.78325,2.799,-1,14
325,3.78607,2.821,-1,14
326,3.78891,2.835,-1,14
327,3.79176,2.856,-1,14
328,3.79463,2.864,-1,14
329,3.79750,2.902,-1,14
330,3.80331,2.908,-1,14
331,3.80622,2.911,-1,14
332,3.80914,2.922,-1,14
333,3.81208,2.941,-1,14
334,3.81503,2.945,-1,14
335,3.81797,2.943,-1,14
336,3.82092,2.952,-1,14
337,3.82389,2.963,-1,14
338,3.82685,2.963,-1,14
339,3.82981,2.963,-1,14
340,3.83278,2.964,-1,14
341,3.83574,2.966,-1,14
342,3.83871,2.972,-1,14
343,3.84168,2.965,-1,14
344,3.84464,2.959,-1,14
345,3.84760,2.959,-1,14
346,3.85056,2.961,-1,14
347,3.85351,2.952,-1,14
348,3.85646,2.948,-1,14
349,3.85940,2.939,-1,14
350,3.86233,2.934,-1,14
351,3.86526,2.927,-1,14
352,3.86818,2.920,-1,14
353,3.87109,2.909,-1,14
354,3.87398,2.895,-1,14
355,3.87688,2.895,-1,14
356,3.87976,2.879,-1,14
357,3.88262,2.867,-1,14
358,3.88548,2.858,-1,14
359,3.89116,2.830,-1,14
360,3.89397,2.816,-1,14
361,3.89678,2.806,-1,14
362,3.89956,2.786,-1,14
363,3.90233,2.770,-1,14
364,3.90510,2.766,-1,14
365,3.90784,2.743,-1,14
366,3.91056,2.723,-1,14
367,3.91328,2.712,-1,14
368,3.91597,2.697,-1,14
369,3.91865,2.676,-1,14
370,3.92131,2.656,-1,14
371,3.92395,2.645,-1,14
372,3.92658,2.627,-1,14
373,3.92918,2.606,-1,14
374,3.93178,2.595,-1,14
375,3.93436,2.576,-1,14
376,3.93691,2.557,-1,14
377,3.93945,2.537,-1,14
378,3.94198,2.530,-1,14
379,3.94449,2.509,-1,14
380,3.94697,2.486,-1,14
381,3.94944,2.470,-1,14
382,3.95191,2.466,-1,14
383,3.95435,2.440,-1,14
384,3.95677,2.420,-1,14
385,3.95918,2.410,-1,14
386,3.96158,2.404,-1,14
387,3.96396,2.380,-1,14
388,3.96633,2.363,-1,14
389,3.97103,2.350,-1,14
390,3.97335,2.323,-1,14
391,3.97566,2.309,-1,14
392,3.97796,2.299,-1,14
393,3.98025,2.296,-1,14
394,3.98253,2.281,-1,14
395,3.98480,2.266,-1,14
396,3.98706,2.255,-1,14
397,3.98932,2.262,-1,14
398,3.99156,2.245,-1,14
399,3.99379,2.231,-1,14
400,3.99602,2.224,-1,14
401,3.99825,2.236,-1,14
402,4.00048,2.223,-1,14
403,4.00268,2.206,-1,14
404,4.00488,2.199,-1,14
405,4.00710,2.216,-1,14
406,4.00931,2.212,-1,14
407,4.01150,2.194,-1,14
408,4.01369,2.190,-1,14
409,4.01590,2.206,-1,14
410,4.01812,2.215,-1,14
411,4.02031,2.196,-1,14
412,4.02251,2.196,-1,14
413,4.02472,2.209,-1,14
414,4.02695,2.230,-1,14
415,4.02916,2.213,-1,14
416,4.03137,2.210,-1,14
417,4.03359,2.221,-1,14
418,4.03584,2.251,-1,14
419,4.03808,2.244,-1,14
420,4.04256,2.246,-1,14
421,4.04485,2.283,-1,14
422,4.04713,2.286,-1,14
423,4.04940,2.271,-1,14
424,4.05168,2.279,-1,14
425,4.05400,2.318,-1,14
426,4.05633,2.332,-1,14
427,4.05864,2.309,-1,14
428,4.06096,2.316,-1,14
429,4.06331,2.355,-1,14
430,4.06569,2.372,-1,14
431,4.06804,2.353,-1,14
432,4.07039,2.354,-1,14
433,4.07278,2.387,-1,14
434,4.07519,2.411,-1,14
435,4.07759,2.393,-1,14
436,4.07997,2.385,-1,14
437,4.08239,2.420,-1,14
438,4.08483,2.440,-1,14
439,4.08725,2.421,-1,14
440,4.08966,2.410,-1,14
441,4.09210,2.443,-1,14
442,4.09456,2.456,-1,14
443,4.09700,2.439,-1,14
444,4.09943,2.428,-1,14
445,4.10188,2.457,-1,14
446,4.10434,2.461,-1,14
447,4.10679,2.447,-1,14
448,4.10922,2.434,-1,14
449,4.11168,2.454,-1,14
450,4.11657,2.440,-1,14
451,4.11900,2.423,-1,14
452,4.12143,2.439,-1,14
453,4.12387,2.435,-1,14
454,4.12629,2.417,-1,14
455,4.12869,2.403,-1,14
456,4.13110,2.415,-1,14
457,4.13351,2.403,-1,14
458,4.13589,2.386,-1,14
459,4.13827,2.374,-1,14
460,4.14065,2.381,-1,14
461,4.14301,2.364,-1,14
462,4.14535,2.343,-1,14
463,4.14769,2.338,-1,14
464,4.15003,2.336,-1,14
465,4.15235,2.317,-1,14
466,4.15465,2.301,-1,14
467,4.15694,2.293,-1,14
468,4.15923,2.293,-1,14
469,4.16150,2.270,-1,14
470,4.16376,2.254,-1,14
471,4.16600,2.245,-1,14
472,4.16825,2.248,-1,14
473,4.17047,2.223,-1,14
474,4.17267,2.200,-1,14
475,4.17486,2.189,-1,14
476,4.17707,2.203,-1,14
477,4.17924,2.178,-1,14
478,4.18139,2.147,-1,14
479,4.18353,2.140,-1,14
480,4.18569,2.141,-1,14
481,4.18993,2.098,-1,14
482,4.19202,2.094,-1,14
483,4.19413,2.105,-1,14
484,4.19624,2.105,-1,14
485,4.19830,2.059,-1,14
486,4.20034,2.044,-1,14
487,4.20240,2.063,-1,14
488,4.20447,2.066,-1,14
489,4.20650,2.032,-1,14
490,4.20850,1.999,-1,14
491,4.21052,2.019,-1,14
492,4.21255,2.030,-1,14
493,4.21456,2.011,-1,14
494,4.21653,1.974,-1,14
495,4.21851,1.979,-1,14
496,4.22052,2.004,-1,14
497,4.22251,1.991,-1,14
498,4.22447,1.966,-1,14
499,4.22642,1.950,-1,14
500,4.22840,1.976,-1,14
501,4.23038,1.977,-1,14
502,4.23233,1.955,-1,14
503,4.23427,1.944,-1,14
504,4.23622,1.947,-1,14
505,4.23819,1.969,-1,14
506,4.24015,1.958,-1,14
507,4.24209,1.943,-1,14
508,4.24404,1.951,-1,14
509,4.24600,1.961,-1,14
510,4.24797,1.971,-1,14
511,4.24993,1.958,-1,14
512,4.25386,1.973,-1,14
513,4.25583,1.974,-1,14
514,4.25781,1.977,-1,14
515,4.25978,1.970,-1,14
516,4.26178,1.994,-1,14
517,4.26378,2.000,-1,14
518,4.26577,1.995,-1,14
519,4.26777,2.002,-1,14
520,4.26979,2.017,-1,14
521,4.27183,2.039,-1,14
522,4.27386,2.031,-1,14
523,4.27590,2.035,-1,14
524,4.27795,2.052,-1,14
525,4.28003,2.082,-1,14
526,4.28211,2.077,-1,14
527,4.28418,2.071,-1,14
528,4.28627,2.093,-1,14
529,4.28839,2.120,-1,14
530,4.29052,2.135,-1,14
531,4.29264,2.118,-1,14
532,4.29478,2.136,-1,14
533,4.29695,2.169,-1,14
534,4.29914,2.191,-1,14
535,4.30132,2.179,-1,14
536,4.30350,2.187,-1,14
537,4.30573,2.222,-1,14
538,4.30797,2.249,-1,14
539,4.31022,2.245,-1,14
540,4.31246,2.244,-1,14
541,4.31474,2.273,-1,14
542,4.31704,2.305,-1,14
543,4.32167,2.307,-1,14
544,4.32399,2.325,-1,14
545,4.32636,2.366,-1,14
546,4.32875,2.389,-1,14
547,4.33112,2.374,-1,14
548,4.33350,2.381,-1,14
549,4.33593,2.424,-1,14
550,4.33838,2.458,-1,14
551,4.34082,2.440,-1,14
552,4.34327,2.442,-1,14
553,4.34575,2.484,-1,14
554,4.34827,2.519,-1,14
555,4.35078,2.508,-1,14
556,4.35328,2.503,-1,14
557,4.35582,2.542,-1,14
558,4.35840,2.582,-1,14
559,4.36098,2.577,-1,14
560,4.36354,2.565,-1,14
561,4.36615,2.603,-1,14
562,4.36878,2.634,-1,14
563,4.37142,2.637,-1,14
564,4.37405,2.631,-1,14
565,4.37671,2.657,-1,14
566,4.37939,2.685,-1,14
567,4.38208,2.692,-1,14
568,4.38478,2.696,-1,14
569,4.38749,2.705,-1,14
570,4.39022,2.733,-1,14
571,4.39297,2.751,-1,14
572,4.39572,2.751,-1,14
573,4.39848,2.755,-1,14
574,4.40405,2.801,-1,14
575,4.40685,2.800,-1,14
576,4.40965,2.800,-1,14
577,4.41247,2.819,-1,14
578,4.41532,2.845,-1,14
579,4.41816,2.845,-1,14
580,4.42101,2.845,-1,14
581,4.42387,2.864,-1,14
582,4.42675,2.879,-1,14
583,4.42963,2.885,-1,14
584,4.43253,2.891,-1,14
585,4.43542,2.898,-1,14
586,4.43833,2.910,-1,14
587,4.44126,2.929,-1,14
588,4.44419,2.928,-1,14
589,4.44712,2.930,-1,14
590,4.45006,2.943,-1,14
591,4.45302,2.959,-1,14
592,4.45598,2.959,-1,14
593,4.45894,2.958,-1,14
594,4.46191,2.974,-1,14
595,4.46490,2.984,-1,14
596,4.46788,2.981,-1,14
597,4.47087,2.995,-1,14
598,4.47387,2.995,-1,14
599,4.47687,3.001,-1,14
600,4.47988,3.014,-1,14
601,4.48290,3.012,-1,14
602,4.48591,3.014,-1,14
603,4.48894,3.028,-1,14
604,4.49197,3.030,-1,14
605,4.49804,3.038,-1,14
606,4.50108,3.043,-1,14
607,4.50413,3.049,-1,14
608,4.50718,3.055,-1,14
609,4.51024,3.059,-1,14
610,4.51330,3.059,-1,14
611,4.51637,3.070,-1,14
612,4.51945,3.076,-1,14
613,4.52253,3.078,-1,14
614,4.52561,3.081,-1,14
615,4.52870,3.091,-1,14
616,4.53179,3.095,-1,14
617,4.53489,3.099,-1,14
618,4.53799,3.102,-1,14
619,4.54110,3.107,-1,14
620,4.54421,3.113,-1,14
621,4.54733,3.119,-1,14
622,4.55045,3.122,-1,14
623,4.55358,3.126,-1,14
624,4.55671,3.134,-1,14
625,4.55985,3.138,-1,14
626,4.56300,3.145,-1,14
627,4.56615,3.149,-1,14
628,4.56930,3.153,-1,14
629,4.57246,3.158,-1,14
630,4.57563,3.169,-1,14
631,4.57880,3.172,-1,14
632,4.58198,3.178,-1,14
633,4.58516,3.187,-1,14
634,4.58836,3.192,-1,14
635,4.59156,3.201,-1,14
636,4.59798,3.211,-1,14
637,4.60120,3.220,-1,14
638,4.60443,3.232,-1,14
639,4.60767,3.235,-1,14
640,4.61091,3.245,-1,14
641,4.61416,3.253,-1,14
642,4.61742,3.258,-1,14
643,4.62069,3.270,-1,14
644,4.62397,3.276,-1,14
645,4.62725,3.279,-1,14
646,4.63054,3.291,-1,14
647,4.63383,3.297,-1,14
648,4.63714,3.305,-1,14
649,4.64045,3.314,-1,14
650,4.64377,3.318,-1,14
651,4.64710,3.324,-1,14
652,4.65043,3.339,-1,14
653,4.65377,3.341,-1,14
654,4.65712,3.343,-1,14
655,4.66047,3.356,-1,14
656,4.66383,3.358,-1,14
657,4.66720,3.364,-1,14
658,4.67056,3.366,-1,14
659,4.67394,3.374,-1,14
660,4.67731,3.379,-1,14
661,4.68070,3.381,-1,14
662,4.68407,3.379,-1,14
663,4.68746,3.387,-1,14
664,4.69085,3.389,-1,14
665,4.69424,3.386,-1,14
666,4.69762,3.387,-1,14
667,4.70101,3.388,-1,14
668,4.70778,3.386,-1,14
669,4.71116,3.379,-1,14
670,4.71454,3.379,-1,14
671,4.71792,3.375,-1,14
672,4.72129,3.369,-1,14
673,4.72465,3.368,-1,14
674,4.72801,3.355,-1,14
675,4.73136,3.350,-1,14
676,4.73471,3.349,-1,14
677,4.73805,3.323,-1,14
678,4.74137,3.323,-1,14
679,4.74469,3.320,-1,14
680,4.74800,3.310,-1,14
681,4.75130,3.299,-1,14
682,4.75459,3.287,-1,14
683,4.75786,3.271,-1,14
684,4.76112,3.258,-1,14
685,4.76437,3.250,-1,14
686,4.76760,3.235,-1,14
687,4.77082,3.218,-1,14
688,4.77402,3.204,-1,14
689,4.77721,3.187,-1,14
690,4.78038,3.173,-1,14
691,4.78354,3.156,-1,14
692,4.78668,3.137,-1,14
693,4.78980,3.122,-1,14
694,4.79290,3.106,-1,14
695,4.79599,3.085,-1,14
696,4.79906,3.070,-1,14
697,4.80211,3.051,-1,14
698,4.80514,3.032,-1,14
699,4.80816,3.014,-1,14
700,4.81115,2.994,-1,14
701,4.81412,2.975,-1,14
702,4.81708,2.960,-1,14
703,4.82002,2.939,-1,14
704,4.82294,2.916,-1,14
705,4.82584,2.896,-1,14
706,4.82872,2.863,-1,14
707,4.83442,2.838,-1,14
708,4.83724,2.825,-1,14
709,4.84005,2.804,-1,14
710,4.84283,2.784,-1,14
711,4.84560,2.767,-1,14
712,4.84835,2.755,-1,14
713,4.85109,2.731,-1,14
714,4.85380,2.711,-1,14
715,4.85650,2.702,-1,14
716,4.85918,2.682,-1,14
717,4.86185,2.664,-1,14
718,4.86449,2.650,-1,14
719,4.86713,2.636,-1,14
720,4.86975,2.624,-1,14
721,4.87236,2.605,-1,14
722,4.87495,2.594,-1,14
723,4.87753,2.582,-1,14
724,4.88010,2.565,-1,14
725,4.88265,2.550,-1,14
726,4.88520,2.547,-1,14
727,4.88773,2.531,-1,14
728,4.89024,2.513,-1,14
729,4.89275,2.510,-1,14
730,4.89526,2.506,-1,14
731,4.89775,2.488,-1,14
732,4.90022,2.474,-1,14
733,4.90270,2.480,-1,14
734,4.90517,2.471,-1,14
735,4.90763,2.457,-1,14
736,4.91007,2.444,-1,14
737,4.91253,2.454,-1,14
738,4.91497,2.445,-1,14
739,4.91983,2.427,-1,14
740,4.92227,2.440,-1,14
741,4.92470,2.429,-1,14
742,4.92712,2.417,-1,14
743,4.92953,2.415,-1,14
744,4.93196,2.433,-1,14
745,4.93438,2.421,-1,14
746,4.93679,2.405,-1,14
747,4.93920,2.412,-1,14
748,4.94163,2.429,-1,14
749,4.94404,2.414,-1,14
750,4.94645,2.402,-1,14
751,4.94886,2.414,-1,14
752,4.95129,2.430,-1,14
753,4.95371,2.415,-1,14
754,4.95611,2.407,-1,14
755,4.95853,2.419,-1,14
756,4.96096,2.430,-1,14
757,4.96338,2.418,-1,14
758,4.96579,2.411,-1,14
759,4.96821,2.422,-1,14
760,4.97065,2.436,-1,14
761,4.97307,2.424,-1,14
762,4.97548,2.412,-1,14
763,4.97791,2.431,-1,14
764,4.98035,2.440,-1,14
765,4.98278,2.427,-1,14
766,4.98520,2.416,-1,14
767,4.98764,2.439,-1,14
768,4.99008,2.442,-1,14
769,4.99250,2.423,-1,14
770,4.99492,2.417,-1,14
771,4.99736,2.441,-1,14
772,4.99979,2.436,-1,14
773,5.00222,2.423,-1,14
774,5.00463,2.417,-1,14
775,5.00707,2.440,-1,14
776,5.00951,2.436,-1,14
777,5.01434,2.412,-1,14
778,5.01678,2.435,-1,14
779,5.01920,2.428,-1,14
780,5.02161,2.407,-1,14
781,5.02401,2.401,-1,14
782,5.02644,2.425,-1,14
783,5.02885,2.414,-1,14
784,5.03124,2.390,-1,14
785,5.03363,2.391,-1,14
786,5.03604,2.409,-1,14
787,5.03843,2.392,-1,14
788,5.04080,2.370,-1,14
789,5.04318,2.375,-1,14
790,5.04557,2.386,-1,14
791,5.04793,2.368,-1,14
792,5.05028,2.345,-1,14
793,5.05263,2.348,-1,14
794,5.05499,2.359,-1,14
795,5.05732,2.339,-1,14
796,5.05964,2.317,-1,14
797,5.06196,2.321,-1,14
798,5.06429,2.330,-1,14
799,5.06660,2.311,-1,14
800,5.06889,2.287,-1,14
801,5.07118,2.290,-1,14
802,5.07348,2.304,-1,14
803,5.07576,2.277,-1,14
804,5.07801,2.253,-1,14
805,5.08027,2.255,-1,14
806,5.08254,2.274,-1,14
807,5.08479,2.244,-1,14
808,5.08701,2.220,-1,14
809,5.08923,2.223,-1,14
810,5.09148,2.245,-1,14
811,5.09369,2.216,-1,14
812,5.09807,2.191,-1,14
813,5.10029,2.212,-1,14
814,5.10248,2.192,-1,14
815,5.10464,2.160,-1,14
816,5.10680,2.160,-1,14
817,5.10898,2.179,-1,14
818,5.11115,2.176,-1,14
819,5.11329,2.139,-1,14
820,5.11543,2.136,-1,14
821,5.11758,2.151,-1,14
822,5.11975,2.168,-1,14
823,5.12188,2.134,-1,14
824,5.12400,2.118,-1,14
825,5.12613,2.135,-1,14
826,5.12830,2.162,-1,14
827,5.13044,2.144,-1,14
828,5.13255,2.111,-1,14
829,5.13468,2.129,-1,14
830,5.13684,2.157,-1,14
831,5.13900,2.163,-1,14
832,5.14113,2.127,-1,14
833,5.14326,2.131,-1,14
834,5.14543,2.169,-1,14
835,5.14762,2.190,-1,14
836,5.14978,2.161,-1,14
