cnt,pos,speed,Dir,Force,
1,3.49746,1.005,-1,3
2,3.49846,0.999,-1,3
3,3.49946,1.000,-1,3
4,3.50047,1.016,-1,3
5,3.50150,1.030,-1,3
6,3.50254,1.033,-1,3
7,3.50357,1.029,-1,3
8,3.50459,1.028,-1,3
9,3.50564,1.041,-1,3
10,3.50669,1.055,-1,3
11,3.50775,1.062,-1,3
12,3.50881,1.059,-1,3
13,3.50988,1.066,-1,3
14,3.51095,1.074,-1,3
15,3.51203,1.084,-1,3
16,3.51312,1.084,-1,3
17,3.51420,1.084,-1,3
18,3.51529,1.092,-1,3
19,3.51640,1.105,-1,3
20,3.51751,1.113,-1,3
21,3.51863,1.114,-1,3
22,3.51974,1.116,-1,3
23,3.52086,1.120,-1,3
24,3.52199,1.126,-1,3
25,3.52312,1.134,-1,3
26,3.52426,1.142,-1,3
27,3.52541,1.148,-1,3
28,3.52656,1.146,-1,3
29,3.52771,1.148,-1,3
30,3.52886,1.158,-1,3
31,3.53003,1.167,-1,3
32,3.53120,1.166,-1,3
33,3.53237,1.168,-1,3
34,3.53354,1.175,-1,3
35,3.53472,1.184,-1,3
36,3.53591,1.184,-1,3
37,3.53709,1.182,-1,3
38,3.53828,1.186,-1,3
39,3.53947,1.196,-1,3
40,3.54067,1.203,-1,3
41,3.54188,1.205,-1,3
42,3.54308,1.203,-1,3
43,3.54429,1.204,-1,3
44,3.54549,1.209,-1,3
45,3.54671,1.213,-1,3
46,3.54793,1.224,-1,3
47,3.54916,1.226,-1,3
48,3.55038,1.220,-1,3
49,3.55160,1.218,-1,3
50,3.55282,1.224,-1,3
51,3.55405,1.234,-1,3
52,3.55529,1.232,-1,3
53,3.55652,1.233,-1,3
54,3.55775,1.233,-1,3
55,3.55899,1.239,-1,3
56,3.56023,1.236,-1,3
57,3.56147,1.240,-1,3
58,3.56271,1.240,-1,3
59,3.56395,1.244,-1,3
60,3.56519,1.244,-1,3
61,3.56644,1.247,-1,3
62,3.56769,1.246,-1,3
63,3.56893,1.246,-1,3
64,3.57017,1.241,-1,3
65,3.57142,1.250,-1,3
66,3.57268,1.255,-1,3
67,3.57393,1.255,-1,3
68,3.57518,1.246,-1,3
69,3.57643,1.247,-1,3
70,3.57767,1.253,-1,3
71,3.57893,1.253,-1,3
72,3.58018,1.255,-1,3
73,3.58144,1.257,-1,3
74,3.58269,1.250,-1,3
75,3.58393,1.244,-1,3
76,3.58518,1.246,-1,3
77,3.58643,1.255,-1,3
78,3.58769,1.251,-1,3
79,3.59019,1.247,-1,3
80,3.59143,1.241,-1,3
81,3.59268,1.245,-1,3
82,3.59393,1.248,-1,3
83,3.59518,1.256,-1,3
84,3.59643,1.252,-1,3
85,3.59768,1.244,-1,3
86,3.59891,1.233,-1,3
87,3.60015,1.240,-1,3
88,3.60140,1.246,-1,3
89,3.60265,1.251,-1,3
90,3.60389,1.244,-1,3
91,3.60513,1.240,-1,3
92,3.60636,1.233,-1,3
93,3.60760,1.236,-1,3
94,3.60884,1.238,-1,3
95,3.61008,1.245,-1,3
96,3.61132,1.239,-1,3
97,3.61256,1.233,-1,3
98,3.61379,1.230,-1,3
99,3.61502,1.236,-1,3
100,3.61626,1.237,-1,3
101,3.61749,1.233,-1,3
102,3.61873,1.233,-1,3
103,3.61996,1.233,-1,3
104,3.62119,1.230,-1,3
105,3.62242,1.228,-1,3
106,3.62365,1.232,-1,3
107,3.62488,1.231,-1,3
108,3.62611,1.231,-1,3
109,3.62734,1.232,-1,3
110,3.62857,1.229,-1,3
111,3.62980,1.229,-1,3
112,3.63103,1.228,-1,3
113,3.63225,1.226,-1,3
114,3.63348,1.234,-1,3
115,3.63472,1.234,-1,3
116,3.63595,1.230,-1,3
117,3.63718,1.227,-1,3
118,3.63963,1.229,-1,3
119,3.64086,1.228,-1,3
120,3.64210,1.239,-1,3
121,3.64334,1.241,-1,3
122,3.64458,1.239,-1,3
123,3.64581,1.230,-1,3
124,3.64704,1.231,-1,3
125,3.64828,1.237,-1,3
126,3.64952,1.244,-1,3
127,3.65077,1.247,-1,3
128,3.65202,1.249,-1,3
129,3.65326,1.244,-1,3
130,3.65450,1.239,-1,3
131,3.65574,1.244,-1,3
132,3.65700,1.256,-1,3
133,3.65826,1.260,-1,3
134,3.65952,1.261,-1,3
135,3.66078,1.256,-1,3
136,3.66203,1.258,-1,3
137,3.66329,1.260,-1,3
138,3.66456,1.268,-1,3
139,3.66584,1.277,-1,3
140,3.66712,1.278,-1,3
141,3.66839,1.276,-1,3
142,3.66967,1.273,-1,3
143,3.67095,1.279,-1,3
144,3.67223,1.289,-1,3
145,3.67353,1.291,-1,3
146,3.67482,1.294,-1,3
147,3.67612,1.298,-1,3
148,3.67741,1.296,-1,3
149,3.67871,1.299,-1,3
150,3.68002,1.309,-1,3
151,3.68134,1.318,-1,3
152,3.68266,1.318,-1,3
153,3.68398,1.317,-1,3
154,3.68530,1.321,-1,3
155,3.68662,1.326,-1,3
156,3.68796,1.333,-1,3
157,3.68930,1.340,-1,3
158,3.69064,1.345,-1,3
159,3.69333,1.345,-1,3
160,3.69333,1.353,-1,3
161,3.69469,1.353,-1,3
162,3.69605,1.361,-1,3
163,3.69742,1.369,-1,3
164,3.69879,1.373,-1,3
165,3.70017,1.377,-1,3
166,3.70154,1.374,-1,3
167,3.70292,1.377,-1,3
168,3.70430,1.388,-1,3
169,3.70571,1.401,-1,3
170,3.70711,1.403,-1,3
171,3.70851,1.406,-1,3
172,3.70992,1.404,-1,3
173,3.71132,1.405,-1,3
174,3.71274,1.418,-1,3
175,3.71417,1.434,-1,3
176,3.71561,1.439,-1,3
177,3.71705,1.434,-1,3
178,3.71848,1.430,-1,3
179,3.71991,1.437,-1,3
180,3.72137,1.455,-1,3
181,3.72284,1.470,-1,3
182,3.72431,1.467,-1,3
183,3.72576,1.456,-1,3
184,3.72722,1.458,-1,3
185,3.72870,1.477,-1,3
186,3.73019,1.498,-1,3
187,3.73169,1.498,-1,3
188,3.73318,1.488,-1,3
189,3.73615,1.493,-1,3
190,3.73767,1.522,-1,3
191,3.73921,1.531,-1,3
192,3.74072,1.519,-1,3
193,3.74223,1.504,-1,3
194,3.74374,1.511,-1,3
195,3.74528,1.537,-1,3
196,3.74684,1.560,-1,3
197,3.74839,1.554,-1,3
198,3.74992,1.533,-1,3
199,3.75145,1.531,-1,3
200,3.75300,1.549,-1,3
201,3.75458,1.578,-1,3
202,3.75617,1.587,-1,3
203,3.75774,1.569,-1,3
204,3.75929,1.554,-1,3
205,3.76085,1.564,-1,3
206,3.76244,1.591,-1,3
207,3.76405,1.606,-1,3
208,3.76565,1.603,-1,3
209,3.76724,1.587,-1,3
210,3.76882,1.583,-1,3
211,3.77043,1.603,-1,3
212,3.77205,1.622,-1,3
213,3.77367,1.626,-1,3
214,3.77529,1.620,-1,3
215,3.77691,1.613,-1,3
216,3.77853,1.619,-1,3
217,3.78016,1.635,-1,3
218,3.78181,1.645,-1,3
219,3.78345,1.641,-1,3
220,3.78509,1.641,-1,3
221,3.78673,1.643,-1,3
222,3.78838,1.651,-1,3
223,3.79004,1.661,-1,3
224,3.79171,1.665,-1,3
225,3.79338,1.670,-1,3
226,3.79505,1.667,-1,3
227,3.79839,1.673,-1,3
228,3.80008,1.688,-1,3
229,3.80177,1.694,-1,3
230,3.80346,1.693,-1,3
231,3.80515,1.683,-1,3
232,3.80684,1.690,-1,3
233,3.80855,1.711,-1,3
234,3.81026,1.718,-1,3
235,3.81198,1.711,-1,3
236,3.81368,1.706,-1,3
237,3.81539,1.711,-1,3
238,3.81712,1.733,-1,3
239,3.81886,1.739,-1,3
240,3.82059,1.729,-1,3
241,3.82232,1.726,-1,3
242,3.82406,1.739,-1,3
243,3.82581,1.754,-1,3
244,3.82757,1.758,-1,3
245,3.82932,1.749,-1,3
246,3.83107,1.749,-1,3
247,3.83283,1.766,-1,3
248,3.83461,1.779,-1,3
249,3.83639,1.776,-1,3
250,3.83816,1.772,-1,3
251,3.83993,1.774,-1,3
252,3.84173,1.797,-1,3
253,3.84353,1.801,-1,3
254,3.84533,1.800,-1,3
255,3.84712,1.792,-1,3
256,3.84893,1.807,-1,3
257,3.85076,1.824,-1,3
258,3.85258,1.828,-1,3
259,3.85440,1.820,-1,3
260,3.85623,1.823,-1,3
261,3.85807,1.841,-1,3
262,3.85992,1.852,-1,3
263,3.86177,1.853,-1,3
264,3.86362,1.850,-1,3
265,3.86548,1.859,-1,3
266,3.86735,1.872,-1,3
267,3.86923,1.879,-1,3
268,3.87111,1.881,-1,3
269,3.87300,1.888,-1,3
270,3.87490,1.897,-1,3
271,3.87680,1.900,-1,3
272,3.87871,1.912,-1,3
273,3.88064,1.923,-1,3
274,3.88256,1.925,-1,3
275,3.88449,1.927,-1,3
276,3.88642,1.935,-1,3
277,3.88838,1.956,-1,3
278,3.89034,1.966,-1,3
279,3.89231,1.964,-1,3
280,3.89427,1.962,-1,3
281,3.89625,1.979,-1,3
282,3.89825,2.002,-1,3
283,3.90026,2.008,-1,3
284,3.90226,2.003,-1,3
285,3.90427,2.008,-1,3
286,3.90630,2.033,-1,3
287,3.90835,2.047,-1,3
288,3.91040,2.050,-1,3
289,3.91245,2.055,-1,3
290,3.91452,2.064,-1,3
291,3.91660,2.084,-1,3
292,3.91870,2.097,-1,3
293,3.92081,2.106,-1,3
294,3.92291,2.109,-1,3
295,3.92503,2.118,-1,3
296,3.92718,2.144,-1,3
297,3.92933,2.158,-1,3
298,3.93149,2.161,-1,3
299,3.93366,2.167,-1,3
300,3.93585,2.188,-1,3
301,3.93806,2.207,-1,3
302,3.94027,2.217,-1,3
303,3.94250,2.224,-1,3
304,3.94474,2.237,-1,3
305,3.94699,2.256,-1,3
306,3.94926,2.271,-1,3
307,3.95155,2.287,-1,3
308,3.95385,2.297,-1,3
309,3.95615,2.306,-1,3
310,3.95848,2.323,-1,3
311,3.96082,2.343,-1,3
312,3.96318,2.356,-1,3
313,3.96554,2.367,-1,3
314,3.96792,2.382,-1,3
315,3.97032,2.397,-1,3
316,3.97274,2.414,-1,3
317,3.97517,2.431,-1,3
318,3.97761,2.445,-1,3
319,3.98007,2.454,-1,3
320,3.98254,2.472,-1,3
321,3.98503,2.492,-1,3
322,3.98754,2.509,-1,3
323,3.99006,2.518,-1,3
324,3.99259,2.533,-1,3
325,3.99514,2.551,-1,3
326,3.99771,2.571,-1,3
327,4.00030,2.583,-1,3
328,4.00290,2.599,-1,3
329,4.00551,2.613,-1,3
330,4.00814,2.630,-1,3
331,4.01079,2.650,-1,3
332,4.01345,2.666,-1,3
333,4.01613,2.676,-1,3
334,4.01882,2.689,-1,3
335,4.02153,2.711,-1,3
336,4.02426,2.728,-1,3
337,4.02700,2.739,-1,3
338,4.02975,2.752,-1,3
339,4.03252,2.770,-1,3
340,4.03530,2.785,-1,3
341,4.03810,2.801,-1,3
342,4.04092,2.815,-1,3
343,4.04374,2.824,-1,3
344,4.04658,2.840,-1,3
345,4.04944,2.860,-1,3
346,4.05231,2.871,-1,3
347,4.05520,2.884,-1,3
348,4.05809,2.894,-1,3
349,4.06101,2.913,-1,3
350,4.06393,2.927,-1,3
351,4.06687,2.936,-1,3
352,4.06982,2.949,-1,3
353,4.07278,2.961,-1,3
354,4.07575,2.972,-1,3
355,4.07874,2.990,-1,3
356,4.08174,3.000,-1,3
357,4.08475,3.006,-1,3
358,4.09079,3.030,-1,3
359,4.09079,3.043,-1,3
360,4.09384,3.051,-1,3
361,4.09689,3.051,-1,3
362,4.09995,3.058,-1,3
363,4.10301,3.067,-1,3
364,4.10609,3.079,-1,3
365,4.10918,3.089,-1,3
366,4.11538,3.098,-1,3
367,4.11849,3.109,-1,3
368,4.12160,3.118,-1,3
369,4.12473,3.127,-1,3
370,4.12786,3.132,-1,3
371,4.13100,3.134,-1,3
372,4.13414,3.145,-1,3
373,4.13729,3.151,-1,3
374,4.14045,3.159,-1,3
375,4.14361,3.161,-1,3
376,4.14678,3.166,-1,3
377,4.14995,3.171,-1,3
378,4.15313,3.179,-1,3
379,4.15631,3.183,-1,3
380,4.15950,3.184,-1,3
381,4.16268,3.189,-1,3
382,4.16588,3.195,-1,3
383,4.16907,3.194,-1,3
384,4.17227,3.201,-1,3
385,4.17548,3.202,-1,3
386,4.17868,3.201,-1,3
387,4.18188,3.207,-1,3
388,4.18509,3.204,-1,3
389,4.18830,3.211,-1,3
390,4.19151,3.209,-1,3
391,4.19472,3.210,-1,3
392,4.19793,3.209,-1,3
393,4.20114,3.210,-1,3
394,4.20435,3.212,-1,3
395,4.20756,3.211,-1,3
396,4.21077,3.207,-1,3
397,4.21398,3.209,-1,3
398,4.21718,3.207,-1,3
399,4.22039,3.211,-1,3
400,4.22360,3.207,-1,3
401,4.22681,3.204,-1,3
402,4.23001,3.206,-1,3
403,4.23321,3.202,-1,3
404,4.23642,3.202,-1,3
405,4.23962,3.199,-1,3
406,4.24281,3.196,-1,3
407,4.24920,3.190,-1,3
408,4.25239,3.190,-1,3
409,4.25557,3.188,-1,3
410,4.25876,3.183,-1,3
411,4.26194,3.179,-1,3
412,4.26511,3.173,-1,3
413,4.26828,3.172,-1,3
414,4.27145,3.170,-1,3
415,4.27462,3.167,-1,3
416,4.27778,3.161,-1,3
417,4.28093,3.153,-1,3
418,4.28409,3.155,-1,3
419,4.28724,3.149,-1,3
420,4.29038,3.147,-1,3
421,4.29352,3.139,-1,3
422,4.29666,3.135,-1,3
423,4.29979,3.134,-1,3
424,4.30292,3.128,-1,3
425,4.30604,3.124,-1,3
426,4.30917,3.122,-1,3
427,4.31228,3.114,-1,3
428,4.31539,3.111,-1,3
429,4.31850,3.107,-1,3
430,4.32160,3.104,-1,3
431,4.32470,3.097,-1,3
432,4.32779,3.090,-1,3
433,4.33088,3.088,-1,3
434,4.33396,3.086,-1,3
435,4.33705,3.082,-1,3
436,4.34012,3.075,-1,3
437,4.34319,3.068,-1,3
438,4.34626,3.068,-1,3
439,4.34932,3.064,-1,3
440,4.35239,3.062,-1,3
441,4.35544,3.051,-1,3
442,4.35849,3.051,-1,3
443,4.36154,3.051,-1,3
444,4.36459,3.049,-1,3
445,4.37068,3.041,-1,3
446,4.37371,3.035,-1,3
447,4.37675,3.035,-1,3
448,4.37978,3.034,-1,3
449,4.38281,3.029,-1,3
450,4.38584,3.024,-1,3
451,4.38886,3.022,-1,3
452,4.39188,3.022,-1,3
453,4.39490,3.021,-1,3
454,4.39792,3.014,-1,3
455,4.40093,3.014,-1,3
456,4.40394,3.008,-1,3
457,4.40695,3.007,-1,3
458,4.40995,3.008,-1,3
459,4.41296,3.004,-1,3
460,4.41596,3.000,-1,3
461,4.41896,2.999,-1,3
462,4.42196,2.999,-1,3
463,4.42495,2.995,-1,3
464,4.42795,2.996,-1,3
465,4.43094,2.996,-1,3
466,4.43394,2.992,-1,3
467,4.43693,2.990,-1,3
468,4.43992,2.993,-1,3
469,4.44291,2.987,-1,3
470,4.44589,2.987,-1,3
471,4.44888,2.987,-1,3
472,4.45186,2.985,-1,3
473,4.45485,2.985,-1,3
474,4.45784,2.987,-1,3
475,4.46082,2.980,-1,3
476,4.46678,2.980,-1,3
477,4.46976,2.979,-1,3
478,4.47274,2.980,-1,3
479,4.47571,2.975,-1,3
480,4.47869,2.976,-1,3
481,4.48166,2.974,-1,3
482,4.48464,2.976,-1,3
483,4.48761,2.975,-1,3
484,4.49058,2.971,-1,3
485,4.49355,2.971,-1,3
486,4.49653,2.972,-1,3
487,4.49950,2.970,-1,3
488,4.50247,2.973,-1,3
489,4.50544,2.969,-1,3
490,4.50840,2.966,-1,3
491,4.51137,2.969,-1,3
492,4.51434,2.966,-1,3
493,4.51731,2.966,-1,3
494,4.52027,2.965,-1,3
495,4.52323,2.964,-1,3
496,4.52620,2.961,-1,3
497,4.52915,2.957,-1,3
498,4.53211,2.960,-1,3
499,4.53507,2.961,-1,3
500,4.53803,2.954,-1,3
501,4.54098,2.951,-1,3
502,4.54393,2.950,-1,3
503,4.54688,2.947,-1,3
504,4.54982,2.947,-1,3
505,4.55277,2.946,-1,3
506,4.55571,2.938,-1,3
507,4.55864,2.935,-1,3
508,4.56158,2.935,-1,3
509,4.56451,2.931,-1,3
510,4.56744,2.931,-1,3
511,4.57037,2.924,-1,3
512,4.57329,2.921,-1,3
513,4.57621,2.920,-1,3
514,4.57912,2.916,-1,3
515,4.58495,2.906,-1,3
516,4.58785,2.905,-1,3
517,4.59075,2.900,-1,3
518,4.59365,2.897,-1,3
519,4.59654,2.897,-1,3
520,4.59943,2.889,-1,3
521,4.60231,2.879,-1,3
522,4.60519,2.880,-1,3
523,4.60807,2.877,-1,3
524,4.61094,2.872,-1,3
525,4.61381,2.867,-1,3
526,4.61666,2.855,-1,3
527,4.61952,2.854,-1,3
528,4.62237,2.847,-1,3
529,4.62521,2.840,-1,3
530,4.62804,2.839,-1,3
531,4.63087,2.826,-1,3
532,4.63369,2.818,-1,3
533,4.63650,2.812,-1,3
534,4.63930,2.805,-1,3
535,4.64211,2.801,-1,3
536,4.64490,2.792,-1,3
537,4.64768,2.779,-1,3
538,4.65045,2.771,-1,3
539,4.65321,2.765,-1,3
540,4.65597,2.757,-1,3
541,4.65872,2.749,-1,3
542,4.66146,2.738,-1,3
543,4.66418,2.726,-1,3
544,4.66690,2.721,-1,3
545,4.66961,2.711,-1,3
546,4.67231,2.700,-1,3
547,4.67500,2.691,-1,3
548,4.67769,2.681,-1,3
549,4.68036,2.669,-1,3
550,4.68301,2.659,-1,3
551,4.68567,2.651,-1,3
552,4.68830,2.638,-1,3
553,4.69093,2.629,-1,3
554,4.69355,2.621,-1,3
555,4.69616,2.605,-1,3
556,4.69876,2.598,-1,3
557,4.70134,2.589,-1,3
558,4.70392,2.575,-1,3
559,4.70649,2.568,-1,3
560,4.70905,2.558,-1,3
561,4.71159,2.543,-1,3
562,4.71413,2.538,-1,3
563,4.71666,2.530,-1,3
564,4.71917,2.517,-1,3
565,4.72168,2.507,-1,3
566,4.72418,2.500,-1,3
567,4.72667,2.488,-1,3
568,4.72915,2.484,-1,3
569,4.73163,2.475,-1,3
570,4.73409,2.462,-1,3
571,4.73654,2.454,-1,3
572,4.73900,2.453,-1,3
573,4.74144,2.443,-1,3
574,4.74387,2.433,-1,3
575,4.74630,2.429,-1,3
576,4.74872,2.413,-1,3
577,4.75114,2.413,-1,3
578,4.75355,2.408,-1,3
579,4.75595,2.407,-1,3
580,4.75835,2.392,-1,3
581,4.76074,2.392,-1,3
582,4.76313,2.389,-1,3
583,4.76551,2.383,-1,3
584,4.77027,2.377,-1,3
585,4.77264,2.370,-1,3
586,4.77501,2.371,-1,3
587,4.77501,2.367,-1,3
588,4.77738,2.367,-1,3
589,4.77974,2.366,-1,3
590,4.78210,2.358,-1,3
591,4.78447,2.364,-1,3
592,4.78683,2.362,-1,3
593,4.78919,2.359,-1,3
594,4.79154,2.357,-1,3
595,4.79390,2.360,-1,3
596,4.79626,2.360,-1,3
597,4.79862,2.361,-1,3
598,4.80099,2.365,-1,3
599,4.80335,2.360,-1,3
600,4.80571,2.366,-1,3
601,4.80808,2.368,-1,3
602,4.81045,2.371,-1,3
603,4.81283,2.377,-1,3
604,4.81521,2.380,-1,3
605,4.81760,2.387,-1,3
606,4.81999,2.391,-1,3
607,4.82239,2.399,-1,3
608,4.82479,2.408,-1,3
609,4.82721,2.415,-1,3
610,4.82963,2.422,-1,3
611,4.83206,2.434,-1,3
612,4.83451,2.445,-1,3
613,4.83696,2.454,-1,3
614,4.83943,2.466,-1,3
615,4.84191,2.484,-1,3
616,4.84441,2.498,-1,3
617,4.84692,2.509,-1,3
618,4.84945,2.525,-1,3
619,4.85199,2.545,-1,3
620,4.85456,2.564,-1,3
621,4.85714,2.582,-1,3
622,4.85974,2.603,-1,3
623,4.86237,2.624,-1,3
624,4.86501,2.645,-1,3
625,4.86768,2.666,-1,3
626,4.87037,2.695,-1,3
627,4.87309,2.722,-1,3
628,4.87584,2.743,-1,3
629,4.87861,2.770,-1,3
630,4.88141,2.802,-1,3
631,4.88424,2.829,-1,3
632,4.88710,2.861,-1,3
633,4.88999,2.892,-1,3
634,4.89291,2.958,-1,3
635,4.89887,2.993,-1,3
636,4.90189,3.026,-1,3
637,4.90495,3.064,-1,3
638,4.90805,3.100,-1,3
639,4.91119,3.139,-1,3
640,4.91437,3.174,-1,3
641,4.91758,3.215,-1,3
642,4.92084,3.253,-1,3
643,4.92413,3.291,-1,3
644,4.92746,3.334,-1,3
645,4.93083,3.372,-1,3
646,4.93425,3.413,-1,3
647,4.93770,3.455,-1,3
648,4.94120,3.495,-1,3
649,4.94473,3.535,-1,3
650,4.94831,3.576,-1,3
651,4.95192,3.614,-1,3
652,4.95558,3.657,-1,3
653,4.95928,3.698,-1,3
654,4.96301,3.735,-1,3
655,4.96678,3.769,-1,3
656,4.97059,3.810,-1,3
657,4.97444,3.850,-1,3
658,4.97833,3.890,-1,3
659,4.98225,3.920,-1,3
660,4.98621,3.956,-1,3
661,4.99020,3.992,-1,3
662,4.99423,4.030,-1,3
663,4.99829,4.064,-1,3
664,5.00239,4.125,-1,3
665,5.00651,4.125,-1,3
666,5.01067,4.191,-1,3
667,5.01486,4.191,-1,3
668,5.02332,4.243,-1,3
669,5.02332,4.268,-1,3
670,5.02759,4.296,-1,3
671,5.03188,4.319,-1,3
672,5.04054,4.340,-1,3
673,5.04490,4.359,-1,3
674,5.04928,4.383,-1,3
675,5.05369,4.401,-1,3
676,5.05811,4.421,-1,3
677,5.06254,4.435,-1,3
678,5.06699,4.448,-1,3
679,5.07146,4.467,-1,3
680,5.07594,4.486,-1,3
681,5.08044,4.497,-1,3
682,5.08494,4.505,-1,3
683,5.08946,4.520,-1,3
684,5.09399,4.527,-1,3
685,5.09853,4.540,-1,3
686,5.10308,4.550,-1,3
687,5.10764,4.558,-1,3
688,5.11220,4.562,-1,3
689,5.11677,4.567,-1,3
690,5.12134,4.570,-1,3
691,5.12592,4.580,-1,3
692,5.13050,4.582,-1,3
693,5.13509,4.589,-1,3
694,5.13968,4.587,-1,3
695,5.14426,4.586,-1,3
696,5.14885,4.591,-1,3
697,5.15345,4.595,-1,3
698,5.15804,4.597,-1,3
699,5.16264,4.592,-1,3
700,5.16723,4.590,-1,3
701,5.17182,4.589,-1,3
702,5.18098,4.583,-1,3
703,5.18098,4.583,-1,3
704,5.18557,4.583,-1,3
705,5.19014,4.576,-1,3
706,5.19472,4.573,-1,3
707,5.19928,4.562,-1,3
708,5.20384,4.562,-1,3
709,5.20840,4.555,-1,3
710,5.21295,4.556,-1,3
711,5.21750,4.538,-1,3
712,5.22657,4.531,-1,3
713,5.22657,4.526,-1,3
714,5.23561,4.518,-1,3
715,5.23561,4.508,-1,3
716,5.24012,4.508,-1,3
717,5.24462,4.503,-1,3
718,5.24911,4.490,-1,3
719,5.25359,4.480,-1,3
720,5.25806,4.472,-1,3
721,5.26253,4.465,-1,3
722,5.26698,4.439,-1,3
723,5.27142,4.426,-1,3
724,5.27585,4.426,-1,3
725,5.28026,4.418,-1,3
726,5.28467,4.407,-1,3
727,5.28907,4.398,-1,3
728,5.29345,4.380,-1,3
729,5.29781,4.363,-1,3
730,5.30217,4.353,-1,3
731,5.30651,4.343,-1,3
732,5.31084,4.330,-1,3
733,5.31515,4.314,-1,3
734,5.31945,4.297,-1,3
735,5.32373,4.279,-1,3
736,5.32800,4.270,-1,3
737,5.33226,4.259,-1,3
738,5.33650,4.245,-1,3
739,5.34073,4.226,-1,3
740,5.34494,4.210,-1,3
741,5.34913,4.194,-1,3
742,5.35332,4.174,-1,3
743,5.35749,4.174,-1,3
744,5.36165,4.159,-1,3
745,5.36579,4.140,-1,3
746,5.36991,4.123,-1,3
747,5.37403,4.114,-1,3
748,5.37813,4.104,-1,3
749,5.38222,4.090,-1,3
750,5.38629,4.056,-1,3
751,5.39439,4.041,-1,3
752,5.39842,4.028,-1,3
753,5.40243,4.015,-1,3
754,5.40644,4.004,-1,3
755,5.41042,3.986,-1,3
756,5.41439,3.971,-1,3
757,5.41835,3.958,-1,3
758,5.42230,3.945,-1,3
759,5.42623,3.933,-1,3
760,5.43015,3.923,-1,3
761,5.43405,3.903,-1,3
762,5.43795,3.890,-1,3
763,5.44182,3.879,-1,3
764,5.44569,3.871,-1,3
765,5.44955,3.853,-1,3
766,5.45338,3.835,-1,3
767,5.45720,3.821,-1,3
768,5.46101,3.809,-1,3
769,5.46481,3.800,-1,3
770,5.46860,3.786,-1,3
771,5.47237,3.768,-1,3
772,5.47612,3.753,-1,3
773,5.47986,3.738,-1,3
774,5.48358,3.727,-1,3
775,5.48730,3.716,-1,3
776,5.49100,3.703,-1,3
777,5.49469,3.687,-1,3
778,5.49836,3.673,-1,3
779,5.50202,3.659,-1,3
780,5.50567,3.647,-1,3
781,5.50931,3.636,-1,3
782,5.51292,3.619,-1,3
783,5.51653,3.604,-1,3
784,5.52012,3.590,-1,3
785,5.52370,3.578,-1,3
786,5.52726,3.565,-1,3
787,5.53081,3.550,-1,3
788,5.53435,3.536,-1,3
789,5.53787,3.520,-1,3
790,5.54138,3.495,-1,3
791,5.54835,3.482,-1,3
792,5.55182,3.466,-1,3
793,5.55527,3.454,-1,3
794,5.55872,3.441,-1,3
795,5.56214,3.424,-1,3
796,5.56556,3.414,-1,3
797,5.56895,3.400,-1,3
798,5.57234,3.385,-1,3
799,5.57571,3.371,-1,3
800,5.57907,3.360,-1,3
801,5.58241,3.343,-1,3
802,5.58574,3.331,-1,3
803,5.58906,3.319,-1,3
804,5.59237,3.303,-1,3
805,5.59566,3.292,-1,3
806,5.59894,3.277,-1,3
807,5.60220,3.263,-1,3
808,5.60545,3.252,-1,3
809,5.60869,3.241,-1,3
810,5.61192,3.227,-1,3
811,5.61513,3.213,-1,3
812,5.61833,3.203,-1,3
813,5.62153,3.191,-1,3
814,5.62471,3.183,-1,3
815,5.62788,3.168,-1,3
816,5.63103,3.156,-1,3
817,5.63418,3.150,-1,3
818,5.63733,3.141,-1,3
819,5.64046,3.134,-1,3
820,5.64358,3.122,-1,3
821,5.64670,3.116,-1,3
822,5.64981,3.108,-1,3
823,5.65291,3.103,-1,3
824,5.65600,3.096,-1,3
825,5.65909,3.089,-1,3
826,5.66218,3.082,-1,3
827,5.66526,3.079,-1,3
828,5.66833,3.075,-1,3
829,5.67140,3.071,-1,3
830,5.67447,3.062,-1,3
831,5.68059,3.064,-1,3
832,5.68366,3.063,-1,3
833,5.68672,3.062,-1,3
834,5.68978,3.061,-1,3
835,5.69284,3.064,-1,3
836,5.69591,3.064,-1,3
837,5.69897,3.066,-1,3
838,5.70204,3.068,-1,3
839,5.70511,3.067,-1,3
840,5.70818,3.073,-1,3
841,5.71126,3.079,-1,3
842,5.71434,3.078,-1,3
843,5.71742,3.082,-1,3
844,5.72051,3.087,-1,3
845,5.72360,3.089,-1,3
846,5.72669,3.099,-1,3
847,5.72980,3.105,-1,3
848,5.73291,3.106,-1,3
849,5.73602,3.111,-1,3
850,5.73914,3.124,-1,3
851,5.74227,3.131,-1,3
852,5.74541,3.140,-1,3
853,5.74856,3.148,-1,3
854,5.75172,3.157,-1,3
855,5.75488,3.168,-1,3
856,5.75806,3.180,-1,3
857,5.76126,3.193,-1,3
858,5.76446,3.203,-1,3
859,5.76768,3.219,-1,3
860,5.77091,3.232,-1,3
861,5.77416,3.245,-1,3
862,5.77742,3.262,-1,3
863,5.78069,3.275,-1,3
864,5.78398,3.292,-1,3
865,5.78729,3.306,-1,3
866,5.79061,3.322,-1,3
867,5.79395,3.341,-1,3
868,5.79731,3.353,-1,3
869,5.80068,3.371,-1,3
870,5.80407,3.393,-1,3
871,5.80748,3.414,-1,3
872,5.81091,3.427,-1,3
873,5.81436,3.448,-1,3
