cnt,pos,speed,Dir,Force,
1,3.18365,1.005,-1,5
2,3.18467,1.028,-1,5
3,3.18571,1.039,-1,5
4,3.18675,1.042,-1,5
5,3.18781,1.053,-1,5
6,3.18888,1.076,-1,5
7,3.18998,1.098,-1,5
8,3.19108,1.100,-1,5
9,3.19218,1.099,-1,5
10,3.19330,1.119,-1,5
11,3.19445,1.150,-1,5
12,3.19561,1.163,-1,5
13,3.19677,1.157,-1,5
14,3.19793,1.160,-1,5
15,3.19912,1.189,-1,5
16,3.20033,1.215,-1,5
17,3.20154,1.211,-1,5
18,3.20275,1.209,-1,5
19,3.20398,1.231,-1,5
20,3.20525,1.262,-1,5
21,3.20651,1.265,-1,5
22,3.20777,1.258,-1,5
23,3.20904,1.270,-1,5
24,3.21034,1.301,-1,5
25,3.21166,1.315,-1,5
26,3.21297,1.313,-1,5
27,3.21429,1.317,-1,5
28,3.21562,1.331,-1,5
29,3.21697,1.351,-1,5
30,3.21833,1.365,-1,5
31,3.21970,1.372,-1,5
32,3.22107,1.368,-1,5
33,3.22245,1.382,-1,5
34,3.22386,1.403,-1,5
35,3.22527,1.412,-1,5
36,3.22668,1.410,-1,5
37,3.22811,1.426,-1,5
38,3.22955,1.442,-1,5
39,3.23099,1.446,-1,5
40,3.23244,1.450,-1,5
41,3.23391,1.464,-1,5
42,3.23539,1.479,-1,5
43,3.23687,1.488,-1,5
44,3.23837,1.492,-1,5
45,3.23986,1.494,-1,5
46,3.24137,1.509,-1,5
47,3.24290,1.532,-1,5
48,3.24444,1.535,-1,5
49,3.24596,1.540,-1,5
50,3.24750,1.540,-1,5
51,3.24906,1.557,-1,5
52,3.25063,1.572,-1,5
53,3.25221,1.569,-1,5
54,3.25378,1.580,-1,5
55,3.25536,1.602,-1,5
56,3.25857,1.609,-1,5
57,3.26017,1.607,-1,5
58,3.26178,1.610,-1,5
59,3.26340,1.620,-1,5
60,3.26504,1.635,-1,5
61,3.26668,1.646,-1,5
62,3.26833,1.643,-1,5
63,3.26997,1.643,-1,5
64,3.27162,1.655,-1,5
65,3.27329,1.665,-1,5
66,3.27496,1.674,-1,5
67,3.27664,1.676,-1,5
68,3.27831,1.671,-1,5
69,3.27999,1.677,-1,5
70,3.28168,1.693,-1,5
71,3.28338,1.701,-1,5
72,3.28508,1.700,-1,5
73,3.28677,1.693,-1,5
74,3.28847,1.696,-1,5
75,3.29019,1.716,-1,5
76,3.29191,1.723,-1,5
77,3.29362,1.716,-1,5
78,3.29534,1.710,-1,5
79,3.29705,1.719,-1,5
80,3.29879,1.735,-1,5
81,3.30053,1.739,-1,5
82,3.30225,1.721,-1,5
83,3.30397,1.723,-1,5
84,3.30571,1.738,-1,5
85,3.30746,1.748,-1,5
86,3.30920,1.739,-1,5
87,3.31092,1.723,-1,5
88,3.31265,1.733,-1,5
89,3.31440,1.751,-1,5
90,3.31615,1.748,-1,5
91,3.31788,1.733,-1,5
92,3.31961,1.726,-1,5
93,3.32135,1.738,-1,5
94,3.32310,1.755,-1,5
95,3.32485,1.743,-1,5
96,3.32657,1.720,-1,5
97,3.33003,1.742,-1,5
98,3.33003,1.749,-1,5
99,3.33351,1.729,-1,5
100,3.33522,1.707,-1,5
101,3.33694,1.721,-1,5
102,3.33867,1.736,-1,5
103,3.34040,1.729,-1,5
104,3.34211,1.709,-1,5
105,3.34381,1.699,-1,5
106,3.34552,1.711,-1,5
107,3.34724,1.721,-1,5
108,3.34895,1.704,-1,5
109,3.35064,1.689,-1,5
110,3.35232,1.687,-1,5
111,3.35402,1.693,-1,5
112,3.35571,1.697,-1,5
113,3.35739,1.681,-1,5
114,3.35906,1.666,-1,5
115,3.36073,1.671,-1,5
116,3.36240,1.674,-1,5
117,3.36407,1.665,-1,5
118,3.36572,1.651,-1,5
119,3.36736,1.641,-1,5
120,3.36901,1.647,-1,5
121,3.37066,1.652,-1,5
122,3.37230,1.635,-1,5
123,3.37391,1.617,-1,5
124,3.37553,1.614,-1,5
125,3.37715,1.622,-1,5
126,3.37877,1.622,-1,5
127,3.38038,1.607,-1,5
128,3.38196,1.585,-1,5
129,3.38355,1.585,-1,5
130,3.38514,1.595,-1,5
131,3.38673,1.589,-1,5
132,3.38830,1.572,-1,5
133,3.38986,1.557,-1,5
134,3.39141,1.554,-1,5
135,3.39298,1.561,-1,5
136,3.39453,1.557,-1,5
137,3.39607,1.537,-1,5
138,3.39759,1.524,-1,5
139,3.39912,1.526,-1,5
140,3.40065,1.526,-1,5
141,3.40217,1.526,-1,5
142,3.40368,1.509,-1,5
143,3.40517,1.493,-1,5
144,3.40666,1.490,-1,5
145,3.40817,1.498,-1,5
146,3.41114,1.478,-1,5
147,3.41114,1.466,-1,5
148,3.41407,1.461,-1,5
149,3.41407,1.461,-1,5
150,3.41553,1.466,-1,5
151,3.41701,1.474,-1,5
152,3.41847,1.460,-1,5
153,3.42133,1.430,-1,5
154,3.42277,1.440,-1,5
155,3.42422,1.446,-1,5
156,3.42566,1.440,-1,5
157,3.42708,1.421,-1,5
158,3.42849,1.404,-1,5
159,3.42989,1.406,-1,5
160,3.43132,1.427,-1,5
161,3.43274,1.425,-1,5
162,3.43415,1.407,-1,5
163,3.43554,1.390,-1,5
164,3.43693,1.389,-1,5
165,3.43833,1.400,-1,5
166,3.43974,1.412,-1,5
167,3.44115,1.403,-1,5
168,3.44253,1.382,-1,5
169,3.44390,1.372,-1,5
170,3.44529,1.387,-1,5
171,3.44669,1.402,-1,5
172,3.44808,1.380,-1,5
173,3.45083,1.369,-1,5
174,3.45221,1.374,-1,5
175,3.45360,1.391,-1,5
176,3.45500,1.401,-1,5
177,3.45638,1.384,-1,5
178,3.45775,1.367,-1,5
179,3.45912,1.371,-1,5
180,3.46051,1.392,-1,5
181,3.46191,1.397,-1,5
182,3.46330,1.393,-1,5
183,3.46469,1.384,-1,5
184,3.46606,1.379,-1,5
185,3.46745,1.389,-1,5
186,3.46886,1.408,-1,5
187,3.47027,1.408,-1,5
188,3.47167,1.399,-1,5
189,3.47307,1.398,-1,5
190,3.47448,1.409,-1,5
191,3.47589,1.417,-1,5
192,3.47731,1.420,-1,5
193,3.47874,1.422,-1,5
194,3.48015,1.419,-1,5
195,3.48159,1.431,-1,5
196,3.48303,1.443,-1,5
197,3.48447,1.444,-1,5
198,3.48591,1.440,-1,5
199,3.48736,1.451,-1,5
200,3.48883,1.468,-1,5
201,3.49030,1.468,-1,5
202,3.49177,1.470,-1,5
203,3.49325,1.480,-1,5
204,3.49474,1.490,-1,5
205,3.49624,1.504,-1,5
206,3.49775,1.510,-1,5
207,3.49926,1.508,-1,5
208,3.50078,1.522,-1,5
209,3.50233,1.543,-1,5
210,3.50388,1.552,-1,5
211,3.50543,1.550,-1,5
212,3.50698,1.557,-1,5
213,3.50856,1.576,-1,5
214,3.51016,1.600,-1,5
215,3.51177,1.610,-1,5
216,3.51338,1.607,-1,5
217,3.51499,1.609,-1,5
218,3.51662,1.639,-1,5
219,3.51829,1.666,-1,5
220,3.51997,1.675,-1,5
221,3.52164,1.675,-1,5
222,3.52332,1.681,-1,5
223,3.52503,1.712,-1,5
224,3.52678,1.748,-1,5
225,3.52852,1.747,-1,5
226,3.53027,1.747,-1,5
227,3.53203,1.761,-1,5
228,3.53383,1.795,-1,5
229,3.53565,1.826,-1,5
230,3.53748,1.826,-1,5
231,3.54116,1.853,-1,5
232,3.54305,1.889,-1,5
233,3.54496,1.909,-1,5
234,3.54686,1.905,-1,5
235,3.54878,1.919,-1,5
236,3.55074,1.956,-1,5
237,3.55272,1.981,-1,5
238,3.55471,1.989,-1,5
239,3.55670,1.998,-1,5
240,3.55873,2.027,-1,5
241,3.56079,2.054,-1,5
242,3.56286,2.073,-1,5
243,3.56494,2.081,-1,5
244,3.56704,2.100,-1,5
245,3.56917,2.131,-1,5
246,3.57132,2.151,-1,5
247,3.57349,2.168,-1,5
248,3.57567,2.183,-1,5
249,3.57788,2.208,-1,5
250,3.58011,2.230,-1,5
251,3.58237,2.257,-1,5
252,3.58464,2.271,-1,5
253,3.58693,2.287,-1,5
254,3.58924,2.311,-1,5
255,3.59158,2.342,-1,5
256,3.59393,2.351,-1,5
257,3.59630,2.375,-1,5
258,3.59870,2.398,-1,5
259,3.60112,2.419,-1,5
260,3.60356,2.438,-1,5
261,3.60602,2.461,-1,5
262,3.60851,2.486,-1,5
263,3.61101,2.502,-1,5
264,3.61353,2.520,-1,5
265,3.61607,2.548,-1,5
266,3.61865,2.571,-1,5
267,3.62123,2.587,-1,5
268,3.62384,2.608,-1,5
269,3.62647,2.630,-1,5
270,3.62912,2.652,-1,5
271,3.63180,2.674,-1,5
272,3.63449,2.697,-1,5
273,3.63721,2.736,-1,5
274,3.63994,2.736,-1,5
275,3.64270,2.758,-1,5
276,3.64548,2.780,-1,5
277,3.64829,2.816,-1,5
278,3.65110,2.816,-1,5
279,3.65394,2.862,-1,5
280,3.65681,2.862,-1,5
281,3.66259,2.903,-1,5
282,3.66551,2.921,-1,5
283,3.66845,2.938,-1,5
284,3.67141,2.962,-1,5
285,3.67439,2.977,-1,5
286,3.67738,2.994,-1,5
287,3.68039,3.010,-1,5
288,3.68342,3.030,-1,5
289,3.68647,3.048,-1,5
290,3.68953,3.060,-1,5
291,3.69261,3.077,-1,5
292,3.69570,3.089,-1,5
293,3.69880,3.103,-1,5
294,3.70192,3.120,-1,5
295,3.70506,3.134,-1,5
296,3.70820,3.142,-1,5
297,3.71136,3.157,-1,5
298,3.71452,3.169,-1,5
299,3.71771,3.182,-1,5
300,3.72090,3.192,-1,5
301,3.72410,3.202,-1,5
302,3.72731,3.207,-1,5
303,3.73053,3.223,-1,5
304,3.73376,3.234,-1,5
305,3.73700,3.239,-1,5
306,3.74025,3.247,-1,5
307,3.74350,3.253,-1,5
308,3.74677,3.264,-1,5
309,3.75004,3.272,-1,5
310,3.75331,3.274,-1,5
311,3.75659,3.277,-1,5
312,3.75988,3.286,-1,5
313,3.76317,3.300,-1,5
314,3.76977,3.300,-1,5
315,3.76977,3.302,-1,5
316,3.77638,3.307,-1,5
317,3.77969,3.310,-1,5
318,3.77969,3.315,-1,5
319,3.78632,3.318,-1,5
320,3.78964,3.316,-1,5
321,3.79295,3.318,-1,5
322,3.79628,3.328,-1,5
323,3.79961,3.329,-1,5
324,3.80293,3.324,-1,5
325,3.80626,3.324,-1,5
326,3.80959,3.329,-1,5
327,3.81292,3.332,-1,5
328,3.81625,3.334,-1,5
329,3.81958,3.331,-1,5
330,3.82291,3.328,-1,5
331,3.82624,3.331,-1,5
332,3.82958,3.335,-1,5
333,3.83291,3.332,-1,5
334,3.83624,3.330,-1,5
335,3.83957,3.325,-1,5
336,3.84289,3.329,-1,5
337,3.84623,3.332,-1,5
338,3.84955,3.328,-1,5
339,3.85288,3.324,-1,5
340,3.85620,3.321,-1,5
341,3.85952,3.325,-1,5
342,3.86285,3.323,-1,5
343,3.86617,3.319,-1,5
344,3.86948,3.314,-1,5
345,3.87280,3.316,-1,5
346,3.87611,3.316,-1,5
347,3.87942,3.312,-1,5
348,3.88273,3.309,-1,5
349,3.88604,3.305,-1,5
350,3.88934,3.304,-1,5
351,3.89594,3.295,-1,5
352,3.89923,3.291,-1,5
353,3.90252,3.288,-1,5
354,3.90581,3.288,-1,5
355,3.90909,3.285,-1,5
356,3.91237,3.277,-1,5
357,3.91564,3.272,-1,5
358,3.91891,3.267,-1,5
359,3.92218,3.270,-1,5
360,3.92544,3.262,-1,5
361,3.92870,3.260,-1,5
362,3.93195,3.251,-1,5
363,3.93520,3.247,-1,5
364,3.93845,3.250,-1,5
365,3.94169,3.244,-1,5
366,3.94493,3.236,-1,5
367,3.94816,3.230,-1,5
368,3.95139,3.228,-1,5
369,3.95461,3.225,-1,5
370,3.95783,3.220,-1,5
371,3.96105,3.215,-1,5
372,3.96425,3.204,-1,5
373,3.96745,3.203,-1,5
374,3.97066,3.204,-1,5
375,3.97385,3.194,-1,5
376,3.97704,3.190,-1,5
377,3.98022,3.178,-1,5
378,3.98340,3.183,-1,5
379,3.98658,3.178,-1,5
380,3.98976,3.174,-1,5
381,3.99292,3.161,-1,5
382,3.99608,3.161,-1,5
383,3.99924,3.157,-1,5
384,4.00239,3.157,-1,5
385,4.00554,3.147,-1,5
386,4.00868,3.138,-1,5
387,4.01182,3.141,-1,5
388,4.01496,3.140,-1,5
389,4.01809,3.131,-1,5
390,4.02121,3.124,-1,5
391,4.02434,3.113,-1,5
392,4.02745,3.113,-1,5
393,4.03057,3.110,-1,5
394,4.03368,3.110,-1,5
395,4.03678,3.096,-1,5
396,4.03987,3.096,-1,5
397,4.04297,3.096,-1,5
398,4.04606,3.091,-1,5
399,4.04915,3.077,-1,5
400,4.05530,3.074,-1,5
401,4.05837,3.071,-1,5
402,4.06144,3.067,-1,5
403,4.06450,3.061,-1,5
404,4.06755,3.054,-1,5
405,4.07060,3.052,-1,5
406,4.07365,3.047,-1,5
407,4.07669,3.040,-1,5
408,4.07973,3.038,-1,5
409,4.08276,3.032,-1,5
410,4.08579,3.027,-1,5
411,4.08881,3.024,-1,5
412,4.09183,3.017,-1,5
413,4.09484,3.012,-1,5
414,4.09785,3.007,-1,5
415,4.10085,3.002,-1,5
416,4.10385,2.998,-1,5
417,4.10684,2.993,-1,5
418,4.10983,2.988,-1,5
419,4.11281,2.979,-1,5
420,4.11578,2.972,-1,5
421,4.11875,2.974,-1,5
422,4.12172,2.963,-1,5
423,4.12467,2.958,-1,5
424,4.12763,2.954,-1,5
425,4.13057,2.945,-1,5
426,4.13351,2.939,-1,5
427,4.13645,2.935,-1,5
428,4.13938,2.930,-1,5
429,4.14230,2.920,-1,5
430,4.14522,2.918,-1,5
431,4.14812,2.909,-1,5
432,4.15103,2.904,-1,5
433,4.15392,2.896,-1,5
434,4.15682,2.892,-1,5
435,4.15969,2.878,-1,5
436,4.16257,2.876,-1,5
437,4.16544,2.872,-1,5
438,4.16830,2.862,-1,5
439,4.17116,2.853,-1,5
440,4.17400,2.846,-1,5
441,4.17684,2.838,-1,5
442,4.17967,2.829,-1,5
443,4.18250,2.826,-1,5
444,4.18531,2.812,-1,5
445,4.18811,2.804,-1,5
446,4.19091,2.798,-1,5
447,4.19370,2.790,-1,5
448,4.19648,2.779,-1,5
449,4.19925,2.771,-1,5
450,4.20201,2.762,-1,5
451,4.20477,2.742,-1,5
452,4.20751,2.742,-1,5
453,4.21024,2.734,-1,5
454,4.21568,2.716,-1,5
455,4.21568,2.708,-1,5
456,4.21839,2.699,-1,5
457,4.22109,2.689,-1,5
458,4.22646,2.677,-1,5
459,4.22913,2.673,-1,5
460,4.23179,2.660,-1,5
461,4.23445,2.654,-1,5
462,4.23709,2.642,-1,5
463,4.23972,2.633,-1,5
464,4.24234,2.623,-1,5
465,4.24496,2.613,-1,5
466,4.24756,2.606,-1,5
467,4.25016,2.600,-1,5
468,4.25275,2.587,-1,5
469,4.25533,2.576,-1,5
470,4.25790,2.570,-1,5
471,4.26046,2.560,-1,5
472,4.26301,2.550,-1,5
473,4.26555,2.543,-1,5
474,4.26808,2.536,-1,5
475,4.27061,2.522,-1,5
476,4.27312,2.512,-1,5
477,4.27563,2.509,-1,5
478,4.27813,2.500,-1,5
479,4.28062,2.491,-1,5
480,4.28310,2.481,-1,5
481,4.28557,2.475,-1,5
482,4.28804,2.467,-1,5
483,4.29050,2.461,-1,5
484,4.29296,2.453,-1,5
485,4.29540,2.445,-1,5
486,4.29784,2.437,-1,5
487,4.30027,2.428,-1,5
488,4.30269,2.423,-1,5
489,4.30511,2.422,-1,5
490,4.30752,2.413,-1,5
491,4.30992,2.400,-1,5
492,4.31232,2.397,-1,5
493,4.31472,2.398,-1,5
494,4.31711,2.387,-1,5
495,4.31949,2.380,-1,5
496,4.32186,2.376,-1,5
497,4.32424,2.375,-1,5
498,4.32661,2.370,-1,5
499,4.32897,2.360,-1,5
500,4.33133,2.361,-1,5
501,4.33368,2.356,-1,5
502,4.33604,2.353,-1,5
503,4.33839,2.349,-1,5
504,4.34073,2.348,-1,5
505,4.34308,2.346,-1,5
506,4.34543,2.345,-1,5
507,4.34777,2.340,-1,5
508,4.35011,2.342,-1,5
509,4.35245,2.343,-1,5
510,4.35479,2.336,-1,5
511,4.35713,2.336,-1,5
512,4.35948,2.346,-1,5
513,4.36182,2.348,-1,5
514,4.36417,2.349,-1,5
515,4.36652,2.342,-1,5
516,4.36887,2.356,-1,5
517,4.37123,2.359,-1,5
518,4.37359,2.362,-1,5
519,4.37596,2.364,-1,5
520,4.37833,2.371,-1,5
521,4.38071,2.379,-1,5
522,4.38309,2.385,-1,5
523,4.38548,2.393,-1,5
524,4.38788,2.397,-1,5
525,4.39029,2.408,-1,5
526,4.39271,2.422,-1,5
527,4.39514,2.428,-1,5
528,4.39758,2.440,-1,5
529,4.40250,2.464,-1,5
530,4.40497,2.476,-1,5
531,4.40747,2.495,-1,5
532,4.40998,2.511,-1,5
533,4.41250,2.523,-1,5
534,4.41504,2.536,-1,5
535,4.41760,2.560,-1,5
536,4.42017,2.576,-1,5
537,4.42277,2.593,-1,5
538,4.42538,2.615,-1,5
539,4.42802,2.633,-1,5
540,4.43067,2.655,-1,5
541,4.43335,2.677,-1,5
542,4.43605,2.700,-1,5
543,4.43877,2.723,-1,5
544,4.44152,2.746,-1,5
545,4.44428,2.768,-1,5
546,4.44708,2.798,-1,5
547,4.44990,2.823,-1,5
548,4.45275,2.847,-1,5
549,4.45563,2.878,-1,5
550,4.45853,2.903,-1,5
551,4.46146,2.929,-1,5
552,4.46442,2.962,-1,5
553,4.46741,2.986,-1,5
554,4.47043,3.017,-1,5
555,4.47348,3.050,-1,5
556,4.47656,3.078,-1,5
557,4.47966,3.107,-1,5
558,4.48280,3.141,-1,5
559,4.48598,3.172,-1,5
560,4.48918,3.203,-1,5
561,4.49241,3.233,-1,5
562,4.49568,3.271,-1,5
563,4.49898,3.298,-1,5
564,4.50232,3.336,-1,5
565,4.50568,3.366,-1,5
566,4.50908,3.401,-1,5
567,4.51252,3.433,-1,5
568,4.51598,3.467,-1,5
569,4.51948,3.498,-1,5
570,4.52301,3.533,-1,5
571,4.52658,3.564,-1,5
572,4.53018,3.599,-1,5
573,4.53381,3.630,-1,5
574,4.53747,3.661,-1,5
575,4.54116,3.696,-1,5
576,4.54488,3.721,-1,5
577,4.54864,3.757,-1,5
578,4.55243,3.788,-1,5
579,4.55625,3.849,-1,5
580,4.56397,3.877,-1,5
581,4.56397,3.906,-1,5
582,4.56788,3.939,-1,5
583,4.57182,3.939,-1,5
584,4.57578,3.963,-1,5
585,4.57977,3.994,-1,5
586,4.58784,4.048,-1,5
587,4.59192,4.076,-1,5
588,4.59602,4.104,-1,5
589,4.60014,4.123,-1,5
590,4.60429,4.144,-1,5
591,4.60846,4.171,-1,5
592,4.61265,4.195,-1,5
593,4.61687,4.219,-1,5
594,4.62111,4.235,-1,5
595,4.62536,4.256,-1,5
596,4.62964,4.274,-1,5
597,4.63394,4.299,-1,5
598,4.63825,4.314,-1,5
599,4.64258,4.332,-1,5
600,4.64693,4.350,-1,5
601,4.65130,4.367,-1,5
602,4.65568,4.383,-1,5
603,4.66008,4.395,-1,5
604,4.66449,4.413,-1,5
605,4.66892,4.429,-1,5
606,4.67336,4.442,-1,5
607,4.67782,4.455,-1,5
608,4.68228,4.470,-1,5
609,4.68676,4.477,-1,5
610,4.69126,4.494,-1,5
611,4.69576,4.506,-1,5
612,4.70028,4.519,-1,5
613,4.70481,4.526,-1,5
614,4.70935,4.540,-1,5
615,4.71390,4.549,-1,5
616,4.71846,4.562,-1,5
617,4.72303,4.569,-1,5
618,4.72760,4.578,-1,5
619,4.73219,4.589,-1,5
620,4.73679,4.592,-1,5
621,4.74139,4.605,-1,5
622,4.74600,4.611,-1,5
623,4.75061,4.613,-1,5
624,4.75523,4.618,-1,5
625,4.75986,4.627,-1,5
626,4.76449,4.629,-1,5
627,4.76912,4.635,-1,5
628,4.77376,4.635,-1,5
629,4.77840,4.641,-1,5
630,4.78304,4.643,-1,5
631,4.78769,4.650,-1,5
632,4.79234,4.651,-1,5
633,4.79700,4.653,-1,5
634,4.80165,4.651,-1,5
635,4.80630,4.654,-1,5
636,4.81096,4.658,-1,5
637,4.81562,4.660,-1,5
638,4.82028,4.654,-1,5
639,4.82493,4.654,-1,5
640,4.83424,4.652,-1,5
641,4.83424,4.655,-1,5
642,4.83889,4.651,-1,5
643,4.84354,4.651,-1,5
644,4.84819,4.643,-1,5
645,4.85283,4.641,-1,5
646,4.86211,4.638,-1,5
647,4.86675,4.636,-1,5
648,4.87138,4.631,-1,5
649,4.87600,4.624,-1,5
650,4.88062,4.617,-1,5
651,4.88524,4.616,-1,5
652,4.88984,4.607,-1,5
653,4.89444,4.596,-1,5
654,4.89904,4.595,-1,5
655,4.90362,4.587,-1,5
656,4.90820,4.578,-1,5
657,4.91277,4.568,-1,5
658,4.91733,4.560,-1,5
659,4.92188,4.553,-1,5
660,4.92642,4.544,-1,5
661,4.93096,4.535,-1,5
662,4.93548,4.526,-1,5
663,4.94000,4.512,-1,5
664,4.94450,4.505,-1,5
665,4.94900,4.494,-1,5
666,4.95348,4.482,-1,5
667,4.95795,4.470,-1,5
668,4.96241,4.461,-1,5
669,4.96686,4.447,-1,5
670,4.97129,4.433,-1,5
671,4.97572,4.426,-1,5
672,4.98013,4.414,-1,5
673,4.98453,4.399,-1,5
674,4.98891,4.385,-1,5
675,4.99329,4.376,-1,5
676,4.99765,4.364,-1,5
677,5.00201,4.353,-1,5
678,5.00635,4.338,-1,5
679,5.01067,4.325,-1,5
680,5.01499,4.316,-1,5
681,5.01929,4.300,-1,5
682,5.02358,4.289,-1,5
683,5.02785,4.275,-1,5
684,5.03211,4.262,-1,5
685,5.03636,4.247,-1,5
686,5.04060,4.222,-1,5
687,5.04903,4.207,-1,5
688,5.05322,4.197,-1,5
689,5.05740,4.180,-1,5
690,5.06157,4.168,-1,5
691,5.06573,4.154,-1,5
692,5.06987,4.143,-1,5
693,5.07400,4.130,-1,5
694,5.07812,4.118,-1,5
695,5.08222,4.102,-1,5
696,5.08631,4.088,-1,5
697,5.09038,4.076,-1,5
698,5.09444,4.060,-1,5
699,5.09849,4.049,-1,5
700,5.10253,4.037,-1,5
701,5.10655,4.023,-1,5
702,5.11056,4.005,-1,5
703,5.11455,3.988,-1,5
704,5.11853,3.979,-1,5
705,5.12249,3.963,-1,5
706,5.12644,3.950,-1,5
707,5.13037,3.921,-1,5
708,5.13429,3.921,-1,5
709,5.13820,3.902,-1,5
710,5.14208,3.889,-1,5
711,5.14596,3.875,-1,5
712,5.14982,3.862,-1,5
713,5.15367,3.831,-1,5
714,5.16131,3.815,-1,5
715,5.16511,3.800,-1,5
716,5.16889,3.782,-1,5
717,5.17266,3.769,-1,5
718,5.17641,3.751,-1,5
719,5.18015,3.737,-1,5
720,5.18387,3.719,-1,5
721,5.18757,3.703,-1,5
722,5.19126,3.687,-1,5
723,5.19493,3.670,-1,5
724,5.19858,3.653,-1,5
725,5.20222,3.638,-1,5
726,5.20585,3.624,-1,5
727,5.20945,3.608,-1,5
728,5.21304,3.590,-1,5
729,5.21662,3.573,-1,5
730,5.22017,3.558,-1,5
731,5.22372,3.542,-1,5
732,5.22724,3.525,-1,5
733,5.23075,3.507,-1,5
734,5.23424,3.493,-1,5
735,5.23772,3.474,-1,5
736,5.24118,3.460,-1,5
737,5.24462,3.442,-1,5
738,5.24805,3.429,-1,5
739,5.25145,3.407,-1,5
740,5.25485,3.393,-1,5
741,5.25823,3.382,-1,5
742,5.26159,3.363,-1,5
743,5.26494,3.349,-1,5
744,5.26827,3.332,-1,5
745,5.27159,3.319,-1,5
746,5.27490,3.307,-1,5
747,5.27819,3.292,-1,5
748,5.28147,3.277,-1,5
749,5.28473,3.266,-1,5
750,5.28799,3.253,-1,5
751,5.29122,3.237,-1,5
752,5.29445,3.227,-1,5
753,5.29766,3.215,-1,5
754,5.30087,3.202,-1,5
755,5.30407,3.200,-1,5
756,5.30725,3.182,-1,5
757,5.31042,3.170,-1,5
758,5.31358,3.161,-1,5
759,5.31674,3.157,-1,5
760,5.31989,3.148,-1,5
761,5.32302,3.137,-1,5
762,5.32615,3.130,-1,5
763,5.32927,3.121,-1,5
764,5.33239,3.117,-1,5
765,5.33550,3.113,-1,5
766,5.33861,3.104,-1,5
767,5.34171,3.100,-1,5
768,5.34480,3.092,-1,5
769,5.34790,3.092,-1,5
770,5.35099,3.091,-1,5
771,5.35408,3.091,-1,5
772,5.35717,3.087,-1,5
773,5.36025,3.086,-1,5
774,5.36643,3.090,-1,5
775,5.36952,3.091,-1,5
776,5.37261,3.092,-1,5
777,5.37570,3.092,-1,5
778,5.37881,3.102,-1,5
779,5.38191,3.107,-1,5
780,5.38503,3.112,-1,5
781,5.38814,3.115,-1,5
782,5.39127,3.127,-1,5
783,5.39440,3.130,-1,5
784,5.39754,3.141,-1,5
785,5.40069,3.156,-1,5
786,5.40386,3.163,-1,5
787,5.40703,3.176,-1,5
788,5.41022,3.185,-1,5
789,5.41343,3.208,-1,5
790,5.41665,3.221,-1,5
791,5.41988,3.236,-1,5
792,5.42314,3.254,-1,5
793,5.42641,3.275,-1,5
794,5.42971,3.297,-1,5
795,5.43302,3.316,-1,5
796,5.43636,3.339,-1,5
797,5.43973,3.364,-1,5
798,5.44311,3.385,-1,5
799,5.44653,3.417,-1,5
800,5.44997,3.437,-1,5
801,5.45343,3.467,-1,5
802,5.45693,3.496,-1,5
803,5.46046,3.527,-1,5
804,5.46401,3.558,-1,5
805,5.46760,3.586,-1,5
806,5.47122,3.619,-1,5
807,5.47487,3.651,-1,5
808,5.47856,3.689,-1,5
809,5.48228,3.720,-1,5
810,5.48604,3.759,-1,5
811,5.48983,3.790,-1,5
812,5.49366,3.830,-1,5
813,5.49753,3.869,-1,5
814,5.50143,3.908,-1,5
815,5.50538,3.942,-1,5
816,5.50936,3.979,-1,5
817,5.51338,4.023,-1,5
818,5.51744,4.060,-1,5
819,5.52154,4.102,-1,5
820,5.52568,4.142,-1,5
821,5.52986,4.182,-1,5
822,5.53409,4.223,-1,5
823,5.53835,4.263,-1,5
824,5.54266,4.307,-1,5
825,5.54700,4.346,-1,5
826,5.55582,4.432,-1,5
827,5.55582,4.473,-1,5
828,5.56030,4.514,-1,5
829,5.56481,4.514,-1,5
830,5.56937,4.556,-1,5
831,5.57397,4.598,-1,5
832,5.57861,4.679,-1,5
833,5.58800,4.718,-1,5
834,5.59276,4.758,-1,5
835,5.59756,4.798,-1,5
836,5.60239,4.831,-1,5
837,5.60726,4.874,-1,5
838,5.61217,4.910,-1,5
839,5.61712,4.945,-1,5
840,5.62210,4.979,-1,5
841,5.62712,5.017,-1,5
842,5.63216,5.046,-1,5
843,5.63724,5.083,-1,5
844,5.64236,5.117,-1,5
845,5.64751,5.148,-1,5
846,5.65268,5.171,-1,5
847,5.65788,5.203,-1,5
848,5.66311,5.229,-1,5
849,5.66837,5.258,-1,5
850,5.67365,5.279,-1,5
851,5.67895,5.299,-1,5
852,5.68427,5.321,-1,5
853,5.68961,5.339,-1,5
854,5.69497,5.363,-1,5
855,5.70035,5.382,-1,5
856,5.70574,5.392,-1,5
857,5.71115,5.407,-1,5
858,5.71658,5.426,-1,5
859,5.72202,5.438,-1,5
860,5.72747,5.451,-1,5
861,5.73293,5.459,-1,5
862,5.73840,5.470,-1,5
863,5.74387,5.477,-1,5
864,5.74936,5.489,-1,5
865,5.75486,5.495,-1,5
866,5.76036,5.500,-1,5
867,5.76586,5.502,-1,5
868,5.77137,5.508,-1,5
869,5.77689,5.519,-1,5
870,5.78241,5.523,-1,5
871,5.78793,5.520,-1,5
872,5.79345,5.519,-1,5
873,5.79897,5.524,-1,5
