cnt,pos,speed,Dir,Force,
1,3.10942,1.318,-1,5
2,3.11075,1.332,-1,5
3,3.11209,1.340,-1,5
4,3.11343,1.347,-1,5
5,3.11480,1.366,-1,5
6,3.11618,1.383,-1,5
7,3.11758,1.393,-1,5
8,3.11898,1.401,-1,5
9,3.12039,1.417,-1,5
10,3.12182,1.430,-1,5
11,3.12327,1.444,-1,5
12,3.12473,1.462,-1,5
13,3.12621,1.475,-1,5
14,3.12769,1.483,-1,5
15,3.12919,1.498,-1,5
16,3.13070,1.517,-1,5
17,3.13223,1.529,-1,5
18,3.13378,1.549,-1,5
19,3.13534,1.561,-1,5
20,3.13691,1.570,-1,5
21,3.13850,1.589,-1,5
22,3.14011,1.608,-1,5
23,3.14173,1.623,-1,5
24,3.14337,1.641,-1,5
25,3.14503,1.653,-1,5
26,3.14669,1.663,-1,5
27,3.14837,1.684,-1,5
28,3.15008,1.706,-1,5
29,3.15180,1.720,-1,5
30,3.15353,1.731,-1,5
31,3.15527,1.761,-1,5
32,3.15704,1.761,-1,5
33,3.15882,1.787,-1,5
34,3.16062,1.797,-1,5
35,3.16242,1.805,-1,5
36,3.16424,1.815,-1,5
37,3.16607,1.835,-1,5
38,3.16793,1.853,-1,5
39,3.16978,1.857,-1,5
40,3.17353,1.882,-1,5
41,3.17543,1.895,-1,5
42,3.17733,1.902,-1,5
43,3.17923,1.905,-1,5
44,3.18116,1.923,-1,5
45,3.18309,1.935,-1,5
46,3.18503,1.934,-1,5
47,3.18697,1.939,-1,5
48,3.18892,1.954,-1,5
49,3.19089,1.969,-1,5
50,3.19286,1.969,-1,5
51,3.19482,1.963,-1,5
52,3.19679,1.971,-1,5
53,3.19878,1.989,-1,5
54,3.20078,1.996,-1,5
55,3.20276,1.985,-1,5
56,3.20475,1.985,-1,5
57,3.20675,2.001,-1,5
58,3.20876,2.008,-1,5
59,3.21076,2.007,-1,5
60,3.21276,1.997,-1,5
61,3.21477,2.004,-1,5
62,3.21678,2.010,-1,5
63,3.21879,2.015,-1,5
64,3.22080,2.012,-1,5
65,3.22281,2.004,-1,5
66,3.22481,2.006,-1,5
67,3.22682,2.011,-1,5
68,3.22884,2.020,-1,5
69,3.23085,2.010,-1,5
70,3.23285,1.999,-1,5
71,3.23485,2.003,-1,5
72,3.23687,2.016,-1,5
73,3.23889,2.017,-1,5
74,3.24088,1.996,-1,5
75,3.24288,1.992,-1,5
76,3.24488,2.003,-1,5
77,3.24689,2.011,-1,5
78,3.24889,1.997,-1,5
79,3.25087,1.981,-1,5
80,3.25286,1.988,-1,5
81,3.25485,1.997,-1,5
82,3.25685,1.997,-1,5
83,3.25883,1.981,-1,5
84,3.26081,1.977,-1,5
85,3.26280,1.988,-1,5
86,3.26478,1.989,-1,5
87,3.26677,1.989,-1,5
88,3.26875,1.980,-1,5
89,3.27074,1.983,-1,5
90,3.27272,1.987,-1,5
91,3.27471,1.990,-1,5
92,3.27671,1.994,-1,5
93,3.27869,1.985,-1,5
94,3.28067,1.981,-1,5
95,3.28266,1.987,-1,5
96,3.28466,1.997,-1,5
97,3.28665,1.995,-1,5
98,3.28863,1.982,-1,5
99,3.29063,2.010,-1,5
100,3.29465,2.015,-1,5
101,3.29666,2.009,-1,5
102,3.29867,2.011,-1,5
103,3.30070,2.025,-1,5
104,3.30273,2.036,-1,5
105,3.30477,2.039,-1,5
106,3.30681,2.036,-1,5
107,3.30885,2.045,-1,5
108,3.31090,2.051,-1,5
109,3.31297,2.066,-1,5
110,3.31504,2.070,-1,5
111,3.31711,2.067,-1,5
112,3.31918,2.071,-1,5
113,3.32126,2.087,-1,5
114,3.32337,2.102,-1,5
115,3.32546,2.098,-1,5
116,3.32756,2.093,-1,5
117,3.32966,2.103,-1,5
118,3.33179,2.128,-1,5
119,3.33392,2.132,-1,5
120,3.33604,2.120,-1,5
121,3.33817,2.126,-1,5
122,3.34031,2.148,-1,5
123,3.34248,2.164,-1,5
124,3.34464,2.158,-1,5
125,3.34679,2.154,-1,5
126,3.34896,2.168,-1,5
127,3.35114,2.187,-1,5
128,3.35334,2.195,-1,5
129,3.35553,2.187,-1,5
130,3.35771,2.187,-1,5
131,3.35992,2.205,-1,5
132,3.36214,2.225,-1,5
133,3.36436,2.222,-1,5
134,3.36658,2.213,-1,5
135,3.36880,2.220,-1,5
136,3.37104,2.243,-1,5
137,3.37329,2.249,-1,5
138,3.37553,2.242,-1,5
139,3.37777,2.256,-1,5
140,3.38003,2.256,-1,5
141,3.38230,2.269,-1,5
142,3.38456,2.267,-1,5
143,3.38682,2.260,-1,5
144,3.38909,2.267,-1,5
145,3.39137,2.278,-1,5
146,3.39365,2.284,-1,5
147,3.39821,2.276,-1,5
148,3.40049,2.282,-1,5
149,3.40278,2.289,-1,5
150,3.40507,2.288,-1,5
151,3.40735,2.287,-1,5
152,3.40964,2.283,-1,5
153,3.41192,2.283,-1,5
154,3.41420,2.282,-1,5
155,3.41649,2.286,-1,5
156,3.41877,2.285,-1,5
157,3.42105,2.277,-1,5
158,3.42332,2.272,-1,5
159,3.42559,2.274,-1,5
160,3.42787,2.279,-1,5
161,3.43015,2.272,-1,5
162,3.43241,2.264,-1,5
163,3.43467,2.262,-1,5
164,3.43693,2.261,-1,5
165,3.43919,2.255,-1,5
166,3.44144,2.252,-1,5
167,3.44368,2.242,-1,5
168,3.44591,2.234,-1,5
169,3.44815,2.233,-1,5
170,3.45038,2.231,-1,5
171,3.45260,2.222,-1,5
172,3.45482,2.216,-1,5
173,3.45703,2.212,-1,5
174,3.45923,2.207,-1,5
175,3.46143,2.198,-1,5
176,3.46363,2.195,-1,5
177,3.46582,2.194,-1,5
178,3.46800,2.182,-1,5
179,3.47018,2.175,-1,5
180,3.47235,2.169,-1,5
181,3.47452,2.171,-1,5
182,3.47668,2.161,-1,5
183,3.47883,2.152,-1,5
184,3.48097,2.143,-1,5
185,3.48312,2.146,-1,5
186,3.48526,2.139,-1,5
187,3.48739,2.127,-1,5
188,3.48951,2.122,-1,5
189,3.49163,2.119,-1,5
190,3.49374,2.117,-1,5
191,3.49586,2.114,-1,5
192,3.49797,2.107,-1,5
193,3.50006,2.097,-1,5
194,3.50216,2.100,-1,5
195,3.50426,2.101,-1,5
196,3.50636,2.095,-1,5
197,3.50844,2.083,-1,5
198,3.51052,2.082,-1,5
199,3.51262,2.093,-1,5
200,3.51470,2.085,-1,5
201,3.51678,2.075,-1,5
202,3.51885,2.070,-1,5
203,3.52093,2.083,-1,5
204,3.52301,2.080,-1,5
205,3.52508,2.073,-1,5
206,3.52715,2.075,-1,5
207,3.53131,2.080,-1,5
208,3.53338,2.075,-1,5
209,3.53546,2.075,-1,5
210,3.53753,2.073,-1,5
211,3.53961,2.080,-1,5
212,3.54170,2.086,-1,5
213,3.54378,2.085,-1,5
214,3.54587,2.082,-1,5
215,3.54795,2.084,-1,5
216,3.55005,2.098,-1,5
217,3.55215,2.104,-1,5
218,3.55425,2.102,-1,5
219,3.55635,2.098,-1,5
220,3.55847,2.116,-1,5
221,3.56060,2.128,-1,5
222,3.56272,2.128,-1,5
223,3.56485,2.127,-1,5
224,3.56699,2.137,-1,5
225,3.56914,2.156,-1,5
226,3.57131,2.162,-1,5
227,3.57347,2.165,-1,5
228,3.57564,2.171,-1,5
229,3.57783,2.187,-1,5
230,3.58003,2.197,-1,5
231,3.58224,2.209,-1,5
232,3.58445,2.217,-1,5
233,3.58668,2.228,-1,5
234,3.58893,2.246,-1,5
235,3.59119,2.264,-1,5
236,3.59346,2.272,-1,5
237,3.59575,2.285,-1,5
238,3.59805,2.305,-1,5
239,3.60038,2.328,-1,5
240,3.60272,2.337,-1,5
241,3.60507,2.354,-1,5
242,3.60745,2.376,-1,5
243,3.60984,2.396,-1,5
244,3.61225,2.407,-1,5
245,3.61468,2.455,-1,5
246,3.61961,2.475,-1,5
247,3.62210,2.492,-1,5
248,3.62462,2.517,-1,5
249,3.62716,2.542,-1,5
250,3.62972,2.567,-1,5
251,3.63231,2.591,-1,5
252,3.63493,2.620,-1,5
253,3.63758,2.643,-1,5
254,3.64025,2.670,-1,5
255,3.64295,2.700,-1,5
256,3.64568,2.730,-1,5
257,3.64844,2.758,-1,5
258,3.65122,2.784,-1,5
259,3.65404,2.820,-1,5
260,3.65689,2.849,-1,5
261,3.65977,2.881,-1,5
262,3.66268,2.913,-1,5
263,3.66563,2.948,-1,5
264,3.66861,2.978,-1,5
265,3.67162,3.015,-1,5
266,3.67467,3.049,-1,5
267,3.67775,3.081,-1,5
268,3.68087,3.116,-1,5
269,3.68402,3.153,-1,5
270,3.68721,3.192,-1,5
271,3.69044,3.223,-1,5
272,3.69370,3.258,-1,5
273,3.69699,3.293,-1,5
274,3.70032,3.332,-1,5
275,3.70369,3.368,-1,5
276,3.70709,3.402,-1,5
277,3.71053,3.436,-1,5
278,3.71400,3.472,-1,5
279,3.71751,3.511,-1,5
280,3.72106,3.546,-1,5
281,3.72463,3.577,-1,5
282,3.72824,3.608,-1,5
283,3.73189,3.646,-1,5
284,3.73556,3.677,-1,5
285,3.73927,3.711,-1,5
286,3.74301,3.738,-1,5
287,3.74678,3.771,-1,5
288,3.75058,3.799,-1,5
289,3.75441,3.826,-1,5
290,3.75826,3.854,-1,5
291,3.76214,3.880,-1,5
292,3.76605,3.907,-1,5
293,3.76998,3.934,-1,5
294,3.77394,3.954,-1,5
295,3.77792,3.981,-1,5
296,3.78192,4.001,-1,5
297,3.78594,4.021,-1,5
298,3.78999,4.046,-1,5
299,3.79406,4.069,-1,5
300,3.79814,4.088,-1,5
301,3.80225,4.104,-1,5
302,3.80637,4.124,-1,5
303,3.81051,4.139,-1,5
304,3.81467,4.158,-1,5
305,3.81884,4.174,-1,5
306,3.82303,4.187,-1,5
307,3.82723,4.200,-1,5
308,3.83145,4.214,-1,5
309,3.83567,4.226,-1,5
310,3.83991,4.236,-1,5
311,3.84416,4.248,-1,5
312,3.84841,4.257,-1,5
313,3.85267,4.262,-1,5
314,3.85695,4.272,-1,5
315,3.86123,4.279,-1,5
316,3.86551,4.288,-1,5
317,3.86980,4.286,-1,5
318,3.87409,4.294,-1,5
319,3.87839,4.297,-1,5
320,3.88269,4.300,-1,5
321,3.88699,4.299,-1,5
322,3.89129,4.298,-1,5
323,3.89559,4.300,-1,5
324,3.89988,4.295,-1,5
325,3.90418,4.294,-1,5
326,3.90846,4.285,-1,5
327,3.91275,4.285,-1,5
328,3.91702,4.276,-1,5
329,3.92129,4.272,-1,5
330,3.92556,4.263,-1,5
331,3.92982,4.260,-1,5
332,3.93406,4.246,-1,5
333,3.93830,4.241,-1,5
334,3.94254,4.234,-1,5
335,3.94676,4.220,-1,5
336,3.95097,4.209,-1,5
337,3.95516,4.198,-1,5
338,3.95935,4.187,-1,5
339,3.96352,4.173,-1,5
340,3.96768,4.159,-1,5
341,3.97183,4.144,-1,5
342,3.97596,4.132,-1,5
343,3.98007,4.114,-1,5
344,3.98417,4.098,-1,5
345,3.98825,4.082,-1,5
346,3.99232,4.065,-1,5
347,3.99637,4.054,-1,5
348,4.00041,4.034,-1,5
349,4.00442,4.017,-1,5
350,4.00842,3.995,-1,5
351,4.01240,3.983,-1,5
352,4.01636,3.963,-1,5
353,4.02031,3.946,-1,5
354,4.02424,3.927,-1,5
355,4.02814,3.908,-1,5
356,4.03203,3.890,-1,5
357,4.03591,3.872,-1,5
358,4.03976,3.852,-1,5
359,4.04359,3.832,-1,5
360,4.04740,3.811,-1,5
361,4.05120,3.796,-1,5
362,4.05497,3.777,-1,5
363,4.05873,3.755,-1,5
364,4.06246,3.735,-1,5
365,4.06618,3.718,-1,5
366,4.06988,3.698,-1,5
367,4.07356,3.678,-1,5
368,4.07722,3.660,-1,5
369,4.08086,3.641,-1,5
370,4.08448,3.623,-1,5
371,4.08809,3.604,-1,5
372,4.09167,3.584,-1,5
373,4.09523,3.563,-1,5
374,4.09878,3.546,-1,5
375,4.10230,3.525,-1,5
376,4.10581,3.508,-1,5
377,4.10930,3.488,-1,5
378,4.11277,3.468,-1,5
379,4.11622,3.450,-1,5
380,4.11965,3.427,-1,5
381,4.12306,3.412,-1,5
382,4.12646,3.396,-1,5
383,4.12983,3.375,-1,5
384,4.13318,3.351,-1,5
385,4.13652,3.338,-1,5
386,4.13984,3.319,-1,5
387,4.14314,3.302,-1,5
388,4.14642,3.283,-1,5
389,4.14969,3.265,-1,5
390,4.15293,3.244,-1,5
391,4.15616,3.230,-1,5
392,4.15937,3.212,-1,5
393,4.16257,3.193,-1,5
394,4.16574,3.175,-1,5
395,4.16890,3.158,-1,5
396,4.17204,3.141,-1,5
397,4.17516,3.123,-1,5
398,4.17827,3.107,-1,5
399,4.18136,3.091,-1,5
400,4.18443,3.073,-1,5
401,4.18749,3.056,-1,5
402,4.19053,3.042,-1,5
403,4.19355,3.023,-1,5
404,4.19656,3.008,-1,5
405,4.19955,2.992,-1,5
406,4.20253,2.978,-1,5
407,4.20549,2.961,-1,5
408,4.20844,2.944,-1,5
409,4.21137,2.932,-1,5
410,4.21429,2.920,-1,5
411,4.21719,2.902,-1,5
412,4.22008,2.892,-1,5
413,4.22296,2.877,-1,5
414,4.22582,2.862,-1,5
415,4.22867,2.853,-1,5
416,4.23151,2.840,-1,5
417,4.23434,2.827,-1,5
418,4.23716,2.815,-1,5
419,4.23996,2.803,-1,5
420,4.24275,2.792,-1,5
421,4.24553,2.780,-1,5
422,4.24830,2.771,-1,5
423,4.25107,2.764,-1,5
424,4.25382,2.751,-1,5
425,4.25656,2.741,-1,5
426,4.25929,2.731,-1,5
427,4.26201,2.724,-1,5
428,4.26473,2.712,-1,5
429,4.26743,2.709,-1,5
430,4.27013,2.695,-1,5
431,4.27282,2.685,-1,5
432,4.27550,2.683,-1,5
433,4.27818,2.678,-1,5
434,4.28084,2.670,-1,5
435,4.28351,2.661,-1,5
436,4.28616,2.652,-1,5
437,4.28881,2.650,-1,5
438,4.29145,2.644,-1,5
439,4.29409,2.641,-1,5
440,4.29673,2.637,-1,5
441,4.29936,2.630,-1,5
442,4.30198,2.623,-1,5
443,4.30461,2.625,-1,5
444,4.30723,2.624,-1,5
445,4.30985,2.617,-1,5
446,4.31246,2.613,-1,5
447,4.31508,2.614,-1,5
448,4.31769,2.612,-1,5
449,4.32030,2.610,-1,5
450,4.32291,2.612,-1,5
451,4.32552,2.608,-1,5
452,4.32812,2.604,-1,5
453,4.33073,2.611,-1,5
454,4.33334,2.610,-1,5
455,4.33595,2.610,-1,5
456,4.33856,2.609,-1,5
457,4.34118,2.613,-1,5
458,4.34379,2.615,-1,5
459,4.34641,2.620,-1,5
460,4.34903,2.617,-1,5
461,4.35165,2.625,-1,5
462,4.35428,2.629,-1,5
463,4.35691,2.631,-1,5
464,4.35955,2.637,-1,5
465,4.36220,2.645,-1,5
466,4.36484,2.647,-1,5
467,4.36750,2.655,-1,5
468,4.37016,2.662,-1,5
469,4.37283,2.667,-1,5
470,4.37550,2.679,-1,5
471,4.37819,2.683,-1,5
472,4.38088,2.693,-1,5
473,4.38358,2.704,-1,5
474,4.38630,2.715,-1,5
475,4.38903,2.727,-1,5
476,4.39177,2.741,-1,5
477,4.39452,2.751,-1,5
478,4.39728,2.764,-1,5
479,4.40006,2.781,-1,5
480,4.40286,2.795,-1,5
481,4.40567,2.809,-1,5
482,4.40850,2.831,-1,5
483,4.41134,2.846,-1,5
484,4.41420,2.861,-1,5
485,4.41709,2.884,-1,5
486,4.41999,2.902,-1,5
487,4.42291,2.923,-1,5
488,4.42585,2.941,-1,5
489,4.42882,2.966,-1,5
490,4.43181,2.986,-1,5
491,4.43481,3.009,-1,5
492,4.43785,3.032,-1,5
493,4.44090,3.055,-1,5
494,4.44398,3.074,-1,5
495,4.44708,3.101,-1,5
496,4.45020,3.124,-1,5
497,4.45335,3.147,-1,5
498,4.45652,3.173,-1,5
499,4.45972,3.200,-1,5
500,4.46294,3.220,-1,5
501,4.46619,3.247,-1,5
502,4.46947,3.278,-1,5
503,4.47277,3.302,-1,5
504,4.47610,3.327,-1,5
505,4.47945,3.352,-1,5
506,4.48283,3.384,-1,5
507,4.48624,3.410,-1,5
508,4.48968,3.436,-1,5
509,4.49314,3.466,-1,5
510,4.49664,3.494,-1,5
511,4.50016,3.519,-1,5
512,4.50371,3.554,-1,5
513,4.50729,3.581,-1,5
514,4.51090,3.610,-1,5
515,4.51454,3.638,-1,5
516,4.51821,3.669,-1,5
517,4.52191,3.700,-1,5
518,4.52564,3.731,-1,5
519,4.52939,3.756,-1,5
520,4.53318,3.790,-1,5
521,4.53701,3.822,-1,5
522,4.54086,3.852,-1,5
523,4.54474,3.883,-1,5
524,4.54865,3.910,-1,5
525,4.55259,3.943,-1,5
526,4.55657,3.976,-1,5
527,4.56058,4.008,-1,5
528,4.56462,4.039,-1,5
529,4.56869,4.070,-1,5
530,4.57279,4.101,-1,5
531,4.57692,4.133,-1,5
532,4.58109,4.167,-1,5
533,4.58529,4.196,-1,5
534,4.58952,4.232,-1,5
535,4.59378,4.263,-1,5
536,4.59808,4.295,-1,5
537,4.60240,4.322,-1,5
538,4.60675,4.356,-1,5
539,4.61114,4.386,-1,5
540,4.61556,4.419,-1,5
541,4.62001,4.449,-1,5
542,4.62449,4.479,-1,5
543,4.62899,4.508,-1,5
544,4.63353,4.536,-1,5
545,4.63810,4.567,-1,5
546,4.64269,4.595,-1,5
547,4.64732,4.624,-1,5
548,4.65197,4.655,-1,5
549,4.65665,4.679,-1,5
550,4.66135,4.703,-1,5
551,4.66609,4.734,-1,5
552,4.67085,4.763,-1,5
553,4.67564,4.787,-1,5
554,4.68044,4.807,-1,5
555,4.68528,4.835,-1,5
556,4.69013,4.854,-1,5
557,4.69502,4.884,-1,5
558,4.69992,4.905,-1,5
559,4.70485,4.927,-1,5
560,4.70979,4.946,-1,5
561,4.71476,4.967,-1,5
562,4.71975,4.985,-1,5
563,4.72475,5.006,-1,5
564,4.72977,5.020,-1,5
565,4.73481,5.032,-1,5
566,4.73985,5.048,-1,5
567,4.74492,5.064,-1,5
568,4.74999,5.072,-1,5
569,4.75507,5.078,-1,5
570,4.76016,5.091,-1,5
571,4.76526,5.097,-1,5
572,4.77036,5.107,-1,5
573,4.77547,5.108,-1,5
574,4.78059,5.115,-1,5
575,4.78570,5.119,-1,5
576,4.79083,5.124,-1,5
577,4.79595,5.125,-1,5
578,4.80108,5.124,-1,5
579,4.80620,5.121,-1,5
580,4.81132,5.121,-1,5
581,4.81644,5.120,-1,5
582,4.82155,5.113,-1,5
583,4.82666,5.112,-1,5
584,4.83177,5.100,-1,5
585,4.83686,5.094,-1,5
586,4.84195,5.086,-1,5
587,4.84703,5.083,-1,5
588,4.85210,5.070,-1,5
589,4.85715,5.057,-1,5
590,4.86220,5.047,-1,5
591,4.86724,5.040,-1,5
592,4.87227,5.028,-1,5
593,4.87729,5.015,-1,5
594,4.88228,4.997,-1,5
595,4.88727,4.984,-1,5
596,4.89224,4.970,-1,5
597,4.89719,4.958,-1,5
598,4.90214,4.941,-1,5
599,4.90706,4.922,-1,5
600,4.91197,4.909,-1,5
601,4.91686,4.893,-1,5
602,4.92173,4.875,-1,5
603,4.92659,4.857,-1,5
604,4.93143,4.841,-1,5
605,4.93626,4.826,-1,5
606,4.94107,4.809,-1,5
607,4.94586,4.789,-1,5
608,4.95063,4.774,-1,5
609,4.95538,4.752,-1,5
610,4.96012,4.738,-1,5
611,4.96484,4.717,-1,5
612,4.96953,4.697,-1,5
613,4.97421,4.679,-1,5
614,4.97887,4.662,-1,5
615,4.98352,4.645,-1,5
616,4.98814,4.625,-1,5
617,4.99275,4.603,-1,5
618,4.99733,4.586,-1,5
619,5.00190,4.567,-1,5
620,5.00645,4.553,-1,5
621,5.01098,4.529,-1,5
622,5.01549,4.511,-1,5
623,5.01999,4.493,-1,5
624,5.02446,4.473,-1,5
625,5.02891,4.454,-1,5
626,5.03335,4.434,-1,5
627,5.03776,4.415,-1,5
628,5.04216,4.396,-1,5
629,5.04654,4.380,-1,5
630,5.05090,4.360,-1,5
631,5.05524,4.339,-1,5
632,5.05956,4.318,-1,5
633,5.06386,4.304,-1,5
634,5.06814,4.283,-1,5
635,5.07241,4.269,-1,5
636,5.07666,4.250,-1,5
637,5.08090,4.234,-1,5
638,5.08511,4.213,-1,5
639,5.08930,4.194,-1,5
640,5.09348,4.180,-1,5
641,5.09765,4.161,-1,5
642,5.10179,4.147,-1,5
643,5.10592,4.127,-1,5
644,5.11003,4.112,-1,5
645,5.11413,4.094,-1,5
646,5.11821,4.079,-1,5
647,5.12226,4.060,-1,5
648,5.12631,4.048,-1,5
649,5.13034,4.032,-1,5
650,5.13436,4.017,-1,5
651,5.13837,4.005,-1,5
652,5.14236,3.989,-1,5
653,5.14633,3.975,-1,5
654,5.15029,3.964,-1,5
655,5.15425,3.954,-1,5
656,5.15819,3.940,-1,5
657,5.16212,3.928,-1,5
658,5.16603,3.915,-1,5
659,5.16994,3.904,-1,5
660,5.17383,3.895,-1,5
661,5.17772,3.884,-1,5
662,5.18159,3.873,-1,5
663,5.18545,3.865,-1,5
664,5.18931,3.855,-1,5
665,5.19316,3.849,-1,5
666,5.19699,3.836,-1,5
667,5.20082,3.831,-1,5
668,5.20465,3.825,-1,5
669,5.20847,3.820,-1,5
670,5.21228,3.814,-1,5
671,5.21609,3.805,-1,5
672,5.21989,3.803,-1,5
673,5.22369,3.796,-1,5
674,5.22748,3.793,-1,5
675,5.23127,3.790,-1,5
676,5.23506,3.786,-1,5
677,5.23884,3.778,-1,5
678,5.24261,3.777,-1,5
679,5.24639,3.776,-1,5
680,5.25016,3.773,-1,5
681,5.25392,3.763,-1,5
682,5.25769,3.767,-1,5
683,5.26145,3.762,-1,5
684,5.26522,3.763,-1,5
685,5.26898,3.761,-1,5
686,5.27274,3.757,-1,5
687,5.27649,3.758,-1,5
688,5.28025,3.758,-1,5
689,5.28401,3.759,-1,5
690,5.28777,3.759,-1,5
691,5.29152,3.754,-1,5
692,5.29528,3.756,-1,5
693,5.29904,3.758,-1,5
694,5.30279,3.758,-1,5
695,5.30655,3.761,-1,5
696,5.31031,3.754,-1,5
697,5.31407,3.758,-1,5
698,5.31783,3.759,-1,5
699,5.32159,3.761,-1,5
700,5.32535,3.761,-1,5
701,5.32911,3.757,-1,5
702,5.33286,3.759,-1,5
703,5.33663,3.760,-1,5
704,5.34039,3.762,-1,5
705,5.34415,3.767,-1,5
706,5.34792,3.763,-1,5
707,5.35168,3.763,-1,5
708,5.35545,3.770,-1,5
709,5.35922,3.770,-1,5
710,5.36299,3.770,-1,5
711,5.36676,3.772,-1,5
712,5.37053,3.772,-1,5
713,5.37431,3.774,-1,5
714,5.37809,3.779,-1,5
715,5.38187,3.779,-1,5
716,5.38565,3.781,-1,5
717,5.38943,3.784,-1,5
718,5.39322,3.785,-1,5
719,5.39700,3.785,-1,5
720,5.40079,3.791,-1,5
721,5.40459,3.795,-1,5
722,5.40839,3.799,-1,5
723,5.41219,3.800,-1,5
724,5.41599,3.805,-1,5
725,5.41980,3.812,-1,5
726,5.42362,3.815,-1,5
727,5.42744,3.821,-1,5
728,5.43127,3.826,-1,5
729,5.43510,3.834,-1,5
730,5.43894,3.840,-1,5
731,5.44279,3.847,-1,5
732,5.44664,3.854,-1,5
733,5.45050,3.860,-1,5
734,5.45437,3.867,-1,5
735,5.45824,3.876,-1,5
736,5.46213,3.886,-1,5
737,5.46602,3.895,-1,5
738,5.46993,3.905,-1,5
739,5.47384,3.916,-1,5
740,5.47777,3.925,-1,5
741,5.48170,3.934,-1,5
742,5.48565,3.949,-1,5
743,5.48961,3.959,-1,5
744,5.49359,3.974,-1,5
745,5.49757,3.988,-1,5
746,5.50158,4.003,-1,5
747,5.50559,4.014,-1,5
748,5.50962,4.029,-1,5
749,5.51367,4.048,-1,5
750,5.51773,4.062,-1,5
751,5.52180,4.076,-1,5
752,5.52590,4.093,-1,5
753,5.53001,4.113,-1,5
754,5.53414,4.132,-1,5
755,5.53829,4.146,-1,5
756,5.54245,4.165,-1,5
757,5.54664,4.185,-1,5
758,5.55084,4.205,-1,5
759,5.55507,4.228,-1,5
760,5.55932,4.245,-1,5
761,5.56359,4.271,-1,5
762,5.56788,4.289,-1,5
763,5.57219,4.319,-1,5
764,5.57653,4.337,-1,5
765,5.58089,4.363,-1,5
766,5.58528,4.383,-1,5
767,5.58969,4.413,-1,5
768,5.59413,4.437,-1,5
769,5.59859,4.462,-1,5
770,5.60308,4.489,-1,5
771,5.60760,4.519,-1,5
772,5.61214,4.545,-1,5
773,5.61672,4.574,-1,5
774,5.62132,4.605,-1,5
775,5.62596,4.635,-1,5
776,5.63062,4.668,-1,5
777,5.63533,4.702,-1,5
778,5.64006,4.736,-1,5
779,5.64483,4.768,-1,5
780,5.64963,4.802,-1,5
781,5.65447,4.840,-1,5
782,5.65935,4.875,-1,5
783,5.66426,4.909,-1,5
784,5.66920,4.948,-1,5
785,5.67419,4.983,-1,5
786,5.67921,5.021,-1,5
787,5.68427,5.058,-1,5
788,5.68936,5.093,-1,5
789,5.69450,5.137,-1,5
790,5.69967,5.175,-1,5
791,5.70488,5.207,-1,5
792,5.71012,5.245,-1,5
793,5.71541,5.288,-1,5
794,5.72074,5.325,-1,5
795,5.72609,5.356,-1,5
796,5.73148,5.392,-1,5
797,5.73691,5.425,-1,5
798,5.74237,5.459,-1,5
799,5.74786,5.492,-1,5
800,5.75338,5.520,-1,5
801,5.75893,5.551,-1,5
802,5.76451,5.577,-1,5
803,5.77012,5.610,-1,5
804,5.77575,5.633,-1,5
805,5.78141,5.660,-1,5
806,5.78710,5.687,-1,5
807,5.79281,5.711,-1,5
808,5.79854,5.729,-1,5
809,5.80429,5.752,-1,5
810,5.81007,5.776,-1,5
811,5.81586,5.790,-1,5
812,5.82166,5.806,-1,5
813,5.82749,5.822,-1,5
814,5.83333,5.842,-1,5
815,5.83918,5.855,-1,5
816,5.84505,5.865,-1,5
817,5.85092,5.872,-1,5
818,5.85681,5.887,-1,5
819,5.86270,5.896,-1,5
820,5.86860,5.903,-1,5
821,5.87451,5.904,-1,5
822,5.88041,5.904,-1,5
823,5.88632,5.910,-1,5
824,5.89224,5.914,-1,5
825,5.89814,5.908,-1,5
826,5.90405,5.903,-1,5
827,5.90995,5.900,-1,5
828,5.91584,5.894,-1,5
829,5.92174,5.895,-1,5
830,5.92762,5.886,-1,5
831,5.93350,5.878,-1,5
832,5.93937,5.865,-1,5
833,5.94522,5.857,-1,5
834,5.95107,5.845,-1,5
835,5.95690,5.838,-1,5
836,5.96273,5.820,-1,5
837,5.96853,5.802,-1,5
838,5.97432,5.788,-1,5
839,5.98009,5.777,-1,5
840,5.98586,5.764,-1,5
841,5.99160,5.747,-1,5
842,5.99733,5.727,-1,5
843,6.00304,5.707,-1,5
844,6.00873,5.696,-1,5
845,6.01441,5.677,-1,5
846,6.02007,5.662,-1,5
847,6.02570,5.634,-1,5
848,6.03132,5.615,-1,5
849,6.03691,5.595,-1,5
850,6.04250,5.582,-1,5
851,6.04805,5.556,-1,5
852,6.05359,5.534,-1,5
853,6.05910,5.510,-1,5
854,6.06459,5.496,-1,5
855,6.07007,5.480,-1,5
856,6.07553,5.459,-1,5
857,6.08096,5.427,-1,5
858,6.08636,5.406,-1,5
859,6.09176,5.394,-1,5
860,6.09713,5.372,-1,5
861,6.10248,5.347,-1,5
862,6.10780,5.321,-1,5
863,6.11310,5.302,-1,5
864,6.11838,5.284,-1,5
865,6.12365,5.268,-1,5
866,6.12889,5.240,-1,5
867,6.13411,5.215,-1,5
868,6.13930,5.198,-1,5
869,6.14449,5.181,-1,5
870,6.14964,5.156,-1,5
871,6.15478,5.133,-1,5
872,6.15988,5.110,-1,5
873,6.16498,5.095,-1,5
