cnt,pos,speed,Dir,Force,
1,3.89163,1.002,-1,3
2,3.89264,1.015,-1,3
3,3.89366,1.022,-1,3
4,3.89469,1.031,-1,3
5,3.89575,1.052,-1,3
6,3.89682,1.070,-1,3
7,3.89789,1.078,-1,3
8,3.89897,1.081,-1,3
9,3.90007,1.093,-1,3
10,3.90118,1.117,-1,3
11,3.90232,1.136,-1,3
12,3.90346,1.141,-1,3
13,3.90461,1.145,-1,3
14,3.90577,1.159,-1,3
15,3.90695,1.181,-1,3
16,3.90814,1.191,-1,3
17,3.90934,1.200,-1,3
18,3.91055,1.210,-1,3
19,3.91178,1.229,-1,3
20,3.91302,1.245,-1,3
21,3.91427,1.249,-1,3
22,3.91553,1.258,-1,3
23,3.91680,1.275,-1,3
24,3.91810,1.291,-1,3
25,3.91940,1.308,-1,3
26,3.92072,1.315,-1,3
27,3.92204,1.317,-1,3
28,3.92336,1.329,-1,3
29,3.92472,1.354,-1,3
30,3.92609,1.373,-1,3
31,3.92747,1.375,-1,3
32,3.92884,1.374,-1,3
33,3.93023,1.387,-1,3
34,3.93164,1.413,-1,3
35,3.93307,1.430,-1,3
36,3.93450,1.435,-1,3
37,3.93594,1.437,-1,3
38,3.93738,1.441,-1,3
39,3.93885,1.463,-1,3
40,3.94033,1.486,-1,3
41,3.94182,1.490,-1,3
42,3.94332,1.495,-1,3
43,3.94482,1.499,-1,3
44,3.94633,1.513,-1,3
45,3.94786,1.533,-1,3
46,3.94941,1.550,-1,3
47,3.95096,1.549,-1,3
48,3.95251,1.551,-1,3
49,3.95407,1.560,-1,3
50,3.95565,1.581,-1,3
51,3.95725,1.598,-1,3
52,3.95885,1.602,-1,3
53,3.96045,1.597,-1,3
54,3.96205,1.605,-1,3
55,3.96368,1.625,-1,3
56,3.96532,1.644,-1,3
57,3.96697,1.646,-1,3
58,3.96861,1.643,-1,3
59,3.97026,1.648,-1,3
60,3.97193,1.667,-1,3
61,3.97362,1.689,-1,3
62,3.97531,1.690,-1,3
63,3.97699,1.685,-1,3
64,3.97868,1.689,-1,3
65,3.98038,1.706,-1,3
66,3.98211,1.725,-1,3
67,3.98384,1.730,-1,3
68,3.98557,1.726,-1,3
69,3.98729,1.727,-1,3
70,3.99079,1.758,-1,3
71,3.99079,1.769,-1,3
72,3.99256,1.763,-1,3
73,3.99432,1.763,-1,3
74,3.99608,1.762,-1,3
75,3.99785,1.771,-1,3
76,3.99965,1.802,-1,3
77,4.00145,1.802,-1,3
78,4.00504,1.795,-1,3
79,4.00685,1.806,-1,3
80,4.00867,1.818,-1,3
81,4.01050,1.833,-1,3
82,4.01233,1.833,-1,3
83,4.01416,1.830,-1,3
84,4.01600,1.835,-1,3
85,4.01784,1.842,-1,3
86,4.01970,1.860,-1,3
87,4.02157,1.868,-1,3
88,4.02343,1.859,-1,3
89,4.02528,1.853,-1,3
90,4.02714,1.861,-1,3
91,4.02902,1.882,-1,3
92,4.03092,1.894,-1,3
93,4.03280,1.884,-1,3
94,4.03468,1.875,-1,3
95,4.03656,1.884,-1,3
96,4.03847,1.908,-1,3
97,4.04039,1.919,-1,3
98,4.04229,1.907,-1,3
99,4.04611,1.916,-1,3
100,4.04805,1.936,-1,3
101,4.04998,1.936,-1,3
102,4.05190,1.923,-1,3
103,4.05383,1.926,-1,3
104,4.05577,1.942,-1,3
105,4.05773,1.953,-1,3
106,4.05968,1.949,-1,3
107,4.06162,1.943,-1,3
108,4.06357,1.952,-1,3
109,4.06553,1.959,-1,3
110,4.06750,1.968,-1,3
111,4.06946,1.967,-1,3
112,4.07143,1.964,-1,3
113,4.07339,1.964,-1,3
114,4.07537,1.976,-1,3
115,4.07736,1.987,-1,3
116,4.07934,1.982,-1,3
117,4.08131,1.974,-1,3
118,4.08329,1.978,-1,3
119,4.08529,1.996,-1,3
120,4.08729,2.004,-1,3
121,4.08928,1.988,-1,3
122,4.09126,1.987,-1,3
123,4.09326,1.997,-1,3
124,4.09527,2.010,-1,3
125,4.09728,2.008,-1,3
126,4.09928,1.998,-1,3
127,4.10128,2.000,-1,3
128,4.10329,2.011,-1,3
129,4.10531,2.017,-1,3
130,4.10732,2.014,-1,3
131,4.10933,2.009,-1,3
132,4.11134,2.009,-1,3
133,4.11336,2.018,-1,3
134,4.11538,2.023,-1,3
135,4.11740,2.020,-1,3
136,4.11941,2.014,-1,3
137,4.12143,2.013,-1,3
138,4.12345,2.023,-1,3
139,4.12548,2.031,-1,3
140,4.12750,2.024,-1,3
141,4.12952,2.013,-1,3
142,4.13153,2.015,-1,3
143,4.13356,2.030,-1,3
144,4.13559,2.030,-1,3
145,4.13761,2.019,-1,3
146,4.13963,2.016,-1,3
147,4.14165,2.020,-1,3
148,4.14367,2.028,-1,3
149,4.14570,2.026,-1,3
150,4.14772,2.012,-1,3
151,4.15175,2.018,-1,3
152,4.15175,2.025,-1,3
153,4.15378,2.024,-1,3
154,4.15580,2.024,-1,3
155,4.15782,2.006,-1,3
156,4.15982,2.013,-1,3
157,4.16183,2.020,-1,3
158,4.16587,2.018,-1,3
159,4.16788,2.005,-1,3
160,4.16988,1.999,-1,3
161,4.17189,2.010,-1,3
162,4.17390,2.012,-1,3
163,4.17590,2.001,-1,3
164,4.17789,1.993,-1,3
165,4.17989,1.996,-1,3
166,4.18189,2.001,-1,3
167,4.18388,1.994,-1,3
168,4.18587,1.986,-1,3
169,4.18785,1.982,-1,3
170,4.18984,1.986,-1,3
171,4.19182,1.982,-1,3
172,4.19380,1.978,-1,3
173,4.19577,1.973,-1,3
174,4.19774,1.968,-1,3
175,4.19971,1.967,-1,3
176,4.20167,1.967,-1,3
177,4.20363,1.963,-1,3
178,4.20559,1.956,-1,3
179,4.20754,1.951,-1,3
180,4.20949,1.951,-1,3
181,4.21144,1.949,-1,3
182,4.21338,1.943,-1,3
183,4.21532,1.935,-1,3
184,4.21725,1.933,-1,3
185,4.21919,1.935,-1,3
186,4.22112,1.930,-1,3
187,4.22304,1.923,-1,3
188,4.22495,1.915,-1,3
189,4.22687,1.915,-1,3
190,4.22878,1.915,-1,3
191,4.23069,1.908,-1,3
192,4.23259,1.903,-1,3
193,4.23449,1.897,-1,3
194,4.23639,1.896,-1,3
195,4.23828,1.892,-1,3
196,4.24017,1.886,-1,3
197,4.24205,1.881,-1,3
198,4.24392,1.876,-1,3
199,4.24580,1.873,-1,3
200,4.24767,1.871,-1,3
201,4.24953,1.866,-1,3
202,4.25140,1.863,-1,3
203,4.25325,1.854,-1,3
204,4.25510,1.851,-1,3
205,4.25695,1.849,-1,3
206,4.25880,1.846,-1,3
207,4.26064,1.844,-1,3
208,4.26247,1.828,-1,3
209,4.26430,1.832,-1,3
210,4.26613,1.832,-1,3
211,4.26796,1.828,-1,3
212,4.26978,1.819,-1,3
213,4.27159,1.812,-1,3
214,4.27340,1.810,-1,3
215,4.27522,1.816,-1,3
216,4.27702,1.808,-1,3
217,4.27883,1.802,-1,3
218,4.28062,1.794,-1,3
219,4.28242,1.798,-1,3
220,4.28421,1.796,-1,3
221,4.28601,1.794,-1,3
222,4.28779,1.785,-1,3
223,4.28958,1.784,-1,3
224,4.29136,1.782,-1,3
225,4.29314,1.782,-1,3
226,4.29492,1.781,-1,3
227,4.29670,1.777,-1,3
228,4.29847,1.775,-1,3
229,4.30024,1.767,-1,3
230,4.30201,1.771,-1,3
231,4.30378,1.773,-1,3
232,4.30555,1.772,-1,3
233,4.30732,1.766,-1,3
234,4.30908,1.758,-1,3
235,4.31084,1.761,-1,3
236,4.31261,1.769,-1,3
237,4.31438,1.770,-1,3
238,4.31614,1.765,-1,3
239,4.31790,1.757,-1,3
240,4.31965,1.757,-1,3
241,4.32142,1.772,-1,3
242,4.32319,1.772,-1,3
243,4.32496,1.764,-1,3
244,4.32671,1.756,-1,3
245,4.32847,1.759,-1,3
246,4.33202,1.775,-1,3
247,4.33379,1.769,-1,3
248,4.33555,1.764,-1,3
249,4.33732,1.769,-1,3
250,4.33909,1.775,-1,3
251,4.34087,1.780,-1,3
252,4.34265,1.780,-1,3
253,4.34443,1.778,-1,3
254,4.34621,1.783,-1,3
255,4.34799,1.781,-1,3
256,4.34979,1.792,-1,3
257,4.35158,1.796,-1,3
258,4.35338,1.798,-1,3
259,4.35517,1.792,-1,3
260,4.35697,1.797,-1,3
261,4.35878,1.807,-1,3
262,4.36060,1.821,-1,3
263,4.36241,1.814,-1,3
264,4.36422,1.808,-1,3
265,4.36603,1.814,-1,3
266,4.36786,1.830,-1,3
267,4.36971,1.843,-1,3
268,4.37154,1.832,-1,3
269,4.37337,1.829,-1,3
270,4.37521,1.841,-1,3
271,4.37707,1.856,-1,3
272,4.37892,1.860,-1,3
273,4.38078,1.854,-1,3
274,4.38263,1.856,-1,3
275,4.38450,1.869,-1,3
276,4.38638,1.878,-1,3
277,4.38826,1.884,-1,3
278,4.39015,1.882,-1,3
279,4.39203,1.886,-1,3
280,4.39393,1.895,-1,3
281,4.39583,1.900,-1,3
282,4.39774,1.912,-1,3
283,4.39966,1.916,-1,3
284,4.40157,1.916,-1,3
285,4.40349,1.918,-1,3
286,4.40542,1.930,-1,3
287,4.40737,1.946,-1,3
288,4.40932,1.951,-1,3
289,4.41126,1.944,-1,3
290,4.41321,1.947,-1,3
291,4.41517,1.964,-1,3
292,4.41715,1.980,-1,3
293,4.41913,1.981,-1,3
294,4.42111,1.976,-1,3
295,4.42309,1.984,-1,3
296,4.42509,2.000,-1,3
297,4.42711,2.012,-1,3
298,4.42912,2.016,-1,3
299,4.43316,2.021,-1,3
300,4.43519,2.034,-1,3
301,4.43519,2.046,-1,3
302,4.43724,2.055,-1,3
303,4.43929,2.055,-1,3
304,4.44340,2.055,-1,3
305,4.44547,2.070,-1,3
306,4.44755,2.085,-1,3
307,4.44964,2.089,-1,3
308,4.45173,2.091,-1,3
309,4.45383,2.097,-1,3
310,4.45594,2.109,-1,3
311,4.45806,2.122,-1,3
312,4.46019,2.127,-1,3
313,4.46232,2.132,-1,3
314,4.46446,2.141,-1,3
315,4.46661,2.148,-1,3
316,4.46877,2.160,-1,3
317,4.47094,2.169,-1,3
318,4.47311,2.175,-1,3
319,4.47530,2.182,-1,3
320,4.47749,2.190,-1,3
321,4.47969,2.202,-1,3
322,4.48190,2.211,-1,3
323,4.48412,2.218,-1,3
324,4.48635,2.230,-1,3
325,4.48858,2.235,-1,3
326,4.49082,2.242,-1,3
327,4.49308,2.258,-1,3
328,4.49535,2.268,-1,3
329,4.49762,2.272,-1,3
330,4.49990,2.279,-1,3
331,4.50220,2.295,-1,3
332,4.50450,2.304,-1,3
333,4.50681,2.313,-1,3
334,4.50914,2.323,-1,3
335,4.51147,2.332,-1,3
336,4.51381,2.344,-1,3
337,4.51616,2.350,-1,3
338,4.51853,2.369,-1,3
339,4.52091,2.375,-1,3
340,4.52329,2.382,-1,3
341,4.52568,2.394,-1,3
342,4.52809,2.403,-1,3
343,4.53050,2.417,-1,3
344,4.53294,2.432,-1,3
345,4.53538,2.440,-1,3
346,4.53782,2.444,-1,3
347,4.54028,2.459,-1,3
348,4.54275,2.473,-1,3
349,4.54524,2.485,-1,3
350,4.54773,2.496,-1,3
351,4.55024,2.508,-1,3
352,4.55276,2.516,-1,3
353,4.55528,2.527,-1,3
354,4.55783,2.544,-1,3
355,4.56039,2.558,-1,3
356,4.56296,2.570,-1,3
357,4.56554,2.582,-1,3
358,4.56813,2.592,-1,3
359,4.57073,2.606,-1,3
360,4.57336,2.622,-1,3
361,4.57599,2.635,-1,3
362,4.57864,2.648,-1,3
363,4.58130,2.661,-1,3
364,4.58398,2.675,-1,3
365,4.58666,2.688,-1,3
366,4.58937,2.707,-1,3
367,4.59482,2.734,-1,3
368,4.59757,2.748,-1,3
369,4.60033,2.761,-1,3
370,4.60310,2.774,-1,3
371,4.60590,2.793,-1,3
372,4.60871,2.809,-1,3
373,4.61153,2.821,-1,3
374,4.61437,2.838,-1,3
375,4.61722,2.851,-1,3
376,4.62009,2.869,-1,3
377,4.62297,2.883,-1,3
378,4.62587,2.901,-1,3
379,4.62878,2.915,-1,3
380,4.63171,2.929,-1,3
381,4.63466,2.946,-1,3
382,4.63762,2.964,-1,3
383,4.64060,2.981,-1,3
384,4.64360,3.000,-1,3
385,4.64662,3.012,-1,3
386,4.64964,3.029,-1,3
387,4.65269,3.047,-1,3
388,4.65576,3.064,-1,3
389,4.65884,3.082,-1,3
390,4.66193,3.094,-1,3
391,4.66505,3.115,-1,3
392,4.66818,3.132,-1,3
393,4.67133,3.145,-1,3
394,4.67449,3.168,-1,3
395,4.67768,3.183,-1,3
396,4.68087,3.199,-1,3
397,4.68409,3.216,-1,3
398,4.68732,3.232,-1,3
399,4.69058,3.254,-1,3
400,4.69385,3.270,-1,3
401,4.69713,3.283,-1,3
402,4.70043,3.301,-1,3
403,4.70375,3.321,-1,3
404,4.70709,3.338,-1,3
405,4.71044,3.355,-1,3
406,4.71381,3.369,-1,3
407,4.71720,3.385,-1,3
408,4.72061,3.408,-1,3
409,4.72403,3.425,-1,3
410,4.72747,3.437,-1,3
411,4.73092,3.453,-1,3
412,4.73439,3.470,-1,3
413,4.73788,3.486,-1,3
414,4.74138,3.506,-1,3
415,4.74490,3.518,-1,3
416,4.74844,3.533,-1,3
417,4.75198,3.546,-1,3
418,4.75555,3.566,-1,3
419,4.75913,3.580,-1,3
420,4.76272,3.595,-1,3
421,4.76633,3.606,-1,3
422,4.76995,3.624,-1,3
423,4.77359,3.638,-1,3
424,4.77724,3.654,-1,3
425,4.78091,3.665,-1,3
426,4.78459,3.681,-1,3
427,4.78829,3.709,-1,3
428,4.79572,3.726,-1,3
429,4.79572,3.734,-1,3
430,4.79946,3.734,-1,3
431,4.80321,3.752,-1,3
432,4.80697,3.762,-1,3
433,4.81075,3.777,-1,3
434,4.81454,3.789,-1,3
435,4.81834,3.799,-1,3
436,4.82215,3.811,-1,3
437,4.82597,3.824,-1,3
438,4.82980,3.833,-1,3
439,4.83751,3.855,-1,3
440,4.83751,3.866,-1,3
441,4.84137,3.866,-1,3
442,4.84525,3.876,-1,3
443,4.84913,3.884,-1,3
444,4.85303,3.894,-1,3
445,4.85693,3.905,-1,3
446,4.86084,3.911,-1,3
447,4.86476,3.921,-1,3
448,4.86869,3.933,-1,3
449,4.87656,3.938,-1,3
450,4.87656,3.946,-1,3
451,4.88051,3.946,-1,3
452,4.88446,3.950,-1,3
453,4.88841,3.955,-1,3
454,4.89237,3.958,-1,3
455,4.89633,3.960,-1,3
456,4.90030,3.967,-1,3
457,4.90427,3.966,-1,3
458,4.91220,3.973,-1,3
459,4.91220,3.973,-1,3
460,4.91618,3.973,-1,3
461,4.92015,3.974,-1,3
462,4.92413,3.973,-1,3
463,4.92810,3.973,-1,3
464,4.93207,3.971,-1,3
465,4.93604,3.973,-1,3
466,4.94001,3.967,-1,3
467,4.94398,3.968,-1,3
468,4.94794,3.961,-1,3
469,4.95190,3.958,-1,3
470,4.95585,3.953,-1,3
471,4.95980,3.950,-1,3
472,4.96374,3.942,-1,3
473,4.96768,3.937,-1,3
474,4.97161,3.929,-1,3
475,4.97553,3.922,-1,3
476,4.97945,3.917,-1,3
477,4.98335,3.898,-1,3
478,4.99114,3.888,-1,3
479,4.99502,3.883,-1,3
480,4.99502,3.871,-1,3
481,5.00276,3.862,-1,3
482,5.00661,3.850,-1,3
483,5.01045,3.840,-1,3
484,5.01427,3.828,-1,3
485,5.01809,3.818,-1,3
486,5.02190,3.807,-1,3
487,5.02569,3.793,-1,3
488,5.02947,3.778,-1,3
489,5.03324,3.767,-1,3
490,5.03699,3.751,-1,3
491,5.04073,3.738,-1,3
492,5.04445,3.727,-1,3
493,5.04817,3.713,-1,3
494,5.05186,3.696,-1,3
495,5.05554,3.682,-1,3
496,5.05921,3.668,-1,3
497,5.06286,3.652,-1,3
498,5.06651,3.641,-1,3
499,5.07013,3.628,-1,3
500,5.07375,3.614,-1,3
501,5.07735,3.599,-1,3
502,5.08093,3.585,-1,3
503,5.08450,3.570,-1,3
504,5.08806,3.557,-1,3
505,5.09160,3.542,-1,3
506,5.09513,3.530,-1,3
507,5.09865,3.515,-1,3
508,5.10214,3.499,-1,3
509,5.10563,3.488,-1,3
510,5.10911,3.473,-1,3
511,5.11256,3.453,-1,3
512,5.11600,3.443,-1,3
513,5.11943,3.430,-1,3
514,5.12285,3.413,-1,3
515,5.12625,3.403,-1,3
516,5.12963,3.386,-1,3
517,5.13301,3.373,-1,3
518,5.13637,3.360,-1,3
519,5.13971,3.348,-1,3
520,5.14305,3.332,-1,3
521,5.14637,3.320,-1,3
522,5.14967,3.305,-1,3
523,5.15296,3.293,-1,3
524,5.15624,3.279,-1,3
525,5.15951,3.262,-1,3
526,5.16276,3.254,-1,3
527,5.16600,3.241,-1,3
528,5.16922,3.223,-1,3
529,5.17244,3.211,-1,3
530,5.17563,3.197,-1,3
531,5.17881,3.182,-1,3
532,5.18198,3.171,-1,3
533,5.18514,3.156,-1,3
534,5.18828,3.143,-1,3
535,5.19141,3.130,-1,3
536,5.19453,3.119,-1,3
537,5.19763,3.101,-1,3
538,5.20073,3.095,-1,3
539,5.20381,3.080,-1,3
540,5.20688,3.067,-1,3
541,5.20993,3.058,-1,3
542,5.21298,3.045,-1,3
543,5.21601,3.036,-1,3
544,5.21904,3.028,-1,3
545,5.22206,3.016,-1,3
546,5.22506,3.007,-1,3
547,5.22807,3.002,-1,3
548,5.23106,2.992,-1,3
549,5.23404,2.985,-1,3
550,5.23702,2.978,-1,3
551,5.23999,2.973,-1,3
552,5.24296,2.967,-1,3
553,5.24592,2.957,-1,3
554,5.24887,2.954,-1,3
555,5.25182,2.947,-1,3
556,5.25476,2.940,-1,3
557,5.25770,2.943,-1,3
558,5.26064,2.935,-1,3
559,5.26357,2.930,-1,3
560,5.26650,2.931,-1,3
561,5.26943,2.928,-1,3
562,5.27235,2.929,-1,3
563,5.27528,2.925,-1,3
564,5.27820,2.926,-1,3
565,5.28113,2.926,-1,3
566,5.28406,2.928,-1,3
567,5.28699,2.933,-1,3
568,5.28992,2.932,-1,3
569,5.29286,2.932,-1,3
570,5.29580,2.941,-1,3
571,5.29874,2.942,-1,3
572,5.30169,2.948,-1,3
573,5.30464,2.954,-1,3
574,5.30759,2.953,-1,3
575,5.31055,2.953,-1,3
576,5.31351,2.962,-1,3
577,5.31648,2.967,-1,3
578,5.31945,2.974,-1,3
579,5.32242,2.973,-1,3
580,5.32540,2.979,-1,3
581,5.32839,2.986,-1,3
582,5.33138,2.993,-1,3
583,5.33438,3.004,-1,3
584,5.33739,3.008,-1,3
585,5.34041,3.016,-1,3
586,5.34343,3.025,-1,3
587,5.34647,3.034,-1,3
588,5.34951,3.044,-1,3
589,5.35256,3.055,-1,3
590,5.35562,3.061,-1,3
591,5.35870,3.072,-1,3
592,5.36178,3.080,-1,3
593,5.36487,3.090,-1,3
594,5.36797,3.099,-1,3
595,5.37108,3.109,-1,3
596,5.37419,3.113,-1,3
597,5.37731,3.120,-1,3
598,5.38044,3.130,-1,3
599,5.38358,3.140,-1,3
600,5.38672,3.143,-1,3
601,5.38987,3.147,-1,3
602,5.39302,3.152,-1,3
603,5.39618,3.160,-1,3
604,5.39935,3.173,-1,3
605,5.40253,3.176,-1,3
606,5.40571,3.185,-1,3
607,5.40890,3.188,-1,3
608,5.41210,3.197,-1,3
609,5.41530,3.207,-1,3
610,5.41852,3.212,-1,3
611,5.42174,3.222,-1,3
612,5.42496,3.224,-1,3
613,5.42819,3.232,-1,3
614,5.43144,3.243,-1,3
615,5.43468,3.246,-1,3
616,5.43794,3.253,-1,3
617,5.44119,3.257,-1,3
618,5.44446,3.264,-1,3
619,5.44773,3.273,-1,3
620,5.45101,3.277,-1,3
621,5.45429,3.286,-1,3
622,5.45759,3.292,-1,3
623,5.46088,3.299,-1,3
624,5.46419,3.306,-1,3
625,5.46750,3.314,-1,3
626,5.47082,3.319,-1,3
627,5.47415,3.326,-1,3
628,5.47748,3.334,-1,3
629,5.48082,3.337,-1,3
630,5.48416,3.343,-1,3
631,5.48751,3.347,-1,3
632,5.49087,3.356,-1,3
633,5.49423,3.366,-1,3
634,5.49760,3.370,-1,3
635,5.50098,3.373,-1,3
636,5.50436,3.381,-1,3
637,5.50775,3.391,-1,3
638,5.51115,3.404,-1,3
639,5.51456,3.409,-1,3
640,5.51798,3.415,-1,3
641,5.52140,3.423,-1,3
642,5.52483,3.436,-1,3
643,5.52828,3.447,-1,3
644,5.53173,3.452,-1,3
645,5.53520,3.463,-1,3
646,5.53867,3.472,-1,3
647,5.54215,3.484,-1,3
648,5.54564,3.492,-1,3
649,5.54915,3.502,-1,3
650,5.55266,3.512,-1,3
651,5.55618,3.525,-1,3
652,5.55972,3.536,-1,3
653,5.56327,3.548,-1,3
654,5.56682,3.558,-1,3
655,5.57040,3.572,-1,3
656,5.57398,3.585,-1,3
657,5.57758,3.602,-1,3
658,5.58120,3.615,-1,3
659,5.58483,3.628,-1,3
660,5.58847,3.644,-1,3
661,5.59212,3.656,-1,3
662,5.59580,3.674,-1,3
663,5.59949,3.691,-1,3
664,5.60319,3.702,-1,3
665,5.60691,3.719,-1,3
666,5.61065,3.739,-1,3
667,5.61440,3.755,-1,3
668,5.61818,3.772,-1,3
669,5.62197,3.790,-1,3
670,5.62578,3.811,-1,3
671,5.62961,3.829,-1,3
672,5.63346,3.851,-1,3
673,5.63733,3.869,-1,3
674,5.64122,3.891,-1,3
675,5.64512,3.908,-1,3
676,5.64906,3.932,-1,3
677,5.65301,3.954,-1,3
678,5.65698,3.974,-1,3
679,5.66098,3.995,-1,3
680,5.66500,4.020,-1,3
681,5.66904,4.041,-1,3
682,5.67310,4.063,-1,3
683,5.67719,4.087,-1,3
684,5.68130,4.108,-1,3
685,5.68543,4.135,-1,3
686,5.68959,4.161,-1,3
687,5.69378,4.190,-1,3
688,5.69800,4.214,-1,3
689,5.70224,4.241,-1,3
690,5.70650,4.264,-1,3
691,5.71080,4.302,-1,3
692,5.71513,4.327,-1,3
693,5.71948,4.354,-1,3
694,5.72387,4.384,-1,3
695,5.72829,4.419,-1,3
696,5.73722,4.484,-1,3
697,5.74174,4.515,-1,3
698,5.74628,4.544,-1,3
699,5.75086,4.583,-1,3
700,5.75548,4.618,-1,3
701,5.76013,4.650,-1,3
702,5.76481,4.680,-1,3
703,5.76953,4.719,-1,3
704,5.77429,4.755,-1,3
705,5.77908,4.791,-1,3
706,5.78390,4.822,-1,3
707,5.78875,4.856,-1,3
708,5.79365,4.893,-1,3
709,5.79858,4.928,-1,3
710,5.80354,4.962,-1,3
711,5.80853,4.997,-1,3
712,5.81356,5.028,-1,3
713,5.81862,5.059,-1,3
714,5.82372,5.097,-1,3
715,5.82884,5.122,-1,3
716,5.83400,5.157,-1,3
717,5.83918,5.184,-1,3
718,5.84440,5.215,-1,3
719,5.84963,5.239,-1,3
720,5.85490,5.267,-1,3
721,5.86019,5.289,-1,3
722,5.86550,5.313,-1,3
723,5.87083,5.331,-1,3
724,5.87619,5.353,-1,3
725,5.88155,5.365,-1,3
726,5.88694,5.385,-1,3
727,5.89233,5.394,-1,3
728,5.89774,5.408,-1,3
729,5.90316,5.420,-1,3
730,5.90859,5.432,-1,3
731,5.91403,5.435,-1,3
732,5.91947,5.440,-1,3
733,5.92492,5.450,-1,3
734,5.93037,5.454,-1,3
735,5.93583,5.457,-1,3
736,5.94128,5.452,-1,3
737,5.94673,5.452,-1,3
738,5.95218,5.451,-1,3
739,5.95763,5.451,-1,3
740,5.96307,5.440,-1,3
741,5.96851,5.434,-1,3
742,5.97393,5.423,-1,3
743,5.97934,5.414,-1,3
744,5.98475,5.407,-1,3
745,5.99553,5.386,-1,3
746,6.00091,5.372,-1,3
747,6.00626,5.357,-1,3
748,6.01160,5.342,-1,3
749,6.01694,5.334,-1,3
750,6.02226,5.317,-1,3
751,6.02755,5.299,-1,3
752,6.03284,5.283,-1,3
753,6.03811,5.270,-1,3
754,6.04337,5.257,-1,3
755,6.04861,5.244,-1,3
756,6.05383,5.225,-1,3
757,6.05905,5.211,-1,3
758,6.06424,5.197,-1,3
759,6.06943,5.186,-1,3
760,6.07460,5.173,-1,3
761,6.07976,5.160,-1,3
762,6.08490,5.137,-1,3
763,6.09002,5.121,-1,3
764,6.09513,5.114,-1,3
765,6.10023,5.094,-1,3
766,6.10531,5.081,-1,3
767,6.11037,5.060,-1,3
768,6.11542,5.047,-1,3
769,6.12045,5.035,-1,3
770,6.12547,5.021,-1,3
771,6.13047,5.003,-1,3
772,6.13546,4.990,-1,3
773,6.14044,4.973,-1,3
774,6.14539,4.958,-1,3
775,6.15034,4.941,-1,3
776,6.15526,4.926,-1,3
777,6.16018,4.914,-1,3
778,6.16508,4.901,-1,3
779,6.16996,4.880,-1,3
780,6.17482,4.863,-1,3
781,6.17967,4.853,-1,3
782,6.18451,4.837,-1,3
783,6.18933,4.825,-1,3
784,6.19414,4.806,-1,3
785,6.20371,4.776,-1,3
786,6.20371,4.776,-1,3
787,6.20848,4.766,-1,3
788,6.21323,4.753,-1,3
789,6.21797,4.739,-1,3
790,6.22269,4.720,-1,3
791,6.22739,4.692,-1,3
792,6.23676,4.679,-1,3
793,6.24143,4.665,-1,3
794,6.24608,4.649,-1,3
795,6.25071,4.629,-1,3
796,6.25532,4.617,-1,3
797,6.25993,4.606,-1,3
798,6.26452,4.591,-1,3
799,6.26910,4.582,-1,3
800,6.27366,4.560,-1,3
801,6.27821,4.549,-1,3
802,6.28274,4.531,-1,3
803,6.28727,4.526,-1,3
804,6.29178,4.510,-1,3
805,6.29627,4.496,-1,3
806,6.30075,4.478,-1,3
807,6.30522,4.465,-1,3
808,6.30967,4.451,-1,3
809,6.31411,4.441,-1,3
810,6.31853,4.425,-1,3
811,6.32294,4.407,-1,3
812,6.32733,4.393,-1,3
813,6.33172,4.381,-1,3
814,6.33608,4.365,-1,3
815,6.34043,4.354,-1,3
816,6.34478,4.345,-1,3
817,6.34911,4.326,-1,3
818,6.35342,4.311,-1,3
819,6.35772,4.300,-1,3
820,6.36200,4.287,-1,3
821,6.36628,4.275,-1,3
822,6.37054,4.257,-1,3
823,6.37478,4.245,-1,3
824,6.37901,4.232,-1,3
825,6.38323,4.216,-1,3
826,6.38743,4.206,-1,3
827,6.39163,4.191,-1,3
828,6.39580,4.174,-1,3
829,6.39996,4.164,-1,3
830,6.40412,4.152,-1,3
831,6.40825,4.138,-1,3
832,6.41237,4.121,-1,3
833,6.41648,4.109,-1,3
834,6.42058,4.096,-1,3
835,6.42466,4.082,-1,3
836,6.42873,4.072,-1,3
837,6.43279,4.055,-1,3
838,6.43683,4.039,-1,3
839,6.44086,4.029,-1,3
840,6.44487,4.012,-1,3
841,6.44887,4.000,-1,3
842,6.45285,3.982,-1,3
843,6.46078,3.956,-1,3
844,6.46472,3.944,-1,3
845,6.46865,3.928,-1,3
846,6.47256,3.912,-1,3
847,6.47646,3.900,-1,3
848,6.48034,3.885,-1,3
849,6.48422,3.873,-1,3
850,6.48808,3.859,-1,3
851,6.49192,3.846,-1,3
852,6.49575,3.830,-1,3
853,6.49957,3.818,-1,3
854,6.50337,3.804,-1,3
855,6.50717,3.792,-1,3
856,6.51094,3.775,-1,3
857,6.51470,3.760,-1,3
858,6.51845,3.748,-1,3
859,6.52218,3.729,-1,3
860,6.52590,3.719,-1,3
861,6.52960,3.702,-1,3
862,6.53329,3.688,-1,3
863,6.53696,3.672,-1,3
864,6.54062,3.661,-1,3
865,6.54427,3.646,-1,3
866,6.54790,3.632,-1,3
867,6.55152,3.617,-1,3
868,6.55512,3.604,-1,3
869,6.55871,3.591,-1,3
870,6.56229,3.576,-1,3
871,6.56585,3.559,-1,3
872,6.56939,3.546,-1,3
873,6.57292,3.530,-1,3
