cnt,pos,speed,Dir,Force,
1,3.61506,1.014,-1,5
2,3.61610,1.031,-1,5
3,3.61716,1.061,-1,5
4,3.61825,1.094,-1,5
5,3.61937,1.124,-1,5
6,3.62051,1.139,-1,5
7,3.62167,1.154,-1,5
8,3.62285,1.188,-1,5
9,3.62408,1.224,-1,5
10,3.62532,1.245,-1,5
11,3.62658,1.257,-1,5
12,3.62786,1.282,-1,5
13,3.62918,1.321,-1,5
14,3.63053,1.349,-1,5
15,3.63190,1.363,-1,5
16,3.63328,1.384,-1,5
17,3.63469,1.412,-1,5
18,3.63613,1.442,-1,5
19,3.63760,1.468,-1,5
20,3.63909,1.489,-1,5
21,3.64059,1.502,-1,5
22,3.64213,1.533,-1,5
23,3.64369,1.567,-1,5
24,3.64528,1.586,-1,5
25,3.64688,1.600,-1,5
26,3.64850,1.617,-1,5
27,3.65014,1.645,-1,5
28,3.65182,1.677,-1,5
29,3.65352,1.700,-1,5
30,3.65522,1.704,-1,5
31,3.65694,1.720,-1,5
32,3.65869,1.751,-1,5
33,3.66047,1.778,-1,5
34,3.66227,1.801,-1,5
35,3.66408,1.803,-1,5
36,3.66589,1.815,-1,5
37,3.66773,1.842,-1,5
38,3.66960,1.870,-1,5
39,3.67149,1.888,-1,5
40,3.67338,1.888,-1,5
41,3.67528,1.897,-1,5
42,3.67720,1.922,-1,5
43,3.67915,1.946,-1,5
44,3.68110,1.958,-1,5
45,3.68307,1.962,-1,5
46,3.68503,1.966,-1,5
47,3.68702,1.987,-1,5
48,3.68903,2.007,-1,5
49,3.69105,2.022,-1,5
50,3.69307,2.023,-1,5
51,3.69509,2.024,-1,5
52,3.69713,2.033,-1,5
53,3.69918,2.057,-1,5
54,3.70126,2.074,-1,5
55,3.70333,2.068,-1,5
56,3.70539,2.063,-1,5
57,3.70746,2.070,-1,5
58,3.70955,2.095,-1,5
59,3.71166,2.104,-1,5
60,3.71376,2.098,-1,5
61,3.71585,2.095,-1,5
62,3.71795,2.097,-1,5
63,3.72006,2.113,-1,5
64,3.72218,2.122,-1,5
65,3.72431,2.123,-1,5
66,3.72642,2.110,-1,5
67,3.72852,2.121,-1,5
68,3.73065,2.121,-1,5
69,3.73278,2.134,-1,5
70,3.73702,2.114,-1,5
71,3.73914,2.116,-1,5
72,3.73914,2.116,-1,5
73,3.74338,2.124,-1,5
74,3.74550,2.120,-1,5
75,3.74762,2.120,-1,5
76,3.74973,2.108,-1,5
77,3.75183,2.106,-1,5
78,3.75394,2.109,-1,5
79,3.75606,2.112,-1,5
80,3.75816,2.108,-1,5
81,3.76026,2.093,-1,5
82,3.76234,2.086,-1,5
83,3.76443,2.088,-1,5
84,3.76652,2.091,-1,5
85,3.76861,2.086,-1,5
86,3.77068,2.071,-1,5
87,3.77274,2.063,-1,5
88,3.77480,2.058,-1,5
89,3.77687,2.064,-1,5
90,3.77892,2.056,-1,5
91,3.78097,2.047,-1,5
92,3.78300,2.030,-1,5
93,3.78503,2.029,-1,5
94,3.78706,2.032,-1,5
95,3.78908,2.022,-1,5
96,3.79109,2.006,-1,5
97,3.79309,2.000,-1,5
98,3.79509,2.001,-1,5
99,3.79708,1.991,-1,5
100,3.79906,1.980,-1,5
101,3.80103,1.968,-1,5
102,3.80300,1.968,-1,5
103,3.80496,1.961,-1,5
104,3.80691,1.941,-1,5
105,3.81078,1.933,-1,5
106,3.81270,1.925,-1,5
107,3.81462,1.918,-1,5
108,3.81462,1.918,-1,5
109,3.81843,1.901,-1,5
110,3.82032,1.887,-1,5
111,3.82220,1.882,-1,5
112,3.82408,1.877,-1,5
113,3.82594,1.869,-1,5
114,3.82780,1.856,-1,5
115,3.82964,1.842,-1,5
116,3.83148,1.841,-1,5
117,3.83332,1.839,-1,5
118,3.83515,1.827,-1,5
119,3.83696,1.809,-1,5
120,3.83876,1.801,-1,5
121,3.84057,1.804,-1,5
122,3.84237,1.802,-1,5
123,3.84415,1.781,-1,5
124,3.84591,1.765,-1,5
125,3.84767,1.760,-1,5
126,3.84944,1.768,-1,5
127,3.85121,1.763,-1,5
128,3.85294,1.737,-1,5
129,3.85466,1.721,-1,5
130,3.85639,1.727,-1,5
131,3.85812,1.733,-1,5
132,3.85984,1.720,-1,5
133,3.86154,1.698,-1,5
134,3.86323,1.687,-1,5
135,3.86493,1.698,-1,5
136,3.86662,1.698,-1,5
137,3.86830,1.678,-1,5
138,3.86996,1.661,-1,5
139,3.87162,1.660,-1,5
140,3.87329,1.668,-1,5
141,3.87495,1.661,-1,5
142,3.87659,1.636,-1,5
143,3.87822,1.628,-1,5
144,3.87985,1.639,-1,5
145,3.88149,1.638,-1,5
146,3.88311,1.618,-1,5
147,3.88471,1.599,-1,5
148,3.88631,1.602,-1,5
149,3.88793,1.618,-1,5
150,3.88954,1.613,-1,5
151,3.89112,1.581,-1,5
152,3.89269,1.566,-1,5
153,3.89586,1.592,-1,5
154,3.89745,1.585,-1,5
155,3.89900,1.556,-1,5
156,3.90054,1.537,-1,5
157,3.90209,1.551,-1,5
158,3.90366,1.571,-1,5
159,3.90522,1.556,-1,5
160,3.90675,1.530,-1,5
161,3.90827,1.519,-1,5
162,3.90979,1.526,-1,5
163,3.91134,1.545,-1,5
164,3.91287,1.535,-1,5
165,3.91438,1.507,-1,5
166,3.91587,1.495,-1,5
167,3.91739,1.515,-1,5
168,3.91891,1.524,-1,5
169,3.92043,1.515,-1,5
170,3.92192,1.489,-1,5
171,3.92340,1.478,-1,5
172,3.92490,1.500,-1,5
173,3.92641,1.514,-1,5
174,3.92791,1.497,-1,5
175,3.92937,1.467,-1,5
176,3.93084,1.466,-1,5
177,3.93233,1.488,-1,5
178,3.93382,1.496,-1,5
179,3.93531,1.485,-1,5
180,3.93676,1.457,-1,5
181,3.93822,1.452,-1,5
182,3.93969,1.477,-1,5
183,3.94265,1.467,-1,5
184,3.94265,1.451,-1,5
185,3.94556,1.454,-1,5
186,3.94703,1.470,-1,5
187,3.94850,1.477,-1,5
188,3.94997,1.467,-1,5
189,3.95142,1.448,-1,5
190,3.95287,1.450,-1,5
191,3.95434,1.471,-1,5
192,3.95582,1.475,-1,5
193,3.95727,1.456,-1,5
194,3.95872,1.450,-1,5
195,3.96018,1.458,-1,5
196,3.96165,1.468,-1,5
197,3.96312,1.473,-1,5
198,3.96458,1.464,-1,5
199,3.96604,1.454,-1,5
200,3.96750,1.463,-1,5
201,3.96898,1.483,-1,5
202,3.97046,1.479,-1,5
203,3.97193,1.470,-1,5
204,3.97341,1.475,-1,5
205,3.97489,1.483,-1,5
206,3.97639,1.494,-1,5
207,3.97788,1.498,-1,5
208,3.97937,1.490,-1,5
209,3.98087,1.496,-1,5
210,3.98238,1.512,-1,5
211,3.98391,1.524,-1,5
212,3.98543,1.520,-1,5
213,3.98695,1.520,-1,5
214,3.98847,1.529,-1,5
215,3.99002,1.547,-1,5
216,3.99158,1.563,-1,5
217,3.99315,1.561,-1,5
218,3.99470,1.558,-1,5
219,3.99628,1.573,-1,5
220,3.99787,1.598,-1,5
221,3.99949,1.613,-1,5
222,4.00110,1.617,-1,5
223,4.00272,1.617,-1,5
224,4.00435,1.634,-1,5
225,4.00602,1.664,-1,5
226,4.00770,1.678,-1,5
227,4.00938,1.681,-1,5
228,4.01107,1.692,-1,5
229,4.01278,1.715,-1,5
230,4.01452,1.743,-1,5
231,4.01628,1.760,-1,5
232,4.01983,1.785,-1,5
233,4.02165,1.817,-1,5
234,4.02348,1.840,-1,5
235,4.02534,1.851,-1,5
236,4.02720,1.865,-1,5
237,4.02910,1.900,-1,5
238,4.03104,1.937,-1,5
239,4.03299,1.949,-1,5
240,4.03495,1.965,-1,5
241,4.03695,1.995,-1,5
242,4.03899,2.039,-1,5
243,4.04105,2.066,-1,5
244,4.04313,2.078,-1,5
245,4.04523,2.105,-1,5
246,4.04738,2.149,-1,5
247,4.04957,2.189,-1,5
248,4.05178,2.205,-1,5
249,4.05401,2.231,-1,5
250,4.05628,2.273,-1,5
251,4.05860,2.317,-1,5
252,4.06094,2.346,-1,5
253,4.06331,2.371,-1,5
254,4.06572,2.407,-1,5
255,4.06818,2.457,-1,5
256,4.07068,2.497,-1,5
257,4.07320,2.520,-1,5
258,4.07575,2.550,-1,5
259,4.07835,2.607,-1,5
260,4.08100,2.678,-1,5
261,4.08368,2.712,-1,5
262,4.08639,2.755,-1,5
263,4.08915,2.804,-1,5
264,4.09195,2.804,-1,5
265,4.09479,2.836,-1,5
266,4.09766,2.871,-1,5
267,4.10352,2.956,-1,5
268,4.10652,2.995,-1,5
269,4.10954,3.026,-1,5
270,4.11260,3.055,-1,5
271,4.11570,3.100,-1,5
272,4.11884,3.140,-1,5
273,4.12201,3.171,-1,5
274,4.12520,3.196,-1,5
275,4.12844,3.236,-1,5
276,4.13171,3.270,-1,5
277,4.13501,3.302,-1,5
278,4.13834,3.326,-1,5
279,4.14169,3.356,-1,5
280,4.14508,3.389,-1,5
281,4.14850,3.420,-1,5
282,4.15194,3.439,-1,5
283,4.15540,3.463,-1,5
284,4.15889,3.491,-1,5
285,4.16241,3.520,-1,5
286,4.16595,3.540,-1,5
287,4.16951,3.556,-1,5
288,4.17309,3.581,-1,5
289,4.17669,3.602,-1,5
290,4.18031,3.621,-1,5
291,4.18395,3.637,-1,5
292,4.18760,3.652,-1,5
293,4.19128,3.673,-1,5
294,4.19497,3.690,-1,5
295,4.19867,3.703,-1,5
296,4.20239,3.718,-1,5
297,4.20611,3.728,-1,5
298,4.20986,3.746,-1,5
299,4.21362,3.761,-1,5
300,4.21739,3.767,-1,5
301,4.22117,3.784,-1,5
302,4.22497,3.795,-1,5
303,4.22877,3.814,-1,5
304,4.23259,3.814,-1,5
305,4.23641,3.824,-1,5
306,4.24024,3.831,-1,5
307,4.24409,3.847,-1,5
308,4.25179,3.856,-1,5
309,4.25565,3.860,-1,5
310,4.25951,3.865,-1,5
311,4.26339,3.871,-1,5
312,4.26726,3.877,-1,5
313,4.27114,3.880,-1,5
314,4.27502,3.879,-1,5
315,4.27891,3.885,-1,5
316,4.28279,3.887,-1,5
317,4.28668,3.889,-1,5
318,4.29057,3.889,-1,5
319,4.29446,3.890,-1,5
320,4.29835,3.890,-1,5
321,4.30224,3.890,-1,5
322,4.30613,3.891,-1,5
323,4.31002,3.888,-1,5
324,4.31391,3.885,-1,5
325,4.31779,3.883,-1,5
326,4.32167,3.878,-1,5
327,4.32554,3.873,-1,5
328,4.32941,3.870,-1,5
329,4.33328,3.868,-1,5
330,4.33714,3.862,-1,5
331,4.34100,3.856,-1,5
332,4.34485,3.851,-1,5
333,4.34869,3.844,-1,5
334,4.35253,3.841,-1,5
335,4.35637,3.834,-1,5
336,4.36019,3.827,-1,5
337,4.36402,3.821,-1,5
338,4.36783,3.815,-1,5
339,4.37544,3.798,-1,5
340,4.37922,3.789,-1,5
341,4.38301,3.782,-1,5
342,4.38678,3.775,-1,5
343,4.39055,3.765,-1,5
344,4.39430,3.757,-1,5
345,4.39805,3.745,-1,5
346,4.40179,3.739,-1,5
347,4.40551,3.724,-1,5
348,4.40923,3.718,-1,5
349,4.41294,3.706,-1,5
350,4.41663,3.699,-1,5
351,4.42032,3.684,-1,5
352,4.42399,3.674,-1,5
353,4.42766,3.665,-1,5
354,4.43131,3.653,-1,5
355,4.43495,3.641,-1,5
356,4.43858,3.632,-1,5
357,4.44220,3.619,-1,5
358,4.44581,3.606,-1,5
359,4.44941,3.597,-1,5
360,4.45299,3.585,-1,5
361,4.45657,3.575,-1,5
362,4.46013,3.559,-1,5
363,4.46367,3.548,-1,5
364,4.46721,3.536,-1,5
365,4.47074,3.526,-1,5
366,4.47425,3.513,-1,5
367,4.47775,3.502,-1,5
368,4.48124,3.486,-1,5
369,4.48471,3.474,-1,5
370,4.48818,3.466,-1,5
371,4.49163,3.453,-1,5
372,4.49507,3.442,-1,5
373,4.49850,3.427,-1,5
374,4.50192,3.419,-1,5
375,4.50533,3.409,-1,5
376,4.50872,3.394,-1,5
377,4.51211,3.386,-1,5
378,4.51884,3.362,-1,5
379,4.51884,3.352,-1,5
380,4.52219,3.352,-1,5
381,4.52553,3.328,-1,5
382,4.52886,3.328,-1,5
383,4.53218,3.310,-1,5
384,4.53549,3.310,-1,5
385,4.53878,3.296,-1,5
386,4.54207,3.271,-1,5
387,4.54861,3.263,-1,5
388,4.55186,3.253,-1,5
389,4.55186,3.242,-1,5
390,4.55510,3.242,-1,5
391,4.55834,3.235,-1,5
392,4.56156,3.222,-1,5
393,4.56477,3.209,-1,5
394,4.56797,3.203,-1,5
395,4.57116,3.193,-1,5
396,4.57435,3.183,-1,5
397,4.57752,3.171,-1,5
398,4.58068,3.163,-1,5
399,4.58383,3.153,-1,5
400,4.58698,3.146,-1,5
401,4.59012,3.138,-1,5
402,4.59324,3.124,-1,5
403,4.59636,3.120,-1,5
404,4.59947,3.108,-1,5
405,4.60257,3.098,-1,5
406,4.60566,3.093,-1,5
407,4.60874,3.085,-1,5
408,4.61182,3.068,-1,5
409,4.61489,3.068,-1,5
410,4.61794,3.047,-1,5
411,4.62099,3.047,-1,5
412,4.62403,3.043,-1,5
413,4.62707,3.036,-1,5
414,4.63010,3.028,-1,5
415,4.63311,3.015,-1,5
416,4.63612,3.011,-1,5
417,4.64212,2.996,-1,5
418,4.64511,2.989,-1,5
419,4.64809,2.981,-1,5
420,4.65106,2.971,-1,5
421,4.65403,2.964,-1,5
422,4.65698,2.955,-1,5
423,4.65994,2.952,-1,5
424,4.66287,2.939,-1,5
425,4.66580,2.929,-1,5
426,4.66873,2.925,-1,5
427,4.67164,2.913,-1,5
428,4.67455,2.910,-1,5
429,4.67745,2.898,-1,5
430,4.68034,2.887,-1,5
431,4.68322,2.878,-1,5
432,4.68609,2.873,-1,5
433,4.68895,2.860,-1,5
434,4.69181,2.856,-1,5
435,4.69465,2.843,-1,5
436,4.69748,2.833,-1,5
437,4.70031,2.826,-1,5
438,4.70313,2.818,-1,5
439,4.70593,2.806,-1,5
440,4.70873,2.798,-1,5
441,4.71152,2.788,-1,5
442,4.71430,2.779,-1,5
443,4.71707,2.769,-1,5
444,4.71983,2.760,-1,5
445,4.72258,2.750,-1,5
446,4.72531,2.736,-1,5
447,4.72804,2.729,-1,5
448,4.73076,2.722,-1,5
449,4.73347,2.708,-1,5
450,4.73617,2.696,-1,5
451,4.73886,2.693,-1,5
452,4.74154,2.679,-1,5
453,4.74420,2.665,-1,5
454,4.74686,2.660,-1,5
455,4.74951,2.645,-1,5
456,4.75214,2.635,-1,5
457,4.75477,2.626,-1,5
458,4.75999,2.602,-1,5
459,4.76258,2.592,-1,5
460,4.76516,2.580,-1,5
461,4.76773,2.573,-1,5
462,4.77030,2.563,-1,5
463,4.77284,2.547,-1,5
464,4.77538,2.540,-1,5
465,4.77791,2.531,-1,5
466,4.78043,2.518,-1,5
467,4.78294,2.506,-1,5
468,4.78544,2.503,-1,5
469,4.78793,2.491,-1,5
470,4.79041,2.478,-1,5
471,4.79288,2.469,-1,5
472,4.79534,2.462,-1,5
473,4.79779,2.452,-1,5
474,4.80024,2.444,-1,5
475,4.80267,2.435,-1,5
476,4.80510,2.425,-1,5
477,4.80751,2.416,-1,5
478,4.80992,2.408,-1,5
479,4.81232,2.404,-1,5
480,4.81472,2.393,-1,5
481,4.81710,2.387,-1,5
482,4.81948,2.381,-1,5
483,4.82186,2.373,-1,5
484,4.82423,2.369,-1,5
485,4.82659,2.363,-1,5
486,4.82895,2.357,-1,5
487,4.83130,2.355,-1,5
488,4.83365,2.353,-1,5
489,4.83600,2.347,-1,5
490,4.83834,2.341,-1,5
491,4.84069,2.345,-1,5
492,4.84303,2.346,-1,5
493,4.84537,2.340,-1,5
494,4.84771,2.337,-1,5
495,4.85005,2.345,-1,5
496,4.85240,2.349,-1,5
497,4.85710,2.350,-1,5
498,4.85946,2.358,-1,5
499,4.86182,2.365,-1,5
500,4.86420,2.373,-1,5
501,4.86657,2.372,-1,5
502,4.86896,2.387,-1,5
503,4.87136,2.400,-1,5
504,4.87376,2.408,-1,5
505,4.87618,2.416,-1,5
506,4.87862,2.437,-1,5
507,4.88107,2.453,-1,5
508,4.88353,2.463,-1,5
509,4.88601,2.479,-1,5
510,4.88852,2.504,-1,5
511,4.89104,2.521,-1,5
512,4.89358,2.542,-1,5
513,4.89614,2.564,-1,5
514,4.89873,2.591,-1,5
515,4.90135,2.613,-1,5
516,4.90399,2.643,-1,5
517,4.90666,2.669,-1,5
518,4.90936,2.699,-1,5
519,4.91209,2.733,-1,5
520,4.91485,2.762,-1,5
521,4.91766,2.803,-1,5
522,4.92049,2.837,-1,5
523,4.92336,2.871,-1,5
524,4.92628,2.915,-1,5
525,4.92923,2.955,-1,5
526,4.93223,2.995,-1,5
527,4.93527,3.037,-1,5
528,4.93835,3.082,-1,5
529,4.94148,3.132,-1,5
530,4.94465,3.175,-1,5
531,4.94787,3.220,-1,5
532,4.95114,3.270,-1,5
533,4.95446,3.320,-1,5
534,4.95784,3.372,-1,5
535,4.96125,3.416,-1,5
536,4.96472,3.472,-1,5
537,4.96825,3.576,-1,5
538,4.97545,3.629,-1,5
539,4.97545,3.677,-1,5
540,4.98286,3.731,-1,5
541,4.98665,3.787,-1,5
542,4.99049,3.840,-1,5
543,4.99049,3.891,-1,5
544,4.99438,3.942,-1,5
545,4.99832,3.995,-1,5
546,5.00636,4.050,-1,5
547,5.01047,4.101,-1,5
548,5.01461,4.148,-1,5
549,5.01881,4.197,-1,5
550,5.02306,4.252,-1,5
551,5.02736,4.296,-1,5
552,5.03170,4.344,-1,5
553,5.03609,4.388,-1,5
554,5.04053,4.438,-1,5
555,5.04501,4.482,-1,5
556,5.04953,4.522,-1,5
557,5.05410,4.562,-1,5
558,5.05870,4.605,-1,5
559,5.06334,4.644,-1,5
560,5.06803,4.682,-1,5
561,5.07274,4.719,-1,5
562,5.07750,4.756,-1,5
563,5.08229,4.788,-1,5
564,5.08711,4.817,-1,5
565,5.09196,4.850,-1,5
566,5.09683,4.875,-1,5
567,5.10174,4.907,-1,5
568,5.10667,4.929,-1,5
569,5.11162,4.951,-1,5
570,5.11659,4.971,-1,5
571,5.12158,4.992,-1,5
572,5.12659,5.011,-1,5
573,5.13162,5.029,-1,5
574,5.13666,5.045,-1,5
575,5.14172,5.056,-1,5
576,5.14678,5.065,-1,5
577,5.15186,5.079,-1,5
578,5.15696,5.101,-1,5
579,5.16206,5.101,-1,5
580,5.16716,5.101,-1,5
581,5.17738,5.114,-1,5
582,5.17738,5.117,-1,5
583,5.18250,5.120,-1,5
584,5.18762,5.117,-1,5
585,5.19785,5.117,-1,5
586,5.20296,5.115,-1,5
587,5.20808,5.116,-1,5
588,5.21320,5.117,-1,5
589,5.21831,5.112,-1,5
590,5.22342,5.106,-1,5
591,5.22852,5.101,-1,5
592,5.23362,5.098,-1,5
593,5.23871,5.089,-1,5
594,5.24379,5.085,-1,5
595,5.24887,5.076,-1,5
596,5.25393,5.062,-1,5
597,5.25898,5.056,-1,5
598,5.26403,5.049,-1,5
599,5.26907,5.037,-1,5
600,5.27410,5.026,-1,5
601,5.27911,5.015,-1,5
602,5.28412,5.004,-1,5
603,5.28911,4.992,-1,5
604,5.29409,4.979,-1,5
605,5.29905,4.963,-1,5
606,5.30400,4.951,-1,5
607,5.30894,4.936,-1,5
608,5.31386,4.922,-1,5
609,5.31877,4.906,-1,5
610,5.32366,4.888,-1,5
611,5.32853,4.875,-1,5
612,5.33339,4.863,-1,5
613,5.33824,4.843,-1,5
614,5.34306,4.825,-1,5
615,5.34787,4.808,-1,5
616,5.35266,4.793,-1,5
617,5.35744,4.779,-1,5
618,5.36220,4.745,-1,5
619,5.36695,4.745,-1,5
620,5.37167,4.722,-1,5
621,5.37638,4.706,-1,5
622,5.38107,4.690,-1,5
623,5.38574,4.677,-1,5
624,5.39040,4.657,-1,5
625,5.39965,4.615,-1,5
626,5.40425,4.600,-1,5
627,5.40883,4.584,-1,5
628,5.41340,4.569,-1,5
629,5.41795,4.547,-1,5
630,5.42248,4.529,-1,5
631,5.42698,4.508,-1,5
632,5.43148,4.494,-1,5
633,5.43596,4.483,-1,5
634,5.44042,4.462,-1,5
635,5.44486,4.441,-1,5
636,5.44928,4.421,-1,5
637,5.45369,4.406,-1,5
638,5.45808,4.389,-1,5
639,5.46245,4.371,-1,5
640,5.46680,4.350,-1,5
641,5.47114,4.334,-1,5
642,5.47545,4.313,-1,5
643,5.47975,4.299,-1,5
644,5.48403,4.280,-1,5
645,5.48829,4.258,-1,5
646,5.49253,4.245,-1,5
647,5.49676,4.231,-1,5
648,5.50097,4.212,-1,5
649,5.50516,4.188,-1,5
650,5.50933,4.172,-1,5
651,5.51349,4.157,-1,5
652,5.51763,4.143,-1,5
653,5.52175,4.122,-1,5
654,5.52586,4.104,-1,5
655,5.52994,4.086,-1,5
656,5.53401,4.071,-1,5
657,5.53807,4.053,-1,5
658,5.54211,4.039,-1,5
659,5.54612,4.015,-1,5
660,5.55012,4.003,-1,5
661,5.55411,3.986,-1,5
662,5.55808,3.973,-1,5
663,5.56204,3.952,-1,5
664,5.56597,3.922,-1,5
665,5.57380,3.907,-1,5
666,5.57769,3.892,-1,5
667,5.58156,3.872,-1,5
668,5.58542,3.856,-1,5
669,5.58926,3.843,-1,5
670,5.59309,3.827,-1,5
671,5.59690,3.809,-1,5
672,5.60069,3.792,-1,5
673,5.60447,3.777,-1,5
674,5.60823,3.764,-1,5
675,5.61198,3.749,-1,5
676,5.61571,3.729,-1,5
677,5.61942,3.716,-1,5
678,5.62312,3.701,-1,5
679,5.62681,3.690,-1,5
680,5.63048,3.669,-1,5
681,5.63414,3.659,-1,5
682,5.63779,3.642,-1,5
683,5.64142,3.632,-1,5
684,5.64504,3.617,-1,5
685,5.64864,3.603,-1,5
686,5.65223,3.587,-1,5
687,5.65580,3.575,-1,5
688,5.65936,3.559,-1,5
689,5.66291,3.548,-1,5
690,5.66644,3.534,-1,5
691,5.66996,3.520,-1,5
692,5.67347,3.506,-1,5
693,5.67695,3.487,-1,5
694,5.68043,3.481,-1,5
695,5.68390,3.468,-1,5
696,5.68735,3.450,-1,5
697,5.69079,3.437,-1,5
698,5.69422,3.428,-1,5
699,5.69763,3.412,-1,5
700,5.70103,3.401,-1,5
701,5.70442,3.388,-1,5
702,5.70779,3.374,-1,5
703,5.71116,3.364,-1,5
704,5.71451,3.351,-1,5
705,5.72118,3.329,-1,5
706,5.72449,3.313,-1,5
707,5.72780,3.307,-1,5
708,5.73109,3.294,-1,5
709,5.73437,3.281,-1,5
710,5.73764,3.272,-1,5
711,5.74090,3.260,-1,5
712,5.74415,3.253,-1,5
713,5.74740,3.244,-1,5
714,5.75063,3.232,-1,5
715,5.75385,3.219,-1,5
716,5.75706,3.213,-1,5
717,5.76027,3.208,-1,5
718,5.76347,3.198,-1,5
719,5.76666,3.189,-1,5
720,5.76984,3.184,-1,5
721,5.77302,3.174,-1,5
722,5.77619,3.175,-1,5
723,5.77936,3.165,-1,5
724,5.78251,3.158,-1,5
725,5.78567,3.154,-1,5
726,5.78882,3.153,-1,5
727,5.79197,3.149,-1,5
728,5.79511,3.141,-1,5
729,5.79825,3.142,-1,5
730,5.80139,3.140,-1,5
731,5.80453,3.140,-1,5
732,5.80767,3.141,-1,5
733,5.81081,3.136,-1,5
734,5.81395,3.136,-1,5
735,5.81709,3.143,-1,5
736,5.82023,3.144,-1,5
737,5.82339,3.152,-1,5
738,5.82653,3.148,-1,5
739,5.82969,3.155,-1,5
740,5.83286,3.165,-1,5
741,5.83603,3.172,-1,5
742,5.83920,3.178,-1,5
743,5.84239,3.187,-1,5
744,5.84559,3.199,-1,5
745,5.84880,3.210,-1,5
746,5.85202,3.239,-1,5
747,5.85851,3.249,-1,5
748,5.85851,3.269,-1,5
749,5.86178,3.286,-1,5
750,5.86507,3.304,-1,5
751,5.87169,3.324,-1,5
752,5.87169,3.342,-1,5
753,5.87504,3.369,-1,5
754,5.87841,3.390,-1,5
755,5.88521,3.414,-1,5
756,5.88865,3.440,-1,5
757,5.89212,3.469,-1,5
758,5.89561,3.496,-1,5
759,5.89914,3.530,-1,5
760,5.90270,3.558,-1,5
761,5.90629,3.588,-1,5
762,5.90991,3.625,-1,5
763,5.91357,3.661,-1,5
764,5.91727,3.700,-1,5
765,5.92101,3.733,-1,5
766,5.92478,3.776,-1,5
767,5.92860,3.813,-1,5
768,5.93245,3.857,-1,5
769,5.93635,3.899,-1,5
770,5.94029,3.940,-1,5
771,5.94428,3.986,-1,5
772,5.94831,4.035,-1,5
773,5.95239,4.082,-1,5
774,5.95652,4.127,-1,5
775,5.96069,4.172,-1,5
776,5.96492,4.222,-1,5
777,5.96919,4.278,-1,5
778,5.97352,4.329,-1,5
779,5.97790,4.378,-1,5
780,5.98233,4.431,-1,5
781,5.98682,4.488,-1,5
782,5.99136,4.539,-1,5
783,5.99595,4.594,-1,5
784,6.00060,4.647,-1,5
785,6.01006,4.755,-1,5
786,6.01487,4.810,-1,5
787,6.01973,4.862,-1,5
788,6.02465,4.916,-1,5
789,6.02961,4.966,-1,5
790,6.03463,5.019,-1,5
791,6.03970,5.066,-1,5
792,6.04481,5.114,-1,5
793,6.04997,5.163,-1,5
794,6.05519,5.212,-1,5
795,6.06044,5.256,-1,5
796,6.06574,5.298,-1,5
797,6.07109,5.344,-1,5
798,6.07646,5.378,-1,5
799,6.08189,5.422,-1,5
800,6.08734,5.457,-1,5
801,6.09284,5.496,-1,5
802,6.09836,5.526,-1,5
803,6.10392,5.557,-1,5
804,6.10951,5.588,-1,5
805,6.11513,5.619,-1,5
806,6.12077,5.647,-1,5
807,6.12645,5.672,-1,5
808,6.13214,5.693,-1,5
809,6.13786,5.717,-1,5
810,6.14360,5.739,-1,5
811,6.14935,5.758,-1,5
812,6.15513,5.776,-1,5
813,6.16092,5.792,-1,5
814,6.16672,5.803,-1,5
815,6.17254,5.816,-1,5
816,6.17837,5.830,-1,5
817,6.18421,5.840,-1,5
818,6.19006,5.848,-1,5
819,6.19591,5.853,-1,5
820,6.20177,5.862,-1,5
821,6.20764,5.867,-1,5
822,6.21938,5.871,-1,5
823,6.22525,5.870,-1,5
824,6.23113,5.872,-1,5
825,6.23700,5.876,-1,5
826,6.24287,5.870,-1,5
827,6.24873,5.857,-1,5
828,6.25458,5.853,-1,5
829,6.26044,5.853,-1,5
830,6.26628,5.849,-1,5
831,6.27213,5.842,-1,5
832,6.27796,5.830,-1,5
833,6.28377,5.814,-1,5
834,6.28958,5.812,-1,5
835,6.29539,5.806,-1,5
836,6.30119,5.798,-1,5
837,6.30696,5.776,-1,5
838,6.31272,5.762,-1,5
839,6.31847,5.748,-1,5
840,6.32422,5.745,-1,5
841,6.32995,5.730,-1,5
842,6.33566,5.709,-1,5
843,6.34134,5.687,-1,5
844,6.34702,5.680,-1,5
845,6.35270,5.674,-1,5
846,6.35835,5.653,-1,5
847,6.36398,5.626,-1,5
848,6.36959,5.608,-1,5
849,6.37519,5.600,-1,5
850,6.38077,5.584,-1,5
851,6.38633,5.559,-1,5
852,6.39186,5.534,-1,5
853,6.39738,5.520,-1,5
854,6.40289,5.508,-1,5
855,6.40838,5.491,-1,5
856,6.41384,5.463,-1,5
857,6.41929,5.442,-1,5
858,6.42471,5.425,-1,5
859,6.43012,5.412,-1,5
860,6.43551,5.392,-1,5
861,6.44088,5.366,-1,5
862,6.44622,5.342,-1,5
863,6.45686,5.313,-1,5
864,6.46214,5.284,-1,5
865,6.46741,5.263,-1,5
866,6.47265,5.240,-1,5
867,6.47787,5.228,-1,5
868,6.48308,5.210,-1,5
869,6.48827,5.186,-1,5
870,6.49343,5.162,-1,5
871,6.49858,5.146,-1,5
872,6.50371,5.128,-1,5
873,6.50882,5.111,-1,5
