cnt,pos,speed,Dir,Force,
1,3.36408,1.007,-1,5
2,3.36508,1.005,-1,5
3,3.36608,1.000,-1,5
4,3.36708,1.002,-1,5
5,3.36811,1.022,-1,5
6,3.36914,1.035,-1,5
7,3.37017,1.032,-1,5
8,3.37120,1.022,-1,5
9,3.37222,1.029,-1,5
10,3.37328,1.053,-1,5
11,3.37434,1.065,-1,5
12,3.37540,1.059,-1,5
13,3.37645,1.049,-1,5
14,3.37751,1.064,-1,5
15,3.37860,1.089,-1,5
16,3.37970,1.094,-1,5
17,3.38078,1.081,-1,5
18,3.38186,1.081,-1,5
19,3.38296,1.104,-1,5
20,3.38409,1.126,-1,5
21,3.38521,1.122,-1,5
22,3.38632,1.109,-1,5
23,3.38744,1.117,-1,5
24,3.38858,1.144,-1,5
25,3.38974,1.155,-1,5
26,3.39088,1.147,-1,5
27,3.39203,1.143,-1,5
28,3.39319,1.160,-1,5
29,3.39436,1.178,-1,5
30,3.39554,1.179,-1,5
31,3.39672,1.179,-1,5
32,3.39791,1.187,-1,5
33,3.39911,1.200,-1,5
34,3.40032,1.209,-1,5
35,3.40153,1.216,-1,5
36,3.40276,1.221,-1,5
37,3.40398,1.225,-1,5
38,3.40521,1.233,-1,5
39,3.40646,1.248,-1,5
40,3.40772,1.264,-1,5
41,3.40899,1.262,-1,5
42,3.41025,1.262,-1,5
43,3.41152,1.274,-1,5
44,3.41281,1.290,-1,5
45,3.41411,1.300,-1,5
46,3.41542,1.304,-1,5
47,3.41673,1.312,-1,5
48,3.41805,1.320,-1,5
49,3.42072,1.337,-1,5
50,3.42206,1.349,-1,5
51,3.42342,1.356,-1,5
52,3.42478,1.363,-1,5
53,3.42616,1.377,-1,5
54,3.42754,1.383,-1,5
55,3.42893,1.386,-1,5
56,3.43033,1.398,-1,5
57,3.43174,1.417,-1,5
58,3.43317,1.423,-1,5
59,3.43459,1.428,-1,5
60,3.43603,1.435,-1,5
61,3.43747,1.445,-1,5
62,3.43893,1.457,-1,5
63,3.44040,1.471,-1,5
64,3.44188,1.482,-1,5
65,3.44336,1.479,-1,5
66,3.44485,1.489,-1,5
67,3.44636,1.508,-1,5
68,3.44788,1.517,-1,5
69,3.44940,1.525,-1,5
70,3.45093,1.526,-1,5
71,3.45246,1.534,-1,5
72,3.45401,1.552,-1,5
73,3.45558,1.567,-1,5
74,3.45715,1.571,-1,5
75,3.45872,1.567,-1,5
76,3.46030,1.577,-1,5
77,3.46189,1.613,-1,5
78,3.46512,1.617,-1,5
79,3.46673,1.609,-1,5
80,3.46835,1.617,-1,5
81,3.46998,1.636,-1,5
82,3.47164,1.651,-1,5
83,3.47329,1.657,-1,5
84,3.47494,1.652,-1,5
85,3.47660,1.651,-1,5
86,3.47827,1.672,-1,5
87,3.47996,1.689,-1,5
88,3.48165,1.691,-1,5
89,3.48333,1.686,-1,5
90,3.48502,1.687,-1,5
91,3.48672,1.701,-1,5
92,3.48844,1.721,-1,5
93,3.49016,1.720,-1,5
94,3.49188,1.715,-1,5
95,3.49360,1.718,-1,5
96,3.49533,1.735,-1,5
97,3.49708,1.749,-1,5
98,3.49882,1.743,-1,5
99,3.50056,1.734,-1,5
100,3.50231,1.750,-1,5
101,3.50407,1.767,-1,5
102,3.50584,1.765,-1,5
103,3.50760,1.759,-1,5
104,3.50935,1.757,-1,5
105,3.51114,1.781,-1,5
106,3.51293,1.792,-1,5
107,3.51471,1.778,-1,5
108,3.51648,1.772,-1,5
109,3.51826,1.783,-1,5
110,3.52007,1.808,-1,5
111,3.52188,1.807,-1,5
112,3.52367,1.790,-1,5
113,3.52545,1.788,-1,5
114,3.52727,1.814,-1,5
115,3.52909,1.825,-1,5
116,3.53091,1.818,-1,5
117,3.53271,1.802,-1,5
118,3.53453,1.813,-1,5
119,3.53636,1.834,-1,5
120,3.53820,1.834,-1,5
121,3.54002,1.826,-1,5
122,3.54184,1.821,-1,5
123,3.54368,1.833,-1,5
124,3.54552,1.847,-1,5
125,3.54736,1.840,-1,5
126,3.54920,1.840,-1,5
127,3.55104,1.842,-1,5
128,3.55289,1.849,-1,5
129,3.55659,1.850,-1,5
130,3.55659,1.855,-1,5
131,3.55844,1.854,-1,5
132,3.56030,1.854,-1,5
133,3.56214,1.848,-1,5
134,3.56400,1.851,-1,5
135,3.56771,1.863,-1,5
136,3.56957,1.857,-1,5
137,3.57142,1.846,-1,5
138,3.57327,1.853,-1,5
139,3.57513,1.863,-1,5
140,3.57700,1.869,-1,5
141,3.57886,1.853,-1,5
142,3.58070,1.844,-1,5
143,3.58256,1.858,-1,5
144,3.58442,1.866,-1,5
145,3.58628,1.860,-1,5
146,3.58813,1.849,-1,5
147,3.58998,1.854,-1,5
148,3.59368,1.853,-1,5
149,3.59553,1.850,-1,5
150,3.59738,1.848,-1,5
151,3.59922,1.838,-1,5
152,3.60106,1.839,-1,5
153,3.60290,1.841,-1,5
154,3.60474,1.843,-1,5
155,3.60658,1.840,-1,5
156,3.60841,1.827,-1,5
157,3.61023,1.827,-1,5
158,3.61206,1.827,-1,5
159,3.61389,1.832,-1,5
160,3.61572,1.828,-1,5
161,3.61753,1.809,-1,5
162,3.61933,1.799,-1,5
163,3.62114,1.811,-1,5
164,3.62295,1.815,-1,5
165,3.62476,1.809,-1,5
166,3.62655,1.787,-1,5
167,3.62833,1.783,-1,5
168,3.63012,1.789,-1,5
169,3.63192,1.797,-1,5
170,3.63370,1.785,-1,5
171,3.63548,1.773,-1,5
172,3.63724,1.762,-1,5
173,3.63901,1.769,-1,5
174,3.64078,1.772,-1,5
175,3.64254,1.766,-1,5
176,3.64430,1.758,-1,5
177,3.64605,1.745,-1,5
178,3.64779,1.743,-1,5
179,3.64954,1.748,-1,5
180,3.65128,1.745,-1,5
181,3.65303,1.743,-1,5
182,3.65476,1.730,-1,5
183,3.65648,1.721,-1,5
184,3.65820,1.724,-1,5
185,3.65993,1.730,-1,5
186,3.66166,1.731,-1,5
187,3.66338,1.715,-1,5
188,3.66508,1.699,-1,5
189,3.66678,1.707,-1,5
190,3.66850,1.719,-1,5
191,3.67022,1.718,-1,5
192,3.67192,1.703,-1,5
193,3.67361,1.685,-1,5
194,3.67530,1.689,-1,5
195,3.67700,1.707,-1,5
196,3.67870,1.703,-1,5
197,3.68040,1.690,-1,5
198,3.68207,1.680,-1,5
199,3.68376,1.682,-1,5
200,3.68545,1.694,-1,5
201,3.68714,1.694,-1,5
202,3.68882,1.681,-1,5
203,3.69050,1.679,-1,5
204,3.69218,1.679,-1,5
205,3.69387,1.682,-1,5
206,3.69555,1.685,-1,5
207,3.69891,1.678,-1,5
208,3.70059,1.683,-1,5
209,3.70059,1.679,-1,5
210,3.70227,1.678,-1,5
211,3.70563,1.679,-1,5
212,3.70563,1.682,-1,5
213,3.70900,1.687,-1,5
214,3.70900,1.683,-1,5
215,3.71068,1.673,-1,5
216,3.71235,1.681,-1,5
217,3.71572,1.690,-1,5
218,3.71742,1.694,-1,5
219,3.71911,1.690,-1,5
220,3.72079,1.682,-1,5
221,3.72248,1.690,-1,5
222,3.72418,1.700,-1,5
223,3.72588,1.702,-1,5
224,3.72758,1.696,-1,5
225,3.72928,1.701,-1,5
226,3.73098,1.706,-1,5
227,3.73440,1.708,-1,5
228,3.73440,1.708,-1,5
229,3.73611,1.708,-1,5
230,3.73783,1.722,-1,5
231,3.73956,1.729,-1,5
232,3.74128,1.722,-1,5
233,3.74301,1.721,-1,5
234,3.74473,1.728,-1,5
235,3.74823,1.752,-1,5
236,3.74997,1.740,-1,5
237,3.75171,1.740,-1,5
238,3.75346,1.750,-1,5
239,3.75523,1.771,-1,5
240,3.75701,1.778,-1,5
241,3.75878,1.766,-1,5
242,3.76054,1.765,-1,5
243,3.76232,1.779,-1,5
244,3.76412,1.796,-1,5
245,3.76592,1.802,-1,5
246,3.76772,1.797,-1,5
247,3.76951,1.793,-1,5
248,3.77132,1.808,-1,5
249,3.77314,1.824,-1,5
250,3.77498,1.834,-1,5
251,3.77680,1.828,-1,5
252,3.77863,1.826,-1,5
253,3.78047,1.842,-1,5
254,3.78233,1.855,-1,5
255,3.78419,1.864,-1,5
256,3.78606,1.865,-1,5
257,3.78792,1.863,-1,5
258,3.78979,1.872,-1,5
259,3.79168,1.887,-1,5
260,3.79358,1.902,-1,5
261,3.79548,1.902,-1,5
262,3.79738,1.895,-1,5
263,3.79928,1.904,-1,5
264,3.80121,1.928,-1,5
265,3.80315,1.942,-1,5
266,3.80509,1.935,-1,5
267,3.80701,1.927,-1,5
268,3.80896,1.945,-1,5
269,3.81093,1.969,-1,5
270,3.81291,1.979,-1,5
271,3.81487,1.968,-1,5
272,3.81684,1.966,-1,5
273,3.81883,1.989,-1,5
274,3.82084,2.006,-1,5
275,3.82285,2.011,-1,5
276,3.82485,2.006,-1,5
277,3.82686,2.011,-1,5
278,3.82889,2.025,-1,5
279,3.83094,2.045,-1,5
280,3.83299,2.052,-1,5
281,3.83503,2.046,-1,5
282,3.83708,2.050,-1,5
283,3.83915,2.065,-1,5
284,3.84124,2.090,-1,5
285,3.84333,2.094,-1,5
286,3.84542,2.084,-1,5
287,3.84750,2.086,-1,5
288,3.85175,2.135,-1,5
289,3.85175,2.131,-1,5
290,3.85388,2.122,-1,5
291,3.85600,2.122,-1,5
292,3.85814,2.135,-1,5
293,3.86030,2.160,-1,5
294,3.86247,2.171,-1,5
295,3.86681,2.169,-1,5
296,3.86899,2.180,-1,5
297,3.87119,2.203,-1,5
298,3.87341,2.218,-1,5
299,3.87562,2.214,-1,5
300,3.87783,2.208,-1,5
301,3.88006,2.229,-1,5
302,3.88231,2.253,-1,5
303,3.88457,2.256,-1,5
304,3.88682,2.251,-1,5
305,3.88908,2.261,-1,5
306,3.89136,2.293,-1,5
307,3.89595,2.294,-1,5
308,3.89825,2.302,-1,5
309,3.90056,2.311,-1,5
310,3.90288,2.320,-1,5
311,3.90522,2.337,-1,5
312,3.90756,2.343,-1,5
313,3.90991,2.345,-1,5
314,3.91226,2.354,-1,5
315,3.91463,2.370,-1,5
316,3.91701,2.379,-1,5
317,3.91940,2.386,-1,5
318,3.92179,2.392,-1,5
319,3.92419,2.396,-1,5
320,3.92660,2.417,-1,5
321,3.92903,2.428,-1,5
322,3.93146,2.430,-1,5
323,3.93389,2.430,-1,5
324,3.93634,2.450,-1,5
325,3.93880,2.462,-1,5
326,3.94127,2.468,-1,5
327,3.94374,2.471,-1,5
328,3.94622,2.482,-1,5
329,3.94872,2.494,-1,5
330,3.95123,2.508,-1,5
331,3.95374,2.513,-1,5
332,3.95626,2.517,-1,5
333,3.95878,2.527,-1,5
334,3.96132,2.539,-1,5
335,3.96387,2.549,-1,5
336,3.96643,2.557,-1,5
337,3.96899,2.564,-1,5
338,3.97156,2.570,-1,5
339,3.97414,2.582,-1,5
340,3.97674,2.595,-1,5
341,3.97934,2.599,-1,5
342,3.98194,2.604,-1,5
343,3.98456,2.618,-1,5
344,3.98719,2.626,-1,5
345,3.98982,2.631,-1,5
346,3.99246,2.642,-1,5
347,3.99511,2.651,-1,5
348,3.99777,2.659,-1,5
349,4.00043,2.663,-1,5
350,4.00311,2.676,-1,5
351,4.00579,2.683,-1,5
352,4.00848,2.689,-1,5
353,4.01118,2.699,-1,5
354,4.01388,2.707,-1,5
355,4.01660,2.715,-1,5
356,4.01932,2.718,-1,5
357,4.02205,2.730,-1,5
358,4.02478,2.738,-1,5
359,4.02752,2.740,-1,5
360,4.03028,2.751,-1,5
361,4.03303,2.758,-1,5
362,4.03579,2.762,-1,5
363,4.03857,2.771,-1,5
364,4.04135,2.780,-1,5
365,4.04413,2.782,-1,5
366,4.04692,2.788,-1,5
367,4.04971,2.799,-1,5
368,4.05251,2.800,-1,5
369,4.05532,2.814,-1,5
370,4.05813,2.814,-1,5
371,4.06095,2.826,-1,5
372,4.06378,2.826,-1,5
373,4.06944,2.836,-1,5
374,4.07228,2.843,-1,5
375,4.07513,2.842,-1,5
376,4.07798,2.851,-1,5
377,4.08083,2.857,-1,5
378,4.08369,2.860,-1,5
379,4.08656,2.864,-1,5
380,4.08943,2.869,-1,5
381,4.09230,2.874,-1,5
382,4.09518,2.882,-1,5
383,4.09806,2.882,-1,5
384,4.10095,2.885,-1,5
385,4.10384,2.891,-1,5
386,4.10674,2.898,-1,5
387,4.10964,2.902,-1,5
388,4.11254,2.902,-1,5
389,4.11545,2.906,-1,5
390,4.11836,2.913,-1,5
391,4.12128,2.917,-1,5
392,4.12420,2.918,-1,5
393,4.12712,2.924,-1,5
394,4.13005,2.932,-1,5
395,4.13592,2.936,-1,5
396,4.13885,2.938,-1,5
397,4.14179,2.941,-1,5
398,4.14474,2.948,-1,5
399,4.14769,2.952,-1,5
400,4.15065,2.952,-1,5
401,4.15360,2.956,-1,5
402,4.15657,2.965,-1,5
403,4.15953,2.966,-1,5
404,4.16250,2.970,-1,5
405,4.16548,2.973,-1,5
406,4.16845,2.976,-1,5
407,4.17143,2.981,-1,5
408,4.17442,2.986,-1,5
409,4.17741,2.986,-1,5
410,4.18039,2.988,-1,5
411,4.18339,2.997,-1,5
412,4.18639,2.996,-1,5
413,4.18938,2.998,-1,5
414,4.19239,3.001,-1,5
415,4.19539,3.005,-1,5
416,4.19840,3.005,-1,5
417,4.20141,3.009,-1,5
418,4.20442,3.012,-1,5
419,4.20743,3.011,-1,5
420,4.21044,3.017,-1,5
421,4.21346,3.018,-1,5
422,4.21648,3.018,-1,5
423,4.21950,3.021,-1,5
424,4.22252,3.023,-1,5
425,4.22555,3.022,-1,5
426,4.22857,3.027,-1,5
427,4.23160,3.026,-1,5
428,4.23463,3.027,-1,5
429,4.23766,3.030,-1,5
430,4.24069,3.030,-1,5
431,4.24372,3.029,-1,5
432,4.24674,3.028,-1,5
433,4.24978,3.033,-1,5
434,4.25281,3.033,-1,5
435,4.25584,3.033,-1,5
436,4.25888,3.033,-1,5
437,4.26191,3.032,-1,5
438,4.26494,3.031,-1,5
439,4.26798,3.036,-1,5
440,4.27101,3.033,-1,5
441,4.27404,3.032,-1,5
442,4.27707,3.034,-1,5
443,4.28011,3.037,-1,5
444,4.28315,3.036,-1,5
445,4.28618,3.036,-1,5
446,4.28922,3.035,-1,5
447,4.29225,3.036,-1,5
448,4.29529,3.038,-1,5
449,4.29833,3.041,-1,5
450,4.30137,3.039,-1,5
451,4.30441,3.039,-1,5
452,4.30745,3.040,-1,5
453,4.31354,3.045,-1,5
454,4.31658,3.044,-1,5
455,4.31962,3.041,-1,5
456,4.32267,3.043,-1,5
457,4.32571,3.044,-1,5
458,4.32875,3.044,-1,5
459,4.33180,3.046,-1,5
460,4.33484,3.043,-1,5
461,4.33788,3.042,-1,5
462,4.34093,3.044,-1,5
463,4.34397,3.046,-1,5
464,4.34702,3.044,-1,5
465,4.35006,3.040,-1,5
466,4.35310,3.042,-1,5
467,4.35614,3.042,-1,5
468,4.35919,3.042,-1,5
469,4.36223,3.045,-1,5
470,4.36831,3.039,-1,5
471,4.37135,3.042,-1,5
472,4.37439,3.040,-1,5
473,4.37744,3.041,-1,5
474,4.38048,3.039,-1,5
475,4.38351,3.038,-1,5
476,4.38655,3.036,-1,5
477,4.38959,3.038,-1,5
478,4.39263,3.039,-1,5
479,4.39566,3.033,-1,5
480,4.39869,3.034,-1,5
481,4.40173,3.034,-1,5
482,4.40476,3.030,-1,5
483,4.40779,3.032,-1,5
484,4.41082,3.032,-1,5
485,4.41385,3.027,-1,5
486,4.41687,3.028,-1,5
487,4.41990,3.027,-1,5
488,4.42293,3.027,-1,5
489,4.42595,3.024,-1,5
490,4.42897,3.021,-1,5
491,4.43199,3.020,-1,5
492,4.43501,3.020,-1,5
493,4.43804,3.020,-1,5
494,4.44105,3.017,-1,5
495,4.44406,3.011,-1,5
496,4.44707,3.011,-1,5
497,4.45009,3.012,-1,5
498,4.45309,3.008,-1,5
499,4.45610,3.006,-1,5
500,4.45910,2.999,-1,5
501,4.46209,2.995,-1,5
502,4.46509,2.996,-1,5
503,4.46808,2.994,-1,5
504,4.47107,2.987,-1,5
505,4.47406,2.983,-1,5
506,4.47703,2.978,-1,5
507,4.48001,2.975,-1,5
508,4.48298,2.974,-1,5
509,4.48595,2.969,-1,5
510,4.48891,2.960,-1,5
511,4.49187,2.956,-1,5
512,4.49483,2.958,-1,5
513,4.49778,2.950,-1,5
514,4.50072,2.944,-1,5
515,4.50366,2.943,-1,5
516,4.50660,2.935,-1,5
517,4.50953,2.929,-1,5
518,4.51246,2.932,-1,5
519,4.51538,2.921,-1,5
520,4.51830,2.917,-1,5
521,4.52121,2.913,-1,5
522,4.52412,2.907,-1,5
523,4.52702,2.902,-1,5
524,4.52992,2.898,-1,5
525,4.53281,2.893,-1,5
526,4.53570,2.889,-1,5
527,4.53858,2.881,-1,5
528,4.54146,2.877,-1,5
529,4.54433,2.871,-1,5
530,4.54720,2.868,-1,5
531,4.55006,2.856,-1,5
532,4.55292,2.856,-1,5
533,4.55861,2.848,-1,5
534,4.56146,2.843,-1,5
535,4.56430,2.840,-1,5
536,4.56713,2.835,-1,5
537,4.56996,2.825,-1,5
538,4.57278,2.823,-1,5
539,4.57560,2.818,-1,5
540,4.57841,2.816,-1,5
541,4.58122,2.811,-1,5
542,4.58402,2.800,-1,5
543,4.58682,2.796,-1,5
544,4.58961,2.794,-1,5
545,4.59241,2.791,-1,5
546,4.59519,2.785,-1,5
547,4.59797,2.779,-1,5
548,4.60074,2.769,-1,5
549,4.60350,2.766,-1,5
550,4.60627,2.765,-1,5
551,4.60903,2.759,-1,5
552,4.61178,2.751,-1,5
553,4.61452,2.745,-1,5
554,4.61726,2.740,-1,5
555,4.62000,2.738,-1,5
556,4.62273,2.731,-1,5
557,4.62546,2.728,-1,5
558,4.62818,2.716,-1,5
559,4.63361,2.712,-1,5
560,4.63632,2.709,-1,5
561,4.63902,2.702,-1,5
562,4.64172,2.700,-1,5
563,4.64442,2.700,-1,5
564,4.64711,2.693,-1,5
565,4.64980,2.689,-1,5
566,4.65249,2.689,-1,5
567,4.65518,2.686,-1,5
568,4.65786,2.684,-1,5
569,4.66054,2.683,-1,5
570,4.66322,2.681,-1,5
571,4.66590,2.678,-1,5
572,4.66858,2.677,-1,5
573,4.67126,2.680,-1,5
574,4.67394,2.680,-1,5
575,4.67662,2.680,-1,5
576,4.67930,2.676,-1,5
577,4.68198,2.683,-1,5
578,4.68466,2.683,-1,5
579,4.68734,2.681,-1,5
580,4.69003,2.689,-1,5
581,4.69273,2.694,-1,5
582,4.69542,2.692,-1,5
583,4.69811,2.695,-1,5
584,4.70082,2.707,-1,5
585,4.70353,2.709,-1,5
586,4.70624,2.712,-1,5
587,4.70896,2.720,-1,5
588,4.71169,2.726,-1,5
589,4.71442,2.734,-1,5
590,4.71716,2.742,-1,5
591,4.71991,2.750,-1,5
592,4.72267,2.762,-1,5
593,4.72544,2.767,-1,5
594,4.72822,2.780,-1,5
595,4.73102,2.793,-1,5
596,4.73381,2.799,-1,5
597,4.73663,2.813,-1,5
598,4.73946,2.830,-1,5
599,4.74230,2.837,-1,5
600,4.74515,2.850,-1,5
601,4.74801,2.869,-1,5
602,4.75089,2.880,-1,5
603,4.75379,2.897,-1,5
604,4.75670,2.913,-1,5
605,4.75963,2.928,-1,5
606,4.76257,2.943,-1,5
607,4.76553,2.961,-1,5
608,4.76851,2.978,-1,5
609,4.77151,3.000,-1,5
610,4.77756,3.037,-1,5
611,4.77756,3.053,-1,5
612,4.78062,3.073,-1,5
613,4.78369,3.073,-1,5
614,4.78679,3.098,-1,5
615,4.78991,3.118,-1,5
616,4.79304,3.158,-1,5
617,4.79620,3.183,-1,5
618,4.80259,3.205,-1,5
619,4.80581,3.224,-1,5
620,4.80906,3.249,-1,5
621,4.81233,3.271,-1,5
622,4.81563,3.296,-1,5
623,4.81895,3.321,-1,5
624,4.82229,3.341,-1,5
625,4.82566,3.366,-1,5
626,4.82904,3.387,-1,5
627,4.83246,3.418,-1,5
628,4.83590,3.438,-1,5
629,4.83936,3.485,-1,5
630,4.84636,3.513,-1,5
631,4.84990,3.536,-1,5
632,4.85346,3.559,-1,5
633,4.85704,3.583,-1,5
634,4.86065,3.608,-1,5
635,4.86428,3.635,-1,5
636,4.86794,3.654,-1,5
637,4.87162,3.680,-1,5
638,4.87532,3.701,-1,5
639,4.87905,3.729,-1,5
640,4.88280,3.752,-1,5
641,4.88657,3.772,-1,5
642,4.89036,3.791,-1,5
643,4.89418,3.814,-1,5
644,4.89802,3.843,-1,5
645,4.90188,3.863,-1,5
646,4.90576,3.880,-1,5
647,4.90966,3.901,-1,5
648,4.91359,3.925,-1,5
649,4.91753,3.945,-1,5
650,4.92149,3.962,-1,5
651,4.92547,3.980,-1,5
652,4.92948,4.003,-1,5
653,4.93350,4.022,-1,5
654,4.93754,4.037,-1,5
655,4.94159,4.052,-1,5
656,4.94566,4.072,-1,5
657,4.94974,4.085,-1,5
658,4.95385,4.102,-1,5
659,4.95796,4.113,-1,5
660,4.96209,4.126,-1,5
661,4.96623,4.141,-1,5
662,4.97038,4.152,-1,5
663,4.97454,4.161,-1,5
664,4.97871,4.171,-1,5
665,4.98289,4.180,-1,5
666,4.98708,4.188,-1,5
667,4.99127,4.196,-1,5
668,4.99548,4.203,-1,5
669,4.99969,4.210,-1,5
670,5.00390,4.214,-1,5
671,5.00812,4.218,-1,5
672,5.01234,4.222,-1,5
673,5.01657,4.228,-1,5
674,5.02080,4.228,-1,5
675,5.02502,4.226,-1,5
676,5.02925,4.227,-1,5
677,5.03348,4.230,-1,5
678,5.03770,4.226,-1,5
679,5.04193,4.225,-1,5
680,5.04615,4.225,-1,5
681,5.05038,4.223,-1,5
682,5.05459,4.216,-1,5
683,5.05881,4.214,-1,5
684,5.06302,4.212,-1,5
685,5.06722,4.206,-1,5
686,5.07143,4.204,-1,5
687,5.07563,4.201,-1,5
688,5.07983,4.196,-1,5
689,5.08820,4.182,-1,5
690,5.09237,4.177,-1,5
691,5.09654,4.169,-1,5
692,5.10071,4.166,-1,5
693,5.10487,4.158,-1,5
694,5.10901,4.148,-1,5
695,5.11315,4.136,-1,5
696,5.11728,4.134,-1,5
697,5.12141,4.126,-1,5
698,5.12553,4.118,-1,5
699,5.12964,4.107,-1,5
700,5.13374,4.103,-1,5
701,5.13783,4.090,-1,5
702,5.14191,4.081,-1,5
703,5.14598,4.072,-1,5
704,5.15005,4.066,-1,5
705,5.15410,4.057,-1,5
706,5.15815,4.047,-1,5
707,5.16219,4.037,-1,5
708,5.16622,4.027,-1,5
709,5.17023,4.008,-1,5
710,5.17823,3.995,-1,5
711,5.18222,3.984,-1,5
712,5.18620,3.977,-1,5
713,5.19016,3.965,-1,5
714,5.19411,3.954,-1,5
715,5.19806,3.941,-1,5
716,5.20199,3.932,-1,5
717,5.20591,3.919,-1,5
718,5.20982,3.913,-1,5
719,5.21372,3.902,-1,5
720,5.21761,3.891,-1,5
721,5.22149,3.878,-1,5
722,5.22536,3.869,-1,5
723,5.22922,3.857,-1,5
724,5.23307,3.849,-1,5
725,5.23690,3.834,-1,5
726,5.24073,3.825,-1,5
727,5.24454,3.812,-1,5
728,5.24834,3.803,-1,5
729,5.25213,3.793,-1,5
730,5.25591,3.779,-1,5
731,5.25968,3.769,-1,5
732,5.26344,3.756,-1,5
733,5.26719,3.747,-1,5
734,5.27092,3.735,-1,5
735,5.27464,3.723,-1,5
736,5.27836,3.714,-1,5
737,5.28206,3.702,-1,5
738,5.28575,3.692,-1,5
739,5.28943,3.682,-1,5
740,5.29310,3.664,-1,5
741,5.29676,3.657,-1,5
742,5.30040,3.645,-1,5
743,5.30404,3.638,-1,5
744,5.30766,3.622,-1,5
745,5.31127,3.605,-1,5
746,5.31486,3.596,-1,5
747,5.31845,3.587,-1,5
748,5.32203,3.576,-1,5
749,5.32559,3.560,-1,5
750,5.32913,3.547,-1,5
751,5.33267,3.534,-1,5
752,5.33619,3.527,-1,5
753,5.33971,3.514,-1,5
754,5.34321,3.501,-1,5
755,5.34669,3.484,-1,5
756,5.35017,3.476,-1,5
757,5.35363,3.462,-1,5
758,5.35709,3.456,-1,5
759,5.36052,3.438,-1,5
760,5.36395,3.425,-1,5
761,5.36736,3.413,-1,5
762,5.37076,3.401,-1,5
763,5.37415,3.391,-1,5
764,5.37753,3.374,-1,5
765,5.38089,3.362,-1,5
766,5.38424,3.349,-1,5
767,5.38757,3.324,-1,5
768,5.39420,3.308,-1,5
769,5.39750,3.296,-1,5
770,5.40078,3.283,-1,5
771,5.40405,3.267,-1,5
772,5.40731,3.259,-1,5
773,5.41055,3.243,-1,5
774,5.41378,3.231,-1,5
775,5.41700,3.215,-1,5
776,5.42020,3.202,-1,5
777,5.42339,3.189,-1,5
778,5.42657,3.177,-1,5
779,5.42973,3.149,-1,5
780,5.43288,3.139,-1,5
781,5.43602,3.124,-1,5
782,5.43915,3.124,-1,5
783,5.44226,3.111,-1,5
784,5.44536,3.104,-1,5
785,5.45152,3.070,-1,5
786,5.45458,3.062,-1,5
787,5.45763,3.048,-1,5
788,5.46066,3.038,-1,5
789,5.46369,3.024,-1,5
790,5.46670,3.010,-1,5
791,5.46970,2.997,-1,5
792,5.47268,2.988,-1,5
793,5.47566,2.975,-1,5
794,5.47862,2.963,-1,5
795,5.48157,2.951,-1,5
796,5.48451,2.940,-1,5
797,5.48744,2.931,-1,5
798,5.49036,2.919,-1,5
799,5.49327,2.912,-1,5
800,5.49617,2.896,-1,5
801,5.49906,2.887,-1,5
802,5.50194,2.879,-1,5
803,5.50481,2.871,-1,5
804,5.50767,2.859,-1,5
805,5.51052,2.851,-1,5
806,5.51336,2.841,-1,5
807,5.51619,2.834,-1,5
808,5.51902,2.824,-1,5
809,5.52184,2.820,-1,5
810,5.52465,2.811,-1,5
811,5.52745,2.800,-1,5
812,5.53025,2.799,-1,5
813,5.53304,2.793,-1,5
814,5.53582,2.782,-1,5
815,5.53860,2.780,-1,5
816,5.54138,2.777,-1,5
817,5.54415,2.768,-1,5
818,5.54691,2.767,-1,5
819,5.54968,2.766,-1,5
820,5.55244,2.762,-1,5
821,5.55520,2.759,-1,5
822,5.55796,2.758,-1,5
823,5.56071,2.755,-1,5
824,5.56347,2.759,-1,5
825,5.56623,2.757,-1,5
826,5.56899,2.758,-1,5
827,5.57175,2.760,-1,5
828,5.57450,2.757,-1,5
829,5.57727,2.766,-1,5
830,5.58004,2.771,-1,5
831,5.58281,2.767,-1,5
832,5.58558,2.775,-1,5
833,5.58837,2.783,-1,5
834,5.59115,2.784,-1,5
835,5.59394,2.791,-1,5
836,5.59674,2.800,-1,5
837,5.59954,2.805,-1,5
838,5.60236,2.823,-1,5
839,5.60518,2.823,-1,5
840,5.60801,2.841,-1,5
841,5.61085,2.841,-1,5
842,5.61370,2.849,-1,5
843,5.61656,2.864,-1,5
844,5.61944,2.874,-1,5
845,5.62232,2.883,-1,5
846,5.62814,2.915,-1,5
847,5.63107,2.926,-1,5
848,5.63401,2.945,-1,5
849,5.63697,2.960,-1,5
850,5.63994,2.973,-1,5
851,5.64294,2.998,-1,5
852,5.64595,3.010,-1,5
853,5.64898,3.030,-1,5
854,5.65203,3.049,-1,5
855,5.65510,3.068,-1,5
856,5.65818,3.084,-1,5
857,5.66129,3.111,-1,5
858,5.66442,3.131,-1,5
859,5.66757,3.152,-1,5
860,5.67075,3.176,-1,5
861,5.67395,3.195,-1,5
862,5.67717,3.221,-1,5
863,5.68042,3.250,-1,5
864,5.68369,3.273,-1,5
865,5.68698,3.292,-1,5
866,5.69031,3.323,-1,5
867,5.69365,3.349,-1,5
868,5.69703,3.377,-1,5
869,5.70043,3.402,-1,5
870,5.70387,3.432,-1,5
871,5.70732,3.457,-1,5
872,5.71081,3.492,-1,5
873,5.71433,3.517,-1,5
