cnt,pos,speed,Dir,Force,
1,0,1.0034,-1,1
2,0.00108004,1.0178,-1,1
3,0.00217009,1.0326,-1,1
4,0.00328016,1.0461,-1,1
5,0.00440025,1.0592,-1,1
6,0.00552988,1.0721,-1,1
7,0.00667,1.085,-1,1
8,0.00782013,1.0981,-1,1
9,0.00898981,1.1113,-1,1
10,0.01017,1.124,-1,1
11,0.0113602,1.1361,-1,1
12,0.0125499,1.1474,-1,1
13,0.0137401,1.1573,-1,1
14,0.0149498,1.1668,-1,1
15,0.01616,1.1761,-1,1
16,0.0173802,1.1854,-1,1
17,0.01861,1.1942,-1,1
18,0.0198402,1.2015,-1,1
19,0.02107,1.2078,-1,1
20,0.0223103,1.2139,-1,1
21,0.02356,1.2206,-1,1
22,0.0248299,1.2279,-1,1
23,0.0261002,1.2357,-1,1
24,0.02737,1.2421,-1,1
25,0.0286398,1.2477,-1,1
26,0.0299101,1.2527,-1,1
27,0.0311899,1.2582,-1,1
28,0.0324903,1.2652,-1,1
29,0.0338001,1.2726,-1,1
30,0.0351,1.2791,-1,1
31,0.0363998,1.2842,-1,1
32,0.0377102,1.2884,-1,1
33,0.0390201,1.2924,-1,1
34,0.0403399,1.2977,-1,1
35,0.0416799,1.304,-1,1
36,0.0430102,1.3102,-1,1
37,0.0443501,1.3154,-1,1
38,0.04568,1.3189,-1,1
39,0.04702,1.3218,-1,1
40,0.0483599,1.3261,-1,1
41,0.0497198,1.3318,-1,1
42,0.0510902,1.3378,-1,1
43,0.0524502,1.3429,-1,1
44,0.0538101,1.3467,-1,1
45,0.0551701,1.3495,-1,1
46,0.05654,1.353,-1,1
47,0.05792,1.3575,-1,1
48,0.05931,1.3629,-1,1
49,0.0606899,1.3675,-1,1
50,0.0620699,1.3703,-1,1
51,0.0634398,1.3713,-1,1
52,0.0648198,1.3726,-1,1
53,0.0662003,1.375,-1,1
54,0.0676003,1.3783,-1,1
55,0.0689802,1.381,-1,1
56,0.0703602,1.3821,-1,1
57,0.0717402,1.3815,-1,1
58,0.0731201,1.3808,-1,1
59,0.0745001,1.3813,-1,1
60,0.0758901,1.3826,-1,1
61,0.07727,1.3835,-1,1
62,0.07864,1.3829,-1,1
63,0.0800099,1.3811,-1,1
64,0.0813899,1.3793,-1,1
65,0.0827599,1.3783,-1,1
66,0.0841398,1.3778,-1,1
67,0.0855103,1.3772,-1,1
68,0.0868702,1.3754,-1,1
69,0.0882301,1.373,-1,1
70,0.0896001,1.3711,-1,1
71,0.09097,1.3701,-1,1
72,0.09233,1.3692,-1,1
73,0.0936899,1.3677,-1,1
74,0.0950398,1.3651,-1,1
75,0.0963902,1.3629,-1,1
76,0.0977502,1.3614,-1,1
77,0.0991101,1.3605,-1,1
78,0.10046,1.3591,-1,1
79,0.1018,1.3567,-1,1
80,0.10313,1.3542,-1,1
81,0.10448,1.3516,-1,1
82,0.10582,1.3499,-1,1
83,0.10717,1.3488,-1,1
84,0.1085,1.3468,-1,1
85,0.10982,1.3431,-1,1
86,0.11113,1.3389,-1,1
87,0.11246,1.3357,-1,1
88,0.1138,1.3344,-1,1
89,0.11512,1.3321,-1,1
90,0.11774,1.3282,-1,1
91,0.11904,1.3238,-1,1
92,0.11904,1.3202,-1,1
93,0.12035,1.317,-1,1
94,0.12167,1.3159,-1,1
95,0.12298,1.3153,-1,1
96,0.12428,1.313,-1,1
97,0.12557,1.3089,-1,1
98,0.12685,1.3039,-1,1
99,0.12814,1.3013,-1,1
100,0.12944,1.3006,-1,1
101,0.13073,1.2988,-1,1
102,0.13201,1.2959,-1,1
103,0.13329,1.2918,-1,1
104,0.13455,1.2865,-1,1
105,0.13582,1.2821,-1,1
106,0.1371,1.2805,-1,1
107,0.13837,1.2795,-1,1
108,0.13964,1.278,-1,1
109,0.1409,1.2748,-1,1
110,0.14215,1.2699,-1,1
111,0.1434,1.2669,-1,1
112,0.14466,1.2645,-1,1
113,0.14592,1.2639,-1,1
114,0.14718,1.2628,-1,1
115,0.14842,1.2603,-1,1
116,0.14966,1.256,-1,1
117,0.1509,1.2522,-1,1
118,0.15214,1.2494,-1,1
119,0.15338,1.2483,-1,1
120,0.15463,1.2476,-1,1
121,0.15586,1.246,-1,1
122,0.15708,1.2426,-1,1
123,0.15831,1.2384,-1,1
124,0.15953,1.2353,-1,1
125,0.16076,1.2337,-1,1
126,0.16198,1.2325,-1,1
127,0.1632,1.2306,-1,1
128,0.16441,1.2277,-1,1
129,0.16562,1.2234,-1,1
130,0.16682,1.2198,-1,1
131,0.16803,1.217,-1,1
132,0.16924,1.2154,-1,1
133,0.17044,1.2132,-1,1
134,0.17163,1.2101,-1,1
135,0.17282,1.2059,-1,1
136,0.17401,1.202,-1,1
137,0.17519,1.199,-1,1
138,0.17638,1.1964,-1,1
139,0.17756,1.1943,-1,1
140,0.17873,1.191,-1,1
141,0.1799,1.1867,-1,1
142,0.18106,1.1818,-1,1
143,0.18222,1.1781,-1,1
144,0.18339,1.1757,-1,1
145,0.18455,1.1736,-1,1
146,0.18571,1.1704,-1,1
147,0.18685,1.1658,-1,1
148,0.18799,1.1607,-1,1
149,0.18912,1.1557,-1,1
150,0.19026,1.1524,-1,1
151,0.1914,1.1501,-1,1
152,0.19254,1.1479,-1,1
153,0.19366,1.1441,-1,1
154,0.19477,1.1385,-1,1
155,0.19588,1.1326,-1,1
156,0.19699,1.1281,-1,1
157,0.1981,1.1252,-1,1
158,0.19922,1.1232,-1,1
159,0.20032,1.1207,-1,1
160,0.20142,1.1164,-1,1
161,0.20251,1.1107,-1,1
162,0.20359,1.1048,-1,1
163,0.20466,1.1002,-1,1
164,0.20575,1.0976,-1,1
165,0.20791,1.0949,-1,1
166,0.20898,1.0909,-1,1
167,0.21004,1.0855,-1,1
168,0.2111,1.0794,-1,1
169,0.21215,1.074,-1,1
170,0.2132,1.0699,-1,1
171,0.21426,1.0671,-1,1
172,0.21531,1.0645,-1,1
173,0.21636,1.0611,-1,1
174,0.2174,1.0561,-1,1
175,0.21842,1.0509,-1,1
176,0.21945,1.0467,-1,1
177,0.22048,1.0436,-1,1
178,0.22151,1.0412,-1,1
179,0.22253,1.0385,-1,1
180,0.22355,1.0348,-1,1
181,0.22456,1.0302,-1,1
182,0.22557,1.0253,-1,1
183,0.22657,1.0208,-1,1
184,0.22757,1.0172,-1,1
185,0.22857,1.0146,-1,1
186,0.22957,1.0123,-1,1
187,0.23057,1.0081,-1,1
188,0.23155,1.0038,-1,1
189,0.23253,0.9988,-1,1
190,0.2335,0.9941,-1,1
191,0.23447,0.9903,-1,1
192,0.23545,0.9876,-1,1
193,0.23643,0.9853,-1,1
194,0.2374,0.9826,-1,1
195,0.23837,0.9791,-1,1
196,0.23932,0.9744,-1,1
197,0.24027,0.9707,-1,1
198,0.24122,0.9667,-1,1
199,0.24217,0.964,-1,1
200,0.24312,0.9619,-1,1
201,0.24407,0.9595,-1,1
202,0.24501,0.9564,-1,1
203,0.24595,0.9524,-1,1
204,0.24688,0.948,-1,1
205,0.24781,0.9441,-1,1
206,0.24873,0.9409,-1,1
207,0.24966,0.9386,-1,1
208,0.25058,0.9363,-1,1
209,0.2515,0.9333,-1,1
210,0.25242,0.9301,-1,1
211,0.25333,0.9265,-1,1
212,0.25424,0.9229,-1,1
213,0.25515,0.9198,-1,1
214,0.25605,0.9174,-1,1
215,0.25696,0.9149,-1,1
216,0.25786,0.9125,-1,1
217,0.25876,0.9098,-1,1
218,0.25965,0.9071,-1,1
219,0.26055,0.9045,-1,1
220,0.26144,0.9018,-1,1
221,0.26233,0.8997,-1,1
222,0.26322,0.8977,-1,1
223,0.2641,0.8956,-1,1
224,0.26499,0.8933,-1,1
225,0.26587,0.8914,-1,1
226,0.26675,0.8896,-1,1
227,0.26763,0.8878,-1,1
228,0.26851,0.886,-1,1
229,0.26939,0.8842,-1,1
230,0.27026,0.8823,-1,1
231,0.27113,0.8805,-1,1
232,0.27201,0.879,-1,1
233,0.27288,0.8774,-1,1
234,0.27462,0.8759,-1,1
235,0.27548,0.8741,-1,1
236,0.27548,0.8723,-1,1
237,0.27635,0.8705,-1,1
238,0.27807,0.8688,-1,1
239,0.27893,0.8672,-1,1
240,0.27979,0.8657,-1,1
241,0.28065,0.8642,-1,1
242,0.28151,0.8626,-1,1
243,0.28236,0.8612,-1,1
244,0.28322,0.8597,-1,1
245,0.28407,0.8583,-1,1
246,0.28492,0.8569,-1,1
247,0.28577,0.8556,-1,1
248,0.28662,0.8544,-1,1
249,0.28747,0.8532,-1,1
250,0.28831,0.8519,-1,1
251,0.28915,0.8505,-1,1
252,0.29,0.8492,-1,1
253,0.29084,0.8481,-1,1
254,0.29169,0.8472,-1,1
255,0.29253,0.8461,-1,1
256,0.29336,0.8449,-1,1
257,0.2942,0.8435,-1,1
258,0.29504,0.8423,-1,1
259,0.29588,0.8414,-1,1
260,0.29671,0.8407,-1,1
261,0.29755,0.8399,-1,1
262,0.29839,0.8389,-1,1
263,0.29922,0.8379,-1,1
264,0.30006,0.8371,-1,1
265,0.30089,0.8365,-1,1
266,0.30172,0.8359,-1,1
267,0.30255,0.8353,-1,1
268,0.30339,0.8346,-1,1
269,0.30422,0.8339,-1,1
270,0.30505,0.8333,-1,1
271,0.30588,0.8327,-1,1
272,0.30671,0.8321,-1,1
273,0.30753,0.8313,-1,1
274,0.30836,0.8304,-1,1
275,0.30918,0.8294,-1,1
276,0.31001,0.8285,-1,1
277,0.31083,0.8277,-1,1
278,0.31166,0.827,-1,1
279,0.31248,0.8262,-1,1
280,0.3133,0.8255,-1,1
281,0.31413,0.8249,-1,1
282,0.31495,0.8245,-1,1
283,0.31578,0.8242,-1,1
284,0.3166,0.8235,-1,1
285,0.31742,0.823,-1,1
286,0.31824,0.8227,-1,1
287,0.31906,0.8225,-1,1
288,0.31988,0.8222,-1,1
289,0.3207,0.8218,-1,1
290,0.32152,0.8212,-1,1
291,0.32234,0.8207,-1,1
292,0.32316,0.8203,-1,1
293,0.3248,0.82,-1,1
294,0.32562,0.8198,-1,1
295,0.32643,0.8196,-1,1
296,0.32725,0.8194,-1,1
297,0.32807,0.8193,-1,1
298,0.32889,0.8193,-1,1
299,0.32971,0.8195,-1,1
300,0.33054,0.8196,-1,1
301,0.33136,0.8196,-1,1
302,0.33217,0.8195,-1,1
303,0.33299,0.8194,-1,1
304,0.33381,0.8197,-1,1
305,0.33463,0.82,-1,1
306,0.33545,0.8201,-1,1
307,0.33627,0.8202,-1,1
308,0.3371,0.8204,-1,1
309,0.33792,0.8207,-1,1
310,0.33874,0.821,-1,1
311,0.33957,0.8211,-1,1
312,0.34038,0.821,-1,1
313,0.3412,0.8211,-1,1
314,0.34203,0.8214,-1,1
315,0.34285,0.8216,-1,1
316,0.34367,0.8219,-1,1
317,0.34449,0.8219,-1,1
318,0.34532,0.8219,-1,1
319,0.34614,0.8218,-1,1
320,0.34696,0.8219,-1,1
321,0.34778,0.822,-1,1
322,0.34861,0.8222,-1,1
323,0.34942,0.8221,-1,1
324,0.35024,0.8218,-1,1
325,0.35107,0.8218,-1,1
326,0.35189,0.8219,-1,1
327,0.35272,0.8223,-1,1
328,0.35354,0.8224,-1,1
329,0.35436,0.8222,-1,1
330,0.35518,0.822,-1,1
331,0.35601,0.8221,-1,1
332,0.35683,0.8223,-1,1
333,0.35765,0.8226,-1,1
334,0.35847,0.8226,-1,1
335,0.35929,0.8225,-1,1
336,0.36011,0.8225,-1,1
337,0.36094,0.8226,-1,1
338,0.36177,0.8227,-1,1
339,0.36259,0.8229,-1,1
340,0.36341,0.8228,-1,1
341,0.36423,0.8226,-1,1
342,0.36505,0.8225,-1,1
343,0.36588,0.8226,-1,1
344,0.3667,0.823,-1,1
345,0.36752,0.8233,-1,1
346,0.36835,0.8233,-1,1
347,0.36917,0.8233,-1,1
348,0.37,0.8234,-1,1
349,0.37082,0.8237,-1,1
350,0.37165,0.8241,-1,1
351,0.37247,0.8243,-1,1
352,0.37329,0.8243,-1,1
353,0.37412,0.8243,-1,1
354,0.37494,0.8245,-1,1
355,0.3766,0.8248,-1,1
356,0.37742,0.8251,-1,1
357,0.37825,0.8252,-1,1
358,0.37908,0.8253,-1,1
359,0.37991,0.8255,-1,1
360,0.38073,0.8258,-1,1
361,0.38156,0.8262,-1,1
362,0.38239,0.8267,-1,1
363,0.38321,0.8272,-1,1
364,0.38405,0.8277,-1,1
365,0.38488,0.8283,-1,1
366,0.38571,0.829,-1,1
367,0.38654,0.8295,-1,1
368,0.38738,0.8299,-1,1
369,0.38821,0.8302,-1,1
370,0.38904,0.8307,-1,1
371,0.38987,0.8314,-1,1
372,0.39071,0.8322,-1,1
373,0.39154,0.8328,-1,1
374,0.39238,0.8333,-1,1
375,0.39322,0.8339,-1,1
376,0.39405,0.8344,-1,1
377,0.39573,0.835,-1,1
378,0.39657,0.8355,-1,1
379,0.3974,0.8361,-1,1
380,0.39824,0.8367,-1,1
381,0.39909,0.8375,-1,1
382,0.39993,0.8383,-1,1
383,0.40077,0.8393,-1,1
384,0.40162,0.84,-1,1
385,0.40246,0.8404,-1,1
386,0.4033,0.8408,-1,1
387,0.40414,0.8413,-1,1
388,0.40499,0.8422,-1,1
389,0.40583,0.8428,-1,1
390,0.40668,0.8436,-1,1
391,0.40753,0.8441,-1,1
392,0.40838,0.845,-1,1
393,0.40923,0.8457,-1,1
394,0.41008,0.8464,-1,1
395,0.41093,0.8471,-1,1
396,0.41178,0.8478,-1,1
397,0.41263,0.8487,-1,1
398,0.41349,0.8496,-1,1
399,0.41434,0.8508,-1,1
400,0.4152,0.8517,-1,1
401,0.41605,0.8527,-1,1
402,0.41691,0.8533,-1,1
403,0.41777,0.8543,-1,1
404,0.41863,0.8553,-1,1
405,0.41949,0.8564,-1,1
406,0.42035,0.8574,-1,1
407,0.42121,0.8582,-1,1
408,0.42208,0.8592,-1,1
409,0.42294,0.8604,-1,1
410,0.42381,0.8616,-1,1
411,0.42468,0.8628,-1,1
412,0.42555,0.864,-1,1
413,0.42642,0.8651,-1,1
414,0.4273,0.8663,-1,1
415,0.42817,0.8676,-1,1
416,0.42904,0.8689,-1,1
417,0.42992,0.8705,-1,1
418,0.4308,0.8721,-1,1
419,0.43168,0.8739,-1,1
420,0.43257,0.8756,-1,1
421,0.43345,0.8772,-1,1
422,0.43434,0.8788,-1,1
423,0.43523,0.8803,-1,1
424,0.43612,0.8821,-1,1
425,0.43701,0.884,-1,1
426,0.4379,0.8862,-1,1
427,0.4388,0.8884,-1,1
428,0.4397,0.8904,-1,1
429,0.4406,0.8921,-1,1
430,0.44151,0.8941,-1,1
431,0.44242,0.8962,-1,1
432,0.44332,0.8981,-1,1
433,0.44423,0.8999,-1,1
434,0.44514,0.9019,-1,1
435,0.44605,0.9042,-1,1
436,0.44697,0.9065,-1,1
437,0.44789,0.9087,-1,1
438,0.44881,0.9109,-1,1
439,0.44973,0.9128,-1,1
440,0.45065,0.9145,-1,1
441,0.45158,0.9164,-1,1
442,0.4525,0.9188,-1,1
443,0.45343,0.9212,-1,1
444,0.45436,0.9234,-1,1
445,0.4553,0.9253,-1,1
446,0.45624,0.9273,-1,1
447,0.45717,0.929,-1,1
448,0.45811,0.9304,-1,1
449,0.45905,0.932,-1,1
450,0.45999,0.9337,-1,1
451,0.46093,0.9354,-1,1
452,0.46187,0.9369,-1,1
453,0.46282,0.9387,-1,1
454,0.46376,0.9402,-1,1
455,0.46471,0.9416,-1,1
456,0.46566,0.9427,-1,1
457,0.46661,0.9437,-1,1
458,0.46756,0.9451,-1,1
459,0.46851,0.9463,-1,1
460,0.46946,0.9476,-1,1
461,0.47041,0.9488,-1,1
462,0.47137,0.9499,-1,1
463,0.47232,0.9505,-1,1
464,0.47328,0.9511,-1,1
465,0.47423,0.9517,-1,1
466,0.47519,0.9523,-1,1
467,0.47614,0.9532,-1,1
468,0.4771,0.9535,-1,1
469,0.47805,0.9543,-1,1
470,0.47901,0.9548,-1,1
471,0.48092,0.9549,-1,1
472,0.48188,0.9549,-1,1
473,0.48283,0.9553,-1,1
474,0.48379,0.9558,-1,1
475,0.48475,0.956,-1,1
476,0.48571,0.9562,-1,1
477,0.48666,0.9562,-1,1
478,0.48762,0.9564,-1,1
479,0.48858,0.9564,-1,1
480,0.48953,0.9561,-1,1
481,0.49048,0.956,-1,1
482,0.49144,0.9558,-1,1
483,0.49239,0.9556,-1,1
484,0.49335,0.9553,-1,1
485,0.4943,0.9553,-1,1
486,0.49526,0.9551,-1,1
487,0.49621,0.9547,-1,1
488,0.49716,0.9542,-1,1
489,0.49811,0.9534,-1,1
490,0.49906,0.9531,-1,1
491,0.50001,0.9527,-1,1
492,0.50097,0.9526,-1,1
493,0.50192,0.9523,-1,1
494,0.50287,0.9521,-1,1
495,0.50382,0.9514,-1,1
496,0.50477,0.9505,-1,1
497,0.50571,0.9498,-1,1
498,0.50666,0.9493,-1,1
499,0.5076,0.9493,-1,1
500,0.50855,0.949,-1,1
501,0.51045,0.9487,-1,1
502,0.51045,0.9479,-1,1
503,0.51234,0.9471,-1,1
504,0.51328,0.946,-1,1
505,0.51422,0.9453,-1,1
506,0.51516,0.9449,-1,1
507,0.51611,0.9448,-1,1
508,0.51706,0.9449,-1,1
509,0.518,0.9447,-1,1
510,0.51895,0.9443,-1,1
511,0.51988,0.9435,-1,1
512,0.52082,0.9431,-1,1
513,0.52176,0.9429,-1,1
514,0.52271,0.9429,-1,1
515,0.52365,0.9427,-1,1
516,0.52459,0.9426,-1,1
517,0.52553,0.9427,-1,1
518,0.52648,0.9423,-1,1
519,0.52742,0.9418,-1,1
520,0.52836,0.9412,-1,1
521,0.53024,0.9413,-1,1
522,0.53118,0.9416,-1,1
523,0.53212,0.9418,-1,1
524,0.53307,0.942,-1,1
525,0.53401,0.9423,-1,1
526,0.53496,0.9426,-1,1
527,0.5359,0.9421,-1,1
528,0.53684,0.942,-1,1
529,0.53778,0.9417,-1,1
530,0.53872,0.9421,-1,1
531,0.53966,0.9425,-1,1
532,0.54061,0.9427,-1,1
533,0.54156,0.9432,-1,1
534,0.54251,0.9435,-1,1
535,0.54345,0.9434,-1,1
536,0.54439,0.9433,-1,1
537,0.54534,0.9438,-1,1
538,0.54628,0.9442,-1,1
539,0.54722,0.9454,-1,1
540,0.54818,0.9463,-1,1
541,0.54913,0.9472,-1,1
542,0.55008,0.948,-1,1
543,0.55103,0.9483,-1,1
544,0.55198,0.9485,-1,1
545,0.55293,0.9489,-1,1
546,0.55388,0.9493,-1,1
547,0.55483,0.9502,-1,1
548,0.55578,0.9511,-1,1
549,0.55674,0.9517,-1,1
550,0.5577,0.9523,-1,1
551,0.55866,0.9529,-1,1
552,0.56057,0.9531,-1,1
553,0.56152,0.9533,-1,1
554,0.56248,0.9539,-1,1
555,0.56344,0.9551,-1,1
556,0.5644,0.9566,-1,1
557,0.56536,0.9575,-1,1
558,0.56632,0.9582,-1,1
559,0.56728,0.9587,-1,1
560,0.56824,0.9591,-1,1
561,0.56921,0.9596,-1,1
562,0.57017,0.9603,-1,1
563,0.57113,0.9612,-1,1
564,0.5721,0.9619,-1,1
565,0.57306,0.9628,-1,1
566,0.57403,0.9634,-1,1
567,0.575,0.9637,-1,1
568,0.57597,0.9642,-1,1
569,0.57693,0.9648,-1,1
570,0.5779,0.9655,-1,1
571,0.57887,0.9662,-1,1
572,0.57984,0.9669,-1,1
573,0.58179,0.9678,-1,1
574,0.58276,0.969,-1,1
575,0.58373,0.9697,-1,1
576,0.58471,0.9703,-1,1
577,0.58568,0.9711,-1,1
578,0.58666,0.9719,-1,1
579,0.58763,0.9727,-1,1
580,0.58861,0.9735,-1,1
581,0.58958,0.9741,-1,1
582,0.59056,0.9749,-1,1
583,0.59154,0.9757,-1,1
584,0.59252,0.9762,-1,1
585,0.5935,0.9768,-1,1
586,0.59448,0.9771,-1,1
587,0.59546,0.9776,-1,1
588,0.59644,0.9783,-1,1
589,0.59742,0.979,-1,1
590,0.5984,0.9797,-1,1
591,0.59939,0.9802,-1,1
592,0.60037,0.981,-1,1
593,0.60136,0.9816,-1,1
594,0.60333,0.9821,-1,1
595,0.60431,0.9826,-1,1
596,0.6053,0.9835,-1,1
597,0.60629,0.9843,-1,1
598,0.60728,0.9852,-1,1
599,0.60827,0.9859,-1,1
600,0.60926,0.9866,-1,1
601,0.61024,0.9873,-1,1
602,0.61123,0.9878,-1,1
603,0.61223,0.9883,-1,1
604,0.61322,0.989,-1,1
605,0.61421,0.9897,-1,1
606,0.6152,0.9904,-1,1
607,0.6162,0.9913,-1,1
608,0.61719,0.9919,-1,1
609,0.61819,0.9924,-1,1
610,0.61919,0.9929,-1,1
611,0.62018,0.9936,-1,1
612,0.62118,0.9943,-1,1
613,0.62218,0.9949,-1,1
614,0.62317,0.9956,-1,1
615,0.62417,0.9963,-1,1
616,0.62517,0.997,-1,1
617,0.62717,0.9975,-1,1
618,0.62817,0.9977,-1,1
619,0.62917,0.9982,-1,1
620,0.63017,0.9988,-1,1
621,0.63118,0.9995,-1,1
622,0.63218,1.0001,-1,1
623,0.63318,1.0007,-1,1
624,0.63419,1.001,-1,1
625,0.63519,1.0016,-1,1
626,0.63619,1.0019,-1,1
627,0.6372,1.0023,-1,1
628,0.6382,1.003,-1,1
629,0.63921,1.0036,-1,1
630,0.64022,1.0042,-1,1
631,0.64122,1.0045,-1,1
632,0.64223,1.0048,-1,1
633,0.64323,1.005,-1,1
634,0.64424,1.0057,-1,1
635,0.64525,1.006,-1,1
636,0.64626,1.0066,-1,1
637,0.64727,1.0069,-1,1
638,0.64828,1.0072,-1,1
639,0.64929,1.0078,-1,1
640,0.6503,1.0078,-1,1
641,0.65131,1.0079,-1,1
642,0.65232,1.0084,-1,1
643,0.65333,1.0089,-1,1
644,0.65434,1.0094,-1,1
645,0.65535,1.0099,-1,1
646,0.65636,1.0101,-1,1
647,0.65737,1.0106,-1,1
648,0.65839,1.0111,-1,1
649,0.66041,1.0112,-1,1
650,0.66143,1.012,-1,1
651,0.66244,1.0128,-1,1
652,0.66346,1.0132,-1,1
653,0.66447,1.0139,-1,1
654,0.66549,1.014,-1,1
655,0.6665,1.0139,-1,1
656,0.66752,1.0145,-1,1
657,0.66854,1.015,-1,1
658,0.66955,1.0155,-1,1
659,0.67057,1.016,-1,1
660,0.67159,1.0163,-1,1
661,0.67261,1.0167,-1,1
662,0.67363,1.0169,-1,1
663,0.67464,1.0169,-1,1
664,0.67566,1.0173,-1,1
665,0.67668,1.0181,-1,1
666,0.67771,1.0187,-1,1
667,0.67873,1.0189,-1,1
668,0.67975,1.019,-1,1
669,0.68076,1.0191,-1,1
670,0.68178,1.0192,-1,1
671,0.6828,1.0193,-1,1
672,0.68383,1.0198,-1,1
673,0.68485,1.0202,-1,1
674,0.68587,1.0206,-1,1
675,0.68689,1.0207,-1,1
676,0.68791,1.0205,-1,1
677,0.68893,1.0204,-1,1
678,0.68995,1.0204,-1,1
679,0.69097,1.0207,-1,1
680,0.692,1.021,-1,1
681,0.69302,1.0212,-1,1
682,0.69404,1.0212,-1,1
683,0.69506,1.0212,-1,1
684,0.69608,1.0212,-1,1
685,0.6971,1.0212,-1,1
686,0.69812,1.0211,-1,1
687,0.69914,1.0212,-1,1
688,0.70017,1.0213,-1,1
689,0.70119,1.0215,-1,1
690,0.70221,1.0215,-1,1
691,0.70323,1.0213,-1,1
692,0.70425,1.0212,-1,1
693,0.70527,1.0211,-1,1
694,0.70629,1.0209,-1,1
695,0.70731,1.0205,-1,1
696,0.70833,1.0204,-1,1
697,0.70935,1.0204,-1,1
698,0.71037,1.0205,-1,1
699,0.71139,1.0203,-1,1
700,0.71241,1.0199,-1,1
701,0.71343,1.0198,-1,1
702,0.71445,1.0195,-1,1
703,0.71546,1.0193,-1,1
704,0.71648,1.0189,-1,1
705,0.7175,1.0189,-1,1
706,0.71852,1.0189,-1,1
707,0.71954,1.0189,-1,1
708,0.72056,1.0188,-1,1
709,0.72158,1.0186,-1,1
710,0.72259,1.0184,-1,1
711,0.72361,1.018,-1,1
712,0.72564,1.0179,-1,1
713,0.72564,1.018,-1,1
714,0.72666,1.0183,-1,1
715,0.72768,1.0185,-1,1
716,0.7287,1.0184,-1,1
717,0.72971,1.0181,-1,1
718,0.73073,1.0177,-1,1
719,0.73174,1.0169,-1,1
720,0.73377,1.0171,-1,1
721,0.73479,1.0175,-1,1
722,0.73581,1.0173,-1,1
723,0.73682,1.0169,-1,1
724,0.73784,1.0163,-1,1
725,0.73784,1.0156,-1,1
726,0.73986,1.0153,-1,1
727,0.73986,1.0151,-1,1
728,0.74088,1.015,-1,1
729,0.74189,1.0154,-1,1
730,0.74291,1.0151,-1,1
731,0.74493,1.0143,-1,1
732,0.74594,1.0139,-1,1
733,0.74696,1.0137,-1,1
734,0.74797,1.0138,-1,1
735,0.74898,1.0139,-1,1
736,0.75,1.0135,-1,1
737,0.75101,1.0129,-1,1
738,0.75202,1.0124,-1,1
739,0.75303,1.0118,-1,1
740,0.75404,1.0114,-1,1
741,0.75505,1.0115,-1,1
742,0.75606,1.0114,-1,1
743,0.75707,1.0109,-1,1
744,0.75808,1.0106,-1,1
745,0.75908,1.0099,-1,1
746,0.76009,1.0094,-1,1
747,0.7611,1.0094,-1,1
748,0.76211,1.0091,-1,1
749,0.76311,1.0089,-1,1
750,0.76412,1.0086,-1,1
751,0.76513,1.0079,-1,1
752,0.76613,1.0076,-1,1
753,0.76714,1.0073,-1,1
754,0.76814,1.0066,-1,1
755,0.76915,1.0063,-1,1
756,0.77015,1.0062,-1,1
757,0.77116,1.0058,-1,1
758,0.77216,1.0056,-1,1
759,0.77317,1.0051,-1,1
760,0.77417,1.0043,-1,1
761,0.77517,1.004,-1,1
762,0.77617,1.0035,-1,1
763,0.77718,1.0034,-1,1
764,0.77818,1.0031,-1,1
765,0.77918,1.0027,-1,1
766,0.78018,1.0023,-1,1
767,0.78118,1.0019,-1,1
768,0.78218,1.0012,-1,1
769,0.78317,1.0007,-1,1
770,0.78417,1.0004,-1,1
771,0.78517,1.0002,-1,1
772,0.78617,0.9998,-1,1
773,0.78716,0.9989,-1,1
774,0.78816,0.9981,-1,1
775,0.78915,0.9977,-1,1
776,0.79114,0.997,-1,1
777,0.79213,0.996,-1,1
778,0.79213,0.9953,-1,1
779,0.79412,0.9946,-1,1
780,0.79412,0.9943,-1,1
781,0.79511,0.9936,-1,1
782,0.7961,0.9931,-1,1
783,0.79709,0.9922,-1,1
784,0.79906,0.9913,-1,1
785,0.80005,0.9906,-1,1
786,0.80103,0.99,-1,1
787,0.80202,0.9896,-1,1
788,0.80301,0.9889,-1,1
789,0.80399,0.9882,-1,1
790,0.80497,0.9872,-1,1
791,0.80595,0.986,-1,1
792,0.80693,0.9847,-1,1
793,0.80791,0.984,-1,1
794,0.8089,0.9837,-1,1
795,0.80988,0.983,-1,1
796,0.81086,0.9821,-1,1
797,0.81183,0.9811,-1,1
798,0.81281,0.9802,-1,1
799,0.81378,0.9793,-1,1
800,0.81476,0.9784,-1,1
801,0.81573,0.9777,-1,1
802,0.8167,0.9769,-1,1
803,0.81768,0.9763,-1,1
804,0.81865,0.9754,-1,1
805,0.81962,0.9744,-1,1
806,0.82059,0.9732,-1,1
807,0.82156,0.9723,-1,1
808,0.82252,0.9714,-1,1
809,0.82349,0.9708,-1,1
810,0.82446,0.97,-1,1
811,0.82542,0.9693,-1,1
812,0.82639,0.9686,-1,1
813,0.82736,0.968,-1,1
814,0.82832,0.9672,-1,1
815,0.82928,0.9663,-1,1
816,0.83024,0.9656,-1,1
817,0.83121,0.965,-1,1
818,0.83217,0.9646,-1,1
819,0.83313,0.9641,-1,1
820,0.83409,0.9637,-1,1
821,0.83506,0.9633,-1,1
822,0.83602,0.9629,-1,1
823,0.83698,0.9623,-1,1
824,0.83794,0.9619,-1,1
825,0.8389,0.9616,-1,1
826,0.83986,0.9615,-1,1
827,0.84082,0.9613,-1,1
828,0.84178,0.9613,-1,1
829,0.84275,0.9614,-1,1
830,0.84371,0.9614,-1,1
831,0.84467,0.9612,-1,1
832,0.84563,0.9609,-1,1
833,0.84658,0.9605,-1,1
834,0.84754,0.9603,-1,1
835,0.8485,0.9606,-1,1
836,0.84947,0.9613,-1,1
837,0.85044,0.9618,-1,1
838,0.8514,0.962,-1,1
