cnt,pos,speed,Dir,Force,
1,0,1.005,-1,2
2,0.00106001,1.0152,-1,2
3,0.00213003,1.0256,-1,2
4,0.00321007,1.0364,-1,2
5,0.00430989,1.0473,-1,2
6,0.00541997,1.058,-1,2
7,0.00654006,1.0691,-1,2
8,0.00766993,1.0806,-1,2
9,0.00882006,1.0921,-1,2
10,0.00997996,1.1036,-1,2
11,0.0111499,1.1154,-1,2
12,0.0123301,1.1276,-1,2
13,0.01353,1.1404,-1,2
14,0.01474,1.1527,-1,2
15,0.01596,1.1646,-1,2
16,0.01719,1.177,-1,2
17,0.01844,1.1899,-1,2
18,0.0197001,1.2031,-1,2
19,0.0209799,1.2158,-1,2
20,0.02227,1.2287,-1,2
21,0.0235701,1.2418,-1,2
22,0.0248799,1.255,-1,2
23,0.0262101,1.2679,-1,2
24,0.02755,1.2814,-1,2
25,0.0289099,1.2951,-1,2
26,0.0302799,1.3085,-1,2
27,0.0316598,1.322,-1,2
28,0.0330601,1.3355,-1,2
29,0.0344698,1.3492,-1,2
30,0.0358999,1.363,-1,2
31,0.0373299,1.3767,-1,2
32,0.03879,1.3905,-1,2
33,0.0402501,1.4042,-1,2
34,0.0417299,1.4177,-1,2
35,0.04322,1.431,-1,2
36,0.0447199,1.4444,-1,2
37,0.0462399,1.4577,-1,2
38,0.04777,1.4708,-1,2
39,0.0493,1.4835,-1,2
40,0.0508499,1.4958,-1,2
41,0.0524099,1.5077,-1,2
42,0.0539799,1.5194,-1,2
43,0.0555599,1.531,-1,2
44,0.0571499,1.542,-1,2
45,0.0587399,1.5525,-1,2
46,0.0603399,1.5625,-1,2
47,0.06195,1.5718,-1,2
48,0.06357,1.5805,-1,2
49,0.0651901,1.5892,-1,2
50,0.0668199,1.5971,-1,2
51,0.06845,1.6043,-1,2
52,0.07008,1.6107,-1,2
53,0.0717199,1.6166,-1,2
54,0.07337,1.6219,-1,2
55,0.0750101,1.627,-1,2
56,0.0766599,1.6313,-1,2
57,0.0783,1.6349,-1,2
58,0.0799499,1.6378,-1,2
59,0.0815899,1.6398,-1,2
60,0.08324,1.6415,-1,2
61,0.0848799,1.643,-1,2
62,0.08652,1.6439,-1,2
63,0.08816,1.6435,-1,2
64,0.0897999,1.6426,-1,2
65,0.09306,1.6412,-1,2
66,0.09306,1.6396,-1,2
67,0.0963099,1.6371,-1,2
68,0.0979199,1.6341,-1,2
69,0.09954,1.631,-1,2
70,0.10115,1.6274,-1,2
71,0.10275,1.6234,-1,2
72,0.10435,1.6191,-1,2
73,0.10594,1.6146,-1,2
74,0.10753,1.61,-1,2
75,0.10911,1.605,-1,2
76,0.11069,1.5997,-1,2
77,0.11226,1.5946,-1,2
78,0.11382,1.5894,-1,2
79,0.11537,1.5836,-1,2
80,0.11692,1.5771,-1,2
81,0.11847,1.5701,-1,2
82,0.12153,1.5633,-1,2
83,0.12153,1.5567,-1,2
84,0.12458,1.5498,-1,2
85,0.12458,1.5424,-1,2
86,0.12608,1.5348,-1,2
87,0.12908,1.5274,-1,2
88,0.13057,1.5204,-1,2
89,0.13206,1.5133,-1,2
90,0.13353,1.506,-1,2
91,0.13499,1.4987,-1,2
92,0.13645,1.4914,-1,2
93,0.1379,1.4845,-1,2
94,0.13935,1.4775,-1,2
95,0.14079,1.4707,-1,2
96,0.14222,1.4633,-1,2
97,0.14363,1.4554,-1,2
98,0.14505,1.4472,-1,2
99,0.14786,1.439,-1,2
100,0.14925,1.4309,-1,2
101,0.15063,1.4225,-1,2
102,0.152,1.4137,-1,2
103,0.15336,1.4047,-1,2
104,0.15473,1.3964,-1,2
105,0.15608,1.3879,-1,2
106,0.15742,1.3792,-1,2
107,0.15875,1.3704,-1,2
108,0.16007,1.361,-1,2
109,0.16139,1.3521,-1,2
110,0.1627,1.3436,-1,2
111,0.16401,1.3349,-1,2
112,0.1653,1.3255,-1,2
113,0.16658,1.3166,-1,2
114,0.16911,1.3071,-1,2
115,0.17038,1.2982,-1,2
116,0.17163,1.2897,-1,2
117,0.17287,1.2808,-1,2
118,0.1741,1.2717,-1,2
119,0.17532,1.2621,-1,2
120,0.17653,1.2533,-1,2
121,0.17775,1.2455,-1,2
122,0.17895,1.2384,-1,2
123,0.18014,1.2296,-1,2
124,0.18131,1.2198,-1,2
125,0.18248,1.21,-1,2
126,0.18365,1.2012,-1,2
127,0.18481,1.1934,-1,2
128,0.18595,1.1854,-1,2
129,0.18709,1.1772,-1,2
130,0.18821,1.168,-1,2
131,0.18933,1.1581,-1,2
132,0.19044,1.1485,-1,2
133,0.19154,1.1401,-1,2
134,0.19264,1.1325,-1,2
135,0.19372,1.1242,-1,2
136,0.19479,1.1148,-1,2
137,0.19586,1.1045,-1,2
138,0.19797,1.0949,-1,2
139,0.19797,1.0852,-1,2
140,0.20004,1.0757,-1,2
141,0.20004,1.0668,-1,2
142,0.20208,1.0576,-1,2
143,0.20309,1.0479,-1,2
144,0.20408,1.0377,-1,2
145,0.20506,1.0275,-1,2
146,0.20604,1.0182,-1,2
147,0.20701,1.0095,-1,2
148,0.20798,1.0011,-1,2
149,0.20893,0.9926,-1,2
150,0.20988,0.9841,-1,2
151,0.21081,0.975,-1,2
152,0.21174,0.9659,-1,2
153,0.21265,0.9567,-1,2
154,0.21356,0.948,-1,2
155,0.21446,0.9398,-1,2
156,0.21535,0.9314,-1,2
157,0.21712,0.9219,-1,2
158,0.21712,0.9117,-1,2
159,0.21798,0.9019,-1,2
160,0.21884,0.8922,-1,2
161,0.22053,0.883,-1,2
162,0.22053,0.8736,-1,2
163,0.22218,0.8642,-1,2
164,0.22299,0.8548,-1,2
165,0.2238,0.8455,-1,2
166,0.2246,0.8362,-1,2
167,0.2254,0.828,-1,2
168,0.22618,0.8196,-1,2
169,0.22695,0.8109,-1,2
170,0.22771,0.8022,-1,2
171,0.22846,0.7935,-1,2
172,0.22921,0.7852,-1,2
173,0.22995,0.777,-1,2
174,0.23068,0.7685,-1,2
175,0.2314,0.7596,-1,2
176,0.23211,0.7507,-1,2
177,0.23282,0.742,-1,2
178,0.23352,0.7339,-1,2
179,0.23421,0.726,-1,2
180,0.23488,0.7174,-1,2
181,0.23555,0.7086,-1,2
182,0.23621,0.6997,-1,2
183,0.23687,0.6906,-1,2
184,0.23815,0.6816,-1,2
185,0.23878,0.6725,-1,2
186,0.2394,0.6631,-1,2
187,0.24001,0.6536,-1,2
188,0.24062,0.6441,-1,2
189,0.24121,0.6347,-1,2
190,0.2418,0.6258,-1,2
191,0.24238,0.6169,-1,2
192,0.24295,0.6079,-1,2
193,0.24351,0.5992,-1,2
194,0.24406,0.5907,-1,2
195,0.24461,0.5824,-1,2
196,0.24514,0.574,-1,2
197,0.24567,0.5655,-1,2
198,0.24619,0.5571,-1,2
199,0.2467,0.5488,-1,2
200,0.24721,0.5407,-1,2
201,0.2477,0.5324,-1,2
202,0.24819,0.5233,-1,2
203,0.24914,0.5144,-1,2
204,0.2496,0.5053,-1,2
205,0.25005,0.496,-1,2
206,0.2505,0.4871,-1,2
207,0.25094,0.478,-1,2
208,0.25137,0.469,-1,2
209,0.25179,0.4597,-1,2
210,0.2522,0.4505,-1,2
211,0.2526,0.4414,-1,2
212,0.253,0.4332,-1,2
213,0.25339,0.4247,-1,2
214,0.25377,0.4167,-1,2
215,0.25414,0.4088,-1,2
216,0.25451,0.4006,-1,2
217,0.25486,0.3928,-1,2
218,0.25521,0.3849,-1,2
219,0.25556,0.3771,-1,2
220,0.25589,0.3692,-1,2
221,0.25622,0.3606,-1,2
222,0.25685,0.3521,-1,2
223,0.25715,0.3437,-1,2
224,0.25744,0.335,-1,2
225,0.25773,0.3264,-1,2
226,0.25801,0.318,-1,2
227,0.25828,0.3094,-1,2
228,0.25855,0.3008,-1,2
229,0.2588,0.2922,-1,2
230,0.25905,0.2836,-1,2
231,0.25929,0.2759,-1,2
232,0.25953,0.268,-1,2
233,0.25975,0.2602,-1,2
234,0.25997,0.2523,-1,2
235,0.26018,0.2446,-1,2
236,0.26038,0.2366,-1,2
237,0.26057,0.2282,-1,2
238,0.26076,0.2205,-1,2
239,0.26094,0.2118,-1,2
240,0.26127,0.2034,-1,2
241,0.26142,0.1948,-1,2
242,0.26157,0.1863,-1,2
243,0.26171,0.1779,-1,2
244,0.26185,0.1698,-1,2
245,0.26197,0.1613,-1,2
246,0.26209,0.1533,-1,2
247,0.2622,0.1456,-1,2
248,0.26231,0.1374,-1,2
249,0.26241,0.1304,-1,2
250,0.2625,0.123,-1,2
251,0.26258,0.116,-1,2
252,0.26266,0.109,-1,2
253,0.26273,0.1019,-1,2
254,0.2628,0.0948,-1,2
255,0.26285,0.0881,-1,2
256,0.26291,0.0812,-1,2
257,0.26295,0.0746,-1,2
258,0.26299,0.0677,-1,2
259,0.26302,0.061,-1,2
260,0.26304,0.054,-1,2
261,0.26308,0.0469,-1,2
262,0.26309,0.0399,-1,2
263,0.26309,0.0331,-1,2
264,0.26309,0.0264,-1,2
265,0.26308,0.0198,-1,2
266,0.26306,0.0134,-1,2
267,0.26305,0,-1,2
268,0.26303,0,-1,2
269,0.263,0,-1,2
270,0.26298,-0.0088,-1,2
271,0.26295,-0.0131,-1,2
272,0.26291,-0.0172,-1,2
273,0.26288,-0.0209,-1,2
274,0.26284,-0.0243,-1,2
275,0.2628,-0.0274,-1,2
276,0.26276,-0.0302,-1,2
277,0.26272,-0.0327,-1,2
278,0.26268,-0.035,-1,2
279,0.26263,-0.0371,-1,2
280,0.26259,-0.0389,-1,2
281,0.2625,-0.0406,-1,2
282,0.2625,-0.0418,-1,2
283,0.26245,-0.0428,-1,2
284,0.26241,-0.0436,-1,2
285,0.26232,-0.0441,-1,2
286,0.26227,-0.0443,-1,2
287,0.26223,-0.0444,-1,2
288,0.26219,-0.0441,-1,2
289,0.26215,-0.0434,-1,2
290,0.26212,-0.0425,-1,2
291,0.26208,-0.0413,-1,2
292,0.26205,-0.04,-1,2
293,0.26202,-0.0384,-1,2
294,0.26199,-0.0365,-1,2
295,0.26197,-0.0345,-1,2
296,0.26195,-0.0324,-1,2
297,0.26193,-0.03,-1,2
298,0.26191,-0.0276,-1,2
299,0.2619,-0.0252,-1,2
300,0.26189,-0.0227,-1,2
301,0.26188,-0.0202,-1,2
302,0.26187,-0.0174,-1,2
303,0.26187,-0.0149,-1,2
304,0.26187,-0.0125,-1,2
305,0.26186,-0.0103,-1,2
306,0.26186,-0.0082,-1,2
307,0.26186,0,-1,2
308,0.26186,0,-1,2
309,0.26186,0,-1,2
310,0.26186,0,-1,2
311,0.26185,0,-1,2
312,0.26185,0,-1,2
313,0.26185,0,-1,2
314,0.26184,0,-1,2
315,0.26183,0,-1,2
316,0.26183,0,-1,2
317,0.26182,0,-1,2
318,0.26181,0,-1,2
319,0.2618,0,-1,2
320,0.26179,0,-1,2
321,0.26177,-0.0084,-1,2
322,0.26176,-0.0094,-1,2
323,0.26175,-0.0104,-1,2
324,0.26173,-0.0113,-1,2
325,0.26171,-0.0121,-1,2
326,0.26168,-0.0129,-1,2
327,0.26167,-0.0135,-1,2
328,0.26167,-0.0139,-1,2
329,0.26164,-0.0141,-1,2
330,0.26163,-0.014,-1,2
331,0.26162,-0.0136,-1,2
332,0.26161,-0.0129,-1,2
333,0.26161,-0.012,-1,2
334,0.26161,-0.0107,-1,2
335,0.26161,-0.0092,-1,2
336,0.26161,0,-1,2
337,0.26161,0,-1,2
338,0.26162,0,-1,2
339,0.26163,0,-1,2
340,0.26164,0,-1,2
341,0.26166,0,-1,2
342,0.26167,0,-1,2
343,0.26169,0.0083,-1,2
344,0.26171,0.0105,-1,2
345,0.26173,0.0126,-1,2
346,0.26175,0.0146,-1,2
347,0.26178,0.0164,-1,2
348,0.26182,0.0182,-1,2
349,0.26182,0.0197,-1,2
350,0.26185,0.021,-1,2
351,0.26187,0.0221,-1,2
352,0.26192,0.0229,-1,2
353,0.26195,0.0235,-1,2
354,0.26197,0.0239,-1,2
355,0.26199,0.0241,-1,2
356,0.26202,0.024,-1,2
357,0.26204,0.0238,-1,2
358,0.26206,0.0233,-1,2
359,0.26208,0.0227,-1,2
360,0.2621,0.022,-1,2
361,0.26211,0.0212,-1,2
362,0.26213,0.0204,-1,2
363,0.26214,0.0194,-1,2
364,0.26215,0.0183,-1,2
365,0.26217,0.0172,-1,2
366,0.26218,0.0162,-1,2
367,0.26219,0.0153,-1,2
368,0.2622,0.0144,-1,2
369,0.26221,0.0137,-1,2
370,0.26223,0.0132,-1,2
371,0.26224,0.0129,-1,2
372,0.26226,0.0128,-1,2
373,0.26227,0.0129,-1,2
374,0.26229,0.0132,-1,2
375,0.26231,0.0138,-1,2
376,0.26232,0.0146,-1,2
377,0.26234,0.0154,-1,2
378,0.26237,0.0165,-1,2
379,0.26239,0.0176,-1,2
380,0.26241,0.0187,-1,2
381,0.26244,0.0198,-1,2
382,0.26246,0.0209,-1,2
383,0.26252,0.0222,-1,2
384,0.26252,0.0235,-1,2
385,0.26258,0.0246,-1,2
386,0.2626,0.0255,-1,2
387,0.26263,0.0264,-1,2
388,0.26266,0.027,-1,2
389,0.26269,0.0274,-1,2
390,0.26271,0.0276,-1,2
391,0.26274,0.0276,-1,2
392,0.26276,0.0274,-1,2
393,0.26279,0.0269,-1,2
394,0.26281,0.0262,-1,2
395,0.26283,0.0254,-1,2
396,0.26285,0.0244,-1,2
397,0.26286,0.0232,-1,2
398,0.26288,0.022,-1,2
399,0.26289,0.0207,-1,2
400,0.26291,0.0193,-1,2
401,0.26292,0.0179,-1,2
402,0.26293,0.0164,-1,2
403,0.26293,0.0148,-1,2
404,0.26294,0.0132,-1,2
405,0.26294,0.0115,-1,2
406,0.26295,0.0097,-1,2
407,0.26295,0.0081,-1,2
408,0.26295,0,-1,2
409,0.26294,0,-1,2
410,0.26294,0,-1,2
411,0.26293,0,-1,2
412,0.26293,0,-1,2
413,0.26292,0,-1,2
414,0.26291,0,-1,2
415,0.2629,0,-1,2
416,0.26289,0,-1,2
417,0.26287,0,-1,2
418,0.26286,-0.0087,-1,2
419,0.26284,-0.0103,-1,2
420,0.26282,-0.0122,-1,2
421,0.26279,-0.0145,-1,2
422,0.26276,-0.0171,-1,2
423,0.26272,-0.02,-1,2
424,0.26268,-0.0233,-1,2
425,0.26263,-0.027,-1,2
426,0.26258,-0.0309,-1,2
427,0.26252,-0.0351,-1,2
428,0.26246,-0.0396,-1,2
429,0.2624,-0.0444,-1,2
430,0.26232,-0.0502,-1,2
431,0.26224,-0.0561,-1,2
432,0.26215,-0.062,-1,2
433,0.26206,-0.068,-1,2
434,0.26196,-0.0737,-1,2
435,0.26187,-0.0789,-1,2
436,0.26165,-0.0845,-1,2
437,0.26154,-0.09,-1,2
438,0.26143,-0.0954,-1,2
439,0.26131,-0.1004,-1,2
440,0.26119,-0.1043,-1,2
441,0.26107,-0.1075,-1,2
442,0.26095,-0.1104,-1,2
443,0.26083,-0.113,-1,2
444,0.26071,-0.1155,-1,2
445,0.26058,-0.1181,-1,2
446,0.26046,-0.1197,-1,2
447,0.26033,-0.1211,-1,2
448,0.26021,-0.1219,-1,2
449,0.26009,-0.1227,-1,2
450,0.25996,-0.1235,-1,2
451,0.25983,-0.1247,-1,2
452,0.25969,-0.1259,-1,2
453,0.25956,-0.1272,-1,2
454,0.25942,-0.1286,-1,2
455,0.25928,-0.1302,-1,2
456,0.25913,-0.1324,-1,2
457,0.25898,-0.1349,-1,2
458,0.25883,-0.138,-1,2
459,0.25852,-0.141,-1,2
460,0.25836,-0.1442,-1,2
461,0.2582,-0.1471,-1,2
462,0.25804,-0.1501,-1,2
463,0.25788,-0.1529,-1,2
464,0.25771,-0.1556,-1,2
465,0.25755,-0.1581,-1,2
466,0.25738,-0.1602,-1,2
467,0.25721,-0.162,-1,2
468,0.25705,-0.1632,-1,2
469,0.25688,-0.1641,-1,2
470,0.25672,-0.1645,-1,2
471,0.25656,-0.1647,-1,2
472,0.2564,-0.1645,-1,2
473,0.25624,-0.1641,-1,2
474,0.25608,-0.1634,-1,2
475,0.25592,-0.1623,-1,2
476,0.25577,-0.1611,-1,2
477,0.25562,-0.1594,-1,2
478,0.25547,-0.1578,-1,2
479,0.25517,-0.1559,-1,2
480,0.25517,-0.1539,-1,2
481,0.25503,-0.1519,-1,2
482,0.25475,-0.1499,-1,2
483,0.25461,-0.1479,-1,2
484,0.25447,-0.146,-1,2
485,0.25433,-0.1442,-1,2
486,0.25419,-0.1426,-1,2
487,0.25406,-0.1413,-1,2
488,0.25392,-0.1401,-1,2
489,0.25378,-0.1392,-1,2
490,0.25365,-0.1384,-1,2
491,0.25351,-0.1378,-1,2
492,0.25337,-0.1375,-1,2
493,0.25324,-0.1373,-1,2
494,0.2531,-0.1372,-1,2
495,0.25296,-0.1375,-1,2
496,0.25282,-0.1378,-1,2
497,0.25267,-0.1383,-1,2
498,0.25253,-0.1389,-1,2
499,0.25238,-0.14,-1,2
500,0.25223,-0.1414,-1,2
501,0.25208,-0.143,-1,2
502,0.25178,-0.1448,-1,2
503,0.25162,-0.1467,-1,2
504,0.25146,-0.1489,-1,2
505,0.2513,-0.151,-1,2
506,0.25113,-0.1532,-1,2
507,0.25097,-0.1555,-1,2
508,0.2508,-0.1578,-1,2
509,0.25063,-0.1601,-1,2
510,0.25046,-0.1622,-1,2
511,0.25029,-0.1643,-1,2
512,0.25011,-0.1662,-1,2
513,0.24994,-0.1682,-1,2
514,0.24976,-0.1701,-1,2
515,0.24958,-0.1721,-1,2
516,0.24939,-0.174,-1,2
517,0.24921,-0.1759,-1,2
518,0.24903,-0.1777,-1,2
519,0.24884,-0.1794,-1,2
520,0.24865,-0.181,-1,2
521,0.24846,-0.1826,-1,2
522,0.24827,-0.184,-1,2
523,0.24808,-0.1853,-1,2
524,0.2477,-0.1865,-1,2
525,0.24751,-0.1875,-1,2
526,0.24732,-0.1885,-1,2
527,0.24713,-0.1892,-1,2
528,0.24694,-0.1898,-1,2
529,0.24674,-0.1904,-1,2
530,0.24655,-0.191,-1,2
531,0.24636,-0.1915,-1,2
532,0.24616,-0.192,-1,2
533,0.24597,-0.1923,-1,2
534,0.24578,-0.1925,-1,2
535,0.24558,-0.1927,-1,2
536,0.24539,-0.1929,-1,2
537,0.2452,-0.1931,-1,2
538,0.245,-0.1933,-1,2
539,0.24481,-0.1934,-1,2
540,0.24462,-0.1935,-1,2
541,0.24442,-0.1935,-1,2
542,0.24423,-0.1934,-1,2
543,0.24403,-0.1935,-1,2
544,0.24384,-0.1935,-1,2
545,0.24365,-0.1935,-1,2
546,0.24345,-0.1933,-1,2
547,0.24326,-0.1932,-1,2
548,0.24288,-0.1932,-1,2
549,0.24269,-0.193,-1,2
550,0.24249,-0.1929,-1,2
551,0.2423,-0.1928,-1,2
552,0.24211,-0.1928,-1,2
553,0.24191,-0.1929,-1,2
554,0.24172,-0.1931,-1,2
555,0.24152,-0.1934,-1,2
556,0.24132,-0.1939,-1,2
557,0.24113,-0.1944,-1,2
558,0.24093,-0.1949,-1,2
559,0.24073,-0.1957,-1,2
560,0.24053,-0.1965,-1,2
561,0.24033,-0.1972,-1,2
562,0.24012,-0.1983,-1,2
563,0.23992,-0.1991,-1,2
564,0.23972,-0.2,-1,2
565,0.23951,-0.2009,-1,2
566,0.23931,-0.2017,-1,2
567,0.2391,-0.2025,-1,2
568,0.2389,-0.2032,-1,2
569,0.23869,-0.204,-1,2
570,0.23828,-0.2046,-1,2
571,0.23807,-0.2052,-1,2
572,0.23786,-0.2055,-1,2
573,0.23766,-0.2059,-1,2
574,0.23745,-0.2062,-1,2
575,0.23724,-0.2064,-1,2
576,0.23704,-0.2065,-1,2
577,0.23683,-0.2068,-1,2
578,0.23662,-0.2069,-1,2
579,0.23641,-0.2068,-1,2
580,0.23621,-0.207,-1,2
581,0.236,-0.2072,-1,2
582,0.23579,-0.2072,-1,2
583,0.23558,-0.2072,-1,2
584,0.23538,-0.2072,-1,2
585,0.23517,-0.2072,-1,2
586,0.23496,-0.2072,-1,2
587,0.23476,-0.2069,-1,2
588,0.23455,-0.2068,-1,2
589,0.23415,-0.2064,-1,2
590,0.23394,-0.2058,-1,2
591,0.23374,-0.2052,-1,2
592,0.23374,-0.2047,-1,2
593,0.23334,-0.204,-1,2
594,0.23334,-0.2032,-1,2
595,0.23294,-0.2026,-1,2
596,0.23274,-0.2019,-1,2
597,0.23254,-0.2013,-1,2
598,0.23234,-0.2007,-1,2
599,0.23214,-0.2002,-1,2
600,0.23195,-0.1997,-1,2
601,0.23175,-0.1993,-1,2
602,0.23155,-0.1991,-1,2
603,0.23135,-0.1989,-1,2
604,0.23115,-0.1989,-1,2
605,0.23095,-0.1986,-1,2
606,0.23075,-0.1987,-1,2
607,0.23055,-0.1987,-1,2
608,0.23035,-0.1986,-1,2
609,0.23016,-0.1987,-1,2
610,0.22996,-0.1987,-1,2
611,0.22976,-0.1987,-1,2
612,0.22956,-0.1984,-1,2
613,0.22936,-0.1983,-1,2
614,0.22917,-0.198,-1,2
615,0.22897,-0.1977,-1,2
616,0.22878,-0.1971,-1,2
617,0.22859,-0.1965,-1,2
618,0.2282,-0.1959,-1,2
619,0.22801,-0.1952,-1,2
620,0.22782,-0.1944,-1,2
621,0.22763,-0.1935,-1,2
622,0.22744,-0.1927,-1,2
623,0.22725,-0.1918,-1,2
624,0.22707,-0.1909,-1,2
625,0.22688,-0.1902,-1,2
626,0.22669,-0.1893,-1,2
627,0.22651,-0.1885,-1,2
628,0.22633,-0.1878,-1,2
629,0.22614,-0.187,-1,2
630,0.22596,-0.1862,-1,2
631,0.22578,-0.1855,-1,2
632,0.2256,-0.1845,-1,2
633,0.22524,-0.1835,-1,2
634,0.22524,-0.1824,-1,2
635,0.22489,-0.181,-1,2
636,0.22472,-0.1799,-1,2
637,0.22455,-0.1785,-1,2
638,0.22438,-0.177,-1,2
639,0.22421,-0.1754,-1,2
640,0.22404,-0.1739,-1,2
641,0.22388,-0.1722,-1,2
642,0.22371,-0.1706,-1,2
643,0.22355,-0.1691,-1,2
644,0.22339,-0.1676,-1,2
645,0.22323,-0.1662,-1,2
646,0.22307,-0.1647,-1,2
647,0.22291,-0.1634,-1,2
648,0.22275,-0.162,-1,2
649,0.2226,-0.1608,-1,2
650,0.22244,-0.1596,-1,2
651,0.22229,-0.1586,-1,2
652,0.22213,-0.1578,-1,2
653,0.22197,-0.1569,-1,2
654,0.22182,-0.1562,-1,2
655,0.22151,-0.1555,-1,2
656,0.22136,-0.155,-1,2
657,0.22121,-0.1544,-1,2
658,0.22106,-0.1539,-1,2
659,0.22091,-0.1534,-1,2
660,0.22076,-0.153,-1,2
661,0.22061,-0.1524,-1,2
662,0.22046,-0.1518,-1,2
663,0.22031,-0.1513,-1,2
664,0.22016,-0.1506,-1,2
665,0.22002,-0.15,-1,2
666,0.21987,-0.1491,-1,2
667,0.21973,-0.1484,-1,2
668,0.21958,-0.1476,-1,2
669,0.21944,-0.1468,-1,2
670,0.2193,-0.1458,-1,2
671,0.21916,-0.145,-1,2
672,0.21902,-0.144,-1,2
673,0.21888,-0.143,-1,2
674,0.21874,-0.1419,-1,2
675,0.21861,-0.1406,-1,2
676,0.21848,-0.1394,-1,2
677,0.21821,-0.1381,-1,2
678,0.21808,-0.1369,-1,2
679,0.21795,-0.1355,-1,2
680,0.21782,-0.1342,-1,2
681,0.2177,-0.1327,-1,2
682,0.21757,-0.1313,-1,2
683,0.21745,-0.1298,-1,2
684,0.21732,-0.1285,-1,2
685,0.2172,-0.1273,-1,2
686,0.21708,-0.126,-1,2
687,0.21696,-0.1247,-1,2
688,0.21685,-0.1232,-1,2
689,0.21673,-0.122,-1,2
690,0.21661,-0.1208,-1,2
691,0.2165,-0.1196,-1,2
692,0.21639,-0.1185,-1,2
693,0.21627,-0.1173,-1,2
694,0.21605,-0.116,-1,2
695,0.21605,-0.1148,-1,2
696,0.21594,-0.1137,-1,2
697,0.21583,-0.1124,-1,2
698,0.21562,-0.1114,-1,2
699,0.21552,-0.1101,-1,2
700,0.21541,-0.1089,-1,2
701,0.21531,-0.1077,-1,2
702,0.21521,-0.1064,-1,2
703,0.21511,-0.1051,-1,2
704,0.21502,-0.1038,-1,2
705,0.21492,-0.1024,-1,2
706,0.21482,-0.101,-1,2
707,0.21473,-0.0998,-1,2
708,0.21464,-0.0984,-1,2
709,0.21455,-0.0971,-1,2
710,0.21446,-0.0957,-1,2
711,0.21437,-0.0943,-1,2
712,0.21428,-0.093,-1,2
713,0.21419,-0.0917,-1,2
714,0.21411,-0.0906,-1,2
715,0.21403,-0.0894,-1,2
716,0.21394,-0.0882,-1,2
717,0.21386,-0.087,-1,2
718,0.21378,-0.0859,-1,2
719,0.2137,-0.0848,-1,2
720,0.21362,-0.0835,-1,2
721,0.21347,-0.0823,-1,2
722,0.21339,-0.081,-1,2
723,0.21332,-0.0798,-1,2
724,0.21324,-0.0785,-1,2
725,0.21317,-0.0773,-1,2
726,0.2131,-0.076,-1,2
727,0.21303,-0.0747,-1,2
728,0.21297,-0.0734,-1,2
729,0.2129,-0.0722,-1,2
730,0.21283,-0.0711,-1,2
731,0.21277,-0.07,-1,2
732,0.2127,-0.0689,-1,2
733,0.21264,-0.0679,-1,2
734,0.21257,-0.0669,-1,2
735,0.21251,-0.066,-1,2
736,0.21245,-0.0651,-1,2
737,0.21239,-0.0643,-1,2
738,0.21233,-0.0635,-1,2
739,0.21227,-0.0627,-1,2
740,0.21221,-0.0621,-1,2
741,0.21215,-0.0615,-1,2
742,0.21203,-0.0609,-1,2
743,0.21198,-0.0603,-1,2
744,0.21192,-0.0597,-1,2
745,0.21186,-0.059,-1,2
746,0.21181,-0.0586,-1,2
747,0.21175,-0.058,-1,2
748,0.2117,-0.0576,-1,2
749,0.21164,-0.057,-1,2
750,0.21159,-0.0564,-1,2
751,0.21153,-0.056,-1,2
752,0.21148,-0.0556,-1,2
753,0.21143,-0.0552,-1,2
754,0.21137,-0.0548,-1,2
755,0.21132,-0.0544,-1,2
756,0.21127,-0.054,-1,2
757,0.21122,-0.0537,-1,2
758,0.21116,-0.0533,-1,2
759,0.21111,-0.053,-1,2
760,0.21106,-0.0527,-1,2
761,0.21101,-0.0523,-1,2
762,0.21096,-0.052,-1,2
763,0.21091,-0.0516,-1,2
764,0.21081,-0.0512,-1,2
765,0.21081,-0.0508,-1,2
766,0.21072,-0.0503,-1,2
767,0.21067,-0.0498,-1,2
768,0.21062,-0.0492,-1,2
769,0.21058,-0.0487,-1,2
770,0.21053,-0.0481,-1,2
771,0.21049,-0.0474,-1,2
772,0.21045,-0.0467,-1,2
773,0.2104,-0.046,-1,2
774,0.21036,-0.0453,-1,2
775,0.21032,-0.0447,-1,2
776,0.21028,-0.044,-1,2
777,0.21024,-0.0433,-1,2
778,0.2102,-0.0427,-1,2
779,0.21016,-0.0421,-1,2
780,0.21012,-0.0415,-1,2
781,0.21008,-0.0409,-1,2
782,0.21004,-0.0403,-1,2
783,0.21001,-0.0397,-1,2
784,0.20997,-0.0393,-1,2
785,0.20993,-0.0388,-1,2
786,0.2099,-0.0385,-1,2
787,0.20986,-0.0382,-1,2
788,0.20982,-0.0379,-1,2
789,0.20975,-0.0376,-1,2
790,0.20971,-0.0372,-1,2
791,0.20968,-0.0369,-1,2
792,0.20968,-0.0366,-1,2
793,0.20961,-0.0365,-1,2
794,0.20957,-0.0362,-1,2
795,0.20954,-0.0359,-1,2
796,0.2095,-0.0356,-1,2
797,0.20947,-0.0353,-1,2
798,0.20944,-0.0349,-1,2
799,0.2094,-0.0345,-1,2
800,0.20937,-0.0343,-1,2
801,0.20934,-0.0342,-1,2
802,0.2093,-0.034,-1,2
803,0.20927,-0.0337,-1,2
804,0.20924,-0.0335,-1,2
805,0.2092,-0.0335,-1,2
806,0.20917,-0.0332,-1,2
807,0.20914,-0.0331,-1,2
808,0.20911,-0.033,-1,2
809,0.20907,-0.0331,-1,2
810,0.20904,-0.0331,-1,2
811,0.20901,-0.033,-1,2
812,0.20897,-0.0331,-1,2
813,0.20891,-0.0331,-1,2
814,0.20887,-0.0331,-1,2
815,0.20884,-0.0329,-1,2
816,0.20881,-0.033,-1,2
817,0.20878,-0.033,-1,2
818,0.20874,-0.0331,-1,2
819,0.20871,-0.0329,-1,2
820,0.20868,-0.0329,-1,2
821,0.20865,-0.0328,-1,2
822,0.20861,-0.0326,-1,2
823,0.20858,-0.0325,-1,2
824,0.20855,-0.0324,-1,2
825,0.20852,-0.0325,-1,2
826,0.20848,-0.0324,-1,2
827,0.20845,-0.0323,-1,2
828,0.20842,-0.0323,-1,2
