cnt,pos,speed,Dir,Force,
1,0,1.8624,-1,1
2,0.00188017,1.8665,-1,1
3,0.00376034,1.8701,-1,1
4,0.00564003,1.8727,-1,1
5,0.00753021,1.8752,-1,1
6,0.00941038,1.8772,-1,1
7,0.0112901,1.8787,-1,1
8,0.0131702,1.8797,-1,1
9,0.0150599,1.8805,-1,1
10,0.0169401,1.8811,-1,1
11,0.0188203,1.881,-1,1
12,0.02069,1.8806,-1,1
13,0.0225701,1.88,-1,1
14,0.0244403,1.879,-1,1
15,0.0263,1.8774,-1,1
16,0.0281701,1.8757,-1,1
17,0.0300303,1.8737,-1,1
18,0.0318904,1.8714,-1,1
19,0.03374,1.8685,-1,1
20,0.0355902,1.8651,-1,1
21,0.0374303,1.8615,-1,1
22,0.0392704,1.8578,-1,1
23,0.0429401,1.8534,-1,1
24,0.0447602,1.8484,-1,1
25,0.0465803,1.8433,-1,1
26,0.0483904,1.8383,-1,1
27,0.0502,1.8332,-1,1
28,0.0502,1.8277,-1,1
29,0.052,1.8226,-1,1
30,0.0538001,1.8173,-1,1
31,0.0555801,1.8118,-1,1
32,0.0573702,1.8064,-1,1
33,0.0591502,1.8012,-1,1
34,0.0609202,1.7958,-1,1
35,0.0626903,1.7901,-1,1
36,0.0662003,1.7841,-1,1
37,0.0679502,1.7775,-1,1
38,0.0679502,1.7715,-1,1
39,0.0696902,1.7655,-1,1
40,0.0731602,1.7593,-1,1
41,0.0748901,1.753,-1,1
42,0.0748901,1.7461,-1,1
43,0.0766001,1.7397,-1,1
44,0.08003,1.7341,-1,1
45,0.0817404,1.7288,-1,1
46,0.0834303,1.7232,-1,1
47,0.0851202,1.7173,-1,1
48,0.0868001,1.7115,-1,1
49,0.08849,1.7056,-1,1
50,0.0901704,1.7001,-1,1
51,0.0918303,1.6947,-1,1
52,0.0935001,1.6892,-1,1
53,0.09515,1.6835,-1,1
54,0.0984602,1.6772,-1,1
55,0.1001,1.6705,-1,1
56,0.10173,1.6641,-1,1
57,0.10336,1.6583,-1,1
58,0.10498,1.6524,-1,1
59,0.1066,1.6461,-1,1
60,0.10822,1.6396,-1,1
61,0.10982,1.6334,-1,1
62,0.11143,1.6275,-1,1
63,0.11302,1.6213,-1,1
64,0.11461,1.6155,-1,1
65,0.11619,1.6099,-1,1
66,0.11777,1.6044,-1,1
67,0.11935,1.5991,-1,1
68,0.12092,1.5937,-1,1
69,0.12248,1.5877,-1,1
70,0.12403,1.5817,-1,1
71,0.12558,1.5761,-1,1
72,0.12713,1.5707,-1,1
73,0.12868,1.5656,-1,1
74,0.13021,1.5602,-1,1
75,0.13174,1.5543,-1,1
76,0.13326,1.5483,-1,1
77,0.1363,1.5426,-1,1
78,0.13781,1.5366,-1,1
79,0.13931,1.5306,-1,1
80,0.1408,1.5245,-1,1
81,0.14229,1.5186,-1,1
82,0.14378,1.5128,-1,1
83,0.14527,1.5068,-1,1
84,0.14674,1.501,-1,1
85,0.14821,1.4955,-1,1
86,0.14968,1.4899,-1,1
87,0.15114,1.4842,-1,1
88,0.1526,1.4792,-1,1
89,0.15405,1.4744,-1,1
90,0.15549,1.4696,-1,1
91,0.15693,1.4642,-1,1
92,0.15837,1.4587,-1,1
93,0.1598,1.4534,-1,1
94,0.16123,1.4482,-1,1
95,0.16265,1.4433,-1,1
96,0.16406,1.438,-1,1
97,0.16547,1.4327,-1,1
98,0.16687,1.4267,-1,1
99,0.16967,1.4209,-1,1
100,0.17105,1.4152,-1,1
101,0.17244,1.4097,-1,1
102,0.17382,1.4045,-1,1
103,0.1752,1.3994,-1,1
104,0.17657,1.3939,-1,1
105,0.17793,1.388,-1,1
106,0.17929,1.3827,-1,1
107,0.18065,1.3775,-1,1
108,0.182,1.3732,-1,1
109,0.18336,1.3691,-1,1
110,0.1847,1.365,-1,1
111,0.18737,1.3596,-1,1
112,0.1887,1.3545,-1,1
113,0.19003,1.35,-1,1
114,0.19003,1.3459,-1,1
115,0.19268,1.3417,-1,1
116,0.19268,1.3368,-1,1
117,0.19529,1.3315,-1,1
118,0.1966,1.3263,-1,1
119,0.19791,1.3222,-1,1
120,0.19922,1.3181,-1,1
121,0.20051,1.3148,-1,1
122,0.2018,1.3101,-1,1
123,0.20307,1.3043,-1,1
124,0.20436,1.2998,-1,1
125,0.20565,1.2969,-1,1
126,0.20693,1.2943,-1,1
127,0.20821,1.2912,-1,1
128,0.20947,1.2869,-1,1
129,0.21073,1.2815,-1,1
130,0.21199,1.2776,-1,1
131,0.21453,1.2748,-1,1
132,0.21579,1.272,-1,1
133,0.21703,1.269,-1,1
134,0.21828,1.265,-1,1
135,0.21953,1.2612,-1,1
136,0.22079,1.259,-1,1
137,0.22205,1.2575,-1,1
138,0.2233,1.2564,-1,1
139,0.22454,1.2545,-1,1
140,0.22578,1.2517,-1,1
141,0.22703,1.2494,-1,1
142,0.22954,1.2495,-1,1
143,0.22954,1.2498,-1,1
144,0.23079,1.2493,-1,1
145,0.23327,1.2477,-1,1
146,0.23327,1.2458,-1,1
147,0.23451,1.2441,-1,1
148,0.23576,1.245,-1,1
149,0.23828,1.2471,-1,1
150,0.23953,1.2482,-1,1
151,0.24077,1.2478,-1,1
152,0.24202,1.2462,-1,1
153,0.24327,1.2463,-1,1
154,0.24453,1.2485,-1,1
155,0.2458,1.2514,-1,1
156,0.24706,1.254,-1,1
157,0.24832,1.2555,-1,1
158,0.24957,1.2546,-1,1
159,0.25083,1.2542,-1,1
160,0.25209,1.256,-1,1
161,0.25337,1.2595,-1,1
162,0.25465,1.2631,-1,1
163,0.25592,1.2656,-1,1
164,0.25719,1.2663,-1,1
165,0.25846,1.2666,-1,1
166,0.25974,1.2676,-1,1
167,0.26102,1.2705,-1,1
168,0.26231,1.274,-1,1
169,0.2636,1.2771,-1,1
170,0.26488,1.279,-1,1
171,0.26617,1.2803,-1,1
172,0.26747,1.2822,-1,1
173,0.26877,1.2846,-1,1
174,0.27007,1.2877,-1,1
175,0.27137,1.2908,-1,1
176,0.27267,1.2932,-1,1
177,0.27398,1.2957,-1,1
178,0.2753,1.299,-1,1
179,0.27662,1.3024,-1,1
180,0.27794,1.3056,-1,1
181,0.27925,1.3083,-1,1
182,0.28057,1.3106,-1,1
183,0.28191,1.3139,-1,1
184,0.28325,1.3183,-1,1
185,0.2846,1.323,-1,1
186,0.28594,1.327,-1,1
187,0.28727,1.3297,-1,1
188,0.28862,1.3318,-1,1
189,0.28997,1.3352,-1,1
190,0.29134,1.3403,-1,1
191,0.29271,1.3458,-1,1
192,0.29545,1.3502,-1,1
193,0.29682,1.3534,-1,1
194,0.29819,1.3565,-1,1
195,0.29958,1.361,-1,1
196,0.30098,1.3669,-1,1
197,0.30238,1.3729,-1,1
198,0.30377,1.378,-1,1
199,0.30516,1.3815,-1,1
200,0.30656,1.3842,-1,1
201,0.30797,1.3881,-1,1
202,0.30939,1.3937,-1,1
203,0.31081,1.3991,-1,1
204,0.31222,1.4028,-1,1
205,0.31364,1.4055,-1,1
206,0.31505,1.4074,-1,1
207,0.31648,1.4101,-1,1
208,0.31791,1.4144,-1,1
209,0.31935,1.4189,-1,1
210,0.32078,1.4227,-1,1
211,0.32222,1.425,-1,1
212,0.32365,1.4261,-1,1
213,0.32652,1.4281,-1,1
214,0.32652,1.431,-1,1
215,0.32941,1.4334,-1,1
216,0.33085,1.4359,-1,1
217,0.33229,1.4379,-1,1
218,0.33373,1.4384,-1,1
219,0.33517,1.4386,-1,1
220,0.33661,1.4393,-1,1
221,0.33806,1.4404,-1,1
222,0.3395,1.442,-1,1
223,0.34095,1.4425,-1,1
224,0.34239,1.4419,-1,1
225,0.34382,1.4413,-1,1
226,0.3467,1.4408,-1,1
227,0.34814,1.4405,-1,1
228,0.34958,1.4403,-1,1
229,0.35101,1.4402,-1,1
230,0.35245,1.4395,-1,1
231,0.35388,1.4384,-1,1
232,0.35531,1.437,-1,1
233,0.35674,1.4356,-1,1
234,0.35817,1.4352,-1,1
235,0.35961,1.4347,-1,1
236,0.36104,1.4339,-1,1
237,0.36246,1.4324,-1,1
238,0.36389,1.431,-1,1
239,0.36531,1.43,-1,1
240,0.36673,1.4287,-1,1
241,0.36816,1.4277,-1,1
242,0.36958,1.4266,-1,1
243,0.371,1.4253,-1,1
244,0.37241,1.4239,-1,1
245,0.37383,1.4221,-1,1
246,0.37524,1.4199,-1,1
247,0.37806,1.4183,-1,1
248,0.37947,1.4165,-1,1
249,0.38087,1.4143,-1,1
250,0.38227,1.4124,-1,1
251,0.38367,1.4101,-1,1
252,0.38507,1.4075,-1,1
253,0.38646,1.4051,-1,1
254,0.38785,1.4024,-1,1
255,0.38924,1.3999,-1,1
256,0.39201,1.3974,-1,1
257,0.39339,1.3945,-1,1
258,0.39477,1.3914,-1,1
259,0.39614,1.388,-1,1
260,0.39751,1.3846,-1,1
261,0.39888,1.3816,-1,1
262,0.40024,1.3788,-1,1
263,0.40161,1.3759,-1,1
264,0.40296,1.3725,-1,1
265,0.40431,1.3685,-1,1
266,0.40566,1.3648,-1,1
267,0.40701,1.3615,-1,1
268,0.40835,1.3587,-1,1
269,0.4097,1.3559,-1,1
270,0.41103,1.3524,-1,1
271,0.41236,1.3481,-1,1
272,0.41368,1.3436,-1,1
273,0.415,1.3396,-1,1
274,0.41633,1.3365,-1,1
275,0.41765,1.3336,-1,1
276,0.41896,1.3302,-1,1
277,0.42027,1.3257,-1,1
278,0.42287,1.3209,-1,1
279,0.42417,1.3166,-1,1
280,0.42546,1.3129,-1,1
281,0.42675,1.309,-1,1
282,0.42803,1.3048,-1,1
283,0.42932,1.3006,-1,1
284,0.43059,1.2959,-1,1
285,0.43187,1.2915,-1,1
286,0.43314,1.2872,-1,1
287,0.4344,1.2831,-1,1
288,0.43566,1.2786,-1,1
289,0.43817,1.2741,-1,1
290,0.43942,1.2697,-1,1
291,0.44067,1.2654,-1,1
292,0.4419,1.261,-1,1
293,0.44313,1.2558,-1,1
294,0.44436,1.251,-1,1
295,0.44559,1.2465,-1,1
296,0.44682,1.2422,-1,1
297,0.44804,1.2383,-1,1
298,0.44926,1.2343,-1,1
299,0.45046,1.2292,-1,1
300,0.45166,1.224,-1,1
301,0.45286,1.2195,-1,1
302,0.45406,1.2163,-1,1
303,0.45526,1.2133,-1,1
304,0.45645,1.2091,-1,1
305,0.45763,1.204,-1,1
306,0.4588,1.1985,-1,1
307,0.46115,1.1935,-1,1
308,0.46232,1.1896,-1,1
309,0.46349,1.1861,-1,1
310,0.46465,1.182,-1,1
311,0.4658,1.1766,-1,1
312,0.46694,1.1703,-1,1
313,0.46808,1.1647,-1,1
314,0.46923,1.1607,-1,1
315,0.47038,1.1572,-1,1
316,0.47151,1.1538,-1,1
317,0.47264,1.1494,-1,1
318,0.47376,1.1439,-1,1
319,0.47488,1.139,-1,1
320,0.47712,1.1354,-1,1
321,0.47824,1.1327,-1,1
322,0.47935,1.1295,-1,1
323,0.48045,1.1253,-1,1
324,0.48155,1.12,-1,1
325,0.48264,1.1149,-1,1
326,0.48374,1.1108,-1,1
327,0.48484,1.1077,-1,1
328,0.48593,1.1052,-1,1
329,0.48702,1.1022,-1,1
330,0.4881,1.098,-1,1
331,0.48917,1.0935,-1,1
332,0.49025,1.0898,-1,1
333,0.49132,1.0872,-1,1
334,0.4924,1.0855,-1,1
335,0.49348,1.0835,-1,1
336,0.49455,1.0809,-1,1
337,0.49561,1.0774,-1,1
338,0.49667,1.0733,-1,1
339,0.49878,1.0701,-1,1
340,0.49984,1.0679,-1,1
341,0.5009,1.0666,-1,1
342,0.50196,1.0649,-1,1
343,0.50301,1.0623,-1,1
344,0.50405,1.0588,-1,1
345,0.50509,1.0556,-1,1
346,0.50614,1.053,-1,1
347,0.50718,1.0514,-1,1
348,0.50823,1.0507,-1,1
349,0.50928,1.0494,-1,1
350,0.51031,1.0472,-1,1
351,0.51135,1.0448,-1,1
352,0.51239,1.0426,-1,1
353,0.51342,1.041,-1,1
354,0.51446,1.0403,-1,1
355,0.5155,1.04,-1,1
356,0.51653,1.0391,-1,1
357,0.51756,1.0375,-1,1
358,0.51859,1.0358,-1,1
359,0.51962,1.0345,-1,1
360,0.52065,1.0339,-1,1
361,0.52168,1.0333,-1,1
362,0.52375,1.0333,-1,1
363,0.52478,1.0331,-1,1
364,0.52581,1.0325,-1,1
365,0.52684,1.0315,-1,1
366,0.52787,1.0307,-1,1
367,0.5289,1.0304,-1,1
368,0.52993,1.0305,-1,1
369,0.53096,1.0308,-1,1
370,0.532,1.031,-1,1
371,0.53406,1.0311,-1,1
372,0.53509,1.0308,-1,1
373,0.53612,1.0305,-1,1
374,0.53715,1.0305,-1,1
375,0.53819,1.0312,-1,1
376,0.53923,1.0324,-1,1
377,0.54027,1.0335,-1,1
378,0.5413,1.0339,-1,1
379,0.54233,1.0338,-1,1
380,0.54337,1.0341,-1,1
381,0.54441,1.0345,-1,1
382,0.54545,1.0352,-1,1
383,0.54649,1.0363,-1,1
384,0.54753,1.0377,-1,1
385,0.54857,1.0386,-1,1
386,0.54961,1.0386,-1,1
387,0.55065,1.0388,-1,1
388,0.5517,1.0395,-1,1
389,0.55274,1.0405,-1,1
390,0.55378,1.0414,-1,1
391,0.55483,1.0426,-1,1
392,0.55693,1.0438,-1,1
393,0.55798,1.0449,-1,1
394,0.55903,1.0453,-1,1
395,0.56008,1.0456,-1,1
396,0.56113,1.0466,-1,1
397,0.56218,1.0481,-1,1
398,0.56324,1.0495,-1,1
399,0.56429,1.0508,-1,1
400,0.56535,1.0518,-1,1
401,0.56641,1.0528,-1,1
402,0.56853,1.0539,-1,1
403,0.56853,1.055,-1,1
404,0.57065,1.0565,-1,1
405,0.57171,1.0581,-1,1
406,0.57171,1.0595,-1,1
407,0.57278,1.0603,-1,1
408,0.57384,1.0614,-1,1
409,0.57598,1.0628,-1,1
410,0.57705,1.0644,-1,1
411,0.57812,1.0659,-1,1
412,0.5792,1.0671,-1,1
413,0.58027,1.0684,-1,1
414,0.58134,1.0695,-1,1
415,0.58242,1.0706,-1,1
416,0.5835,1.072,-1,1
417,0.58458,1.0738,-1,1
418,0.58567,1.0756,-1,1
419,0.58675,1.0773,-1,1
420,0.58784,1.0786,-1,1
421,0.59001,1.08,-1,1
422,0.5911,1.0817,-1,1
423,0.59219,1.0836,-1,1
424,0.59329,1.086,-1,1
425,0.59439,1.0885,-1,1
426,0.59549,1.0908,-1,1
427,0.59659,1.0923,-1,1
428,0.59768,1.0936,-1,1
429,0.59879,1.0951,-1,1
430,0.5999,1.0976,-1,1
431,0.60212,1.1004,-1,1
432,0.60324,1.1027,-1,1
433,0.60324,1.1044,-1,1
434,0.60435,1.1059,-1,1
435,0.60546,1.1072,-1,1
436,0.60658,1.1088,-1,1
437,0.6077,1.1113,-1,1
438,0.60883,1.1143,-1,1
439,0.60996,1.1172,-1,1
440,0.61109,1.1188,-1,1
441,0.61221,1.1201,-1,1
442,0.61447,1.1222,-1,1
443,0.61561,1.1249,-1,1
444,0.61561,1.1277,-1,1
445,0.6179,1.1308,-1,1
446,0.61904,1.1334,-1,1
447,0.62018,1.1354,-1,1
448,0.62133,1.1368,-1,1
449,0.62247,1.1391,-1,1
450,0.62479,1.1424,-1,1
451,0.62594,1.1453,-1,1
452,0.6271,1.1477,-1,1
453,0.62826,1.1497,-1,1
454,0.62942,1.1514,-1,1
455,0.63058,1.1533,-1,1
456,0.63175,1.1556,-1,1
457,0.63292,1.1587,-1,1
458,0.63409,1.1619,-1,1
459,0.63527,1.1639,-1,1
460,0.63644,1.1653,-1,1
461,0.63761,1.1668,-1,1
462,0.63997,1.1694,-1,1
463,0.63997,1.1724,-1,1
464,0.64116,1.1758,-1,1
465,0.64235,1.1787,-1,1
466,0.64354,1.181,-1,1
467,0.64473,1.1824,-1,1
468,0.64711,1.1844,-1,1
469,0.64831,1.187,-1,1
470,0.64951,1.1901,-1,1
471,0.65072,1.1933,-1,1
472,0.65192,1.195,-1,1
473,0.65312,1.1962,-1,1
474,0.65432,1.1974,-1,1
475,0.65553,1.1991,-1,1
476,0.65675,1.2018,-1,1
477,0.65796,1.2046,-1,1
478,0.65918,1.2066,-1,1
479,0.66161,1.2082,-1,1
480,0.66283,1.21,-1,1
481,0.66405,1.2119,-1,1
482,0.66528,1.2144,-1,1
483,0.6665,1.2172,-1,1
484,0.66773,1.2196,-1,1
485,0.66896,1.2217,-1,1
486,0.67019,1.2232,-1,1
487,0.67143,1.2252,-1,1
488,0.67266,1.2273,-1,1
489,0.6739,1.2297,-1,1
490,0.67514,1.2317,-1,1
491,0.67639,1.2338,-1,1
492,0.67763,1.2353,-1,1
493,0.67887,1.237,-1,1
494,0.68012,1.2389,-1,1
495,0.68137,1.2411,-1,1
496,0.68263,1.2432,-1,1
497,0.68388,1.2453,-1,1
498,0.68513,1.2472,-1,1
499,0.68639,1.2485,-1,1
500,0.68764,1.2506,-1,1
501,0.69017,1.2526,-1,1
502,0.69143,1.2549,-1,1
503,0.6927,1.2571,-1,1
504,0.69397,1.2589,-1,1
505,0.69523,1.2604,-1,1
506,0.6965,1.262,-1,1
507,0.69777,1.2636,-1,1
508,0.69905,1.2656,-1,1
509,0.70032,1.2679,-1,1
510,0.7016,1.2692,-1,1
511,0.70287,1.2704,-1,1
512,0.70415,1.2715,-1,1
513,0.70543,1.2727,-1,1
514,0.70671,1.2747,-1,1
515,0.70799,1.2765,-1,1
516,0.70928,1.2783,-1,1
517,0.71056,1.2793,-1,1
518,0.71184,1.2801,-1,1
519,0.71313,1.2809,-1,1
520,0.71441,1.2821,-1,1
521,0.7157,1.2834,-1,1
522,0.71699,1.285,-1,1
523,0.71828,1.2861,-1,1
524,0.72086,1.2866,-1,1
525,0.72215,1.2872,-1,1
526,0.72345,1.2879,-1,1
527,0.72474,1.2894,-1,1
528,0.72604,1.2906,-1,1
529,0.72733,1.2918,-1,1
530,0.72863,1.2927,-1,1
531,0.72992,1.2932,-1,1
532,0.73122,1.2936,-1,1
533,0.73252,1.2945,-1,1
534,0.73382,1.2954,-1,1
535,0.73512,1.2961,-1,1
536,0.73771,1.2967,-1,1
537,0.73901,1.2967,-1,1
538,0.74031,1.2973,-1,1
539,0.74161,1.298,-1,1
540,0.74292,1.2986,-1,1
541,0.74421,1.2991,-1,1
542,0.74551,1.2996,-1,1
543,0.74682,1.2999,-1,1
544,0.74812,1.3002,-1,1
545,0.74942,1.3007,-1,1
546,0.75073,1.3014,-1,1
547,0.75203,1.3018,-1,1
548,0.75333,1.3019,-1,1
549,0.75463,1.3021,-1,1
550,0.75594,1.3027,-1,1
551,0.75725,1.3033,-1,1
552,0.75855,1.3036,-1,1
553,0.75986,1.3038,-1,1
554,0.76116,1.304,-1,1
555,0.76247,1.3043,-1,1
556,0.76377,1.3045,-1,1
557,0.76508,1.3048,-1,1
558,0.76639,1.305,-1,1
559,0.76899,1.305,-1,1
560,0.7703,1.3051,-1,1
561,0.77161,1.3054,-1,1
562,0.77161,1.3058,-1,1
563,0.77292,1.3059,-1,1
564,0.77553,1.3059,-1,1
565,0.77683,1.3057,-1,1
566,0.77814,1.3055,-1,1
567,0.77945,1.306,-1,1
568,0.78075,1.3062,-1,1
569,0.78206,1.306,-1,1
570,0.78336,1.3054,-1,1
571,0.78466,1.3049,-1,1
572,0.78596,1.3046,-1,1
573,0.78727,1.3048,-1,1
574,0.78858,1.305,-1,1
575,0.78988,1.305,-1,1
576,0.79118,1.3043,-1,1
577,0.79248,1.3033,-1,1
578,0.79378,1.3032,-1,1
579,0.79509,1.3033,-1,1
580,0.79639,1.3033,-1,1
581,0.79769,1.3031,-1,1
582,0.79899,1.3024,-1,1
583,0.80029,1.3013,-1,1
584,0.80159,1.3007,-1,1
585,0.80289,1.3007,-1,1
586,0.80419,1.301,-1,1
587,0.80549,1.301,-1,1
588,0.80679,1.3003,-1,1
589,0.80938,1.2994,-1,1
590,0.81068,1.2989,-1,1
591,0.81198,1.2992,-1,1
592,0.81328,1.2997,-1,1
593,0.81458,1.2998,-1,1
594,0.81587,1.2992,-1,1
595,0.81717,1.298,-1,1
596,0.81846,1.2973,-1,1
597,0.81976,1.2975,-1,1
598,0.82106,1.2979,-1,1
599,0.82366,1.2978,-1,1
600,0.82495,1.2972,-1,1
601,0.82624,1.2962,-1,1
602,0.82754,1.2958,-1,1
603,0.82884,1.2961,-1,1
604,0.83014,1.2964,-1,1
605,0.83143,1.2966,-1,1
606,0.83272,1.2964,-1,1
607,0.83402,1.2955,-1,1
608,0.83531,1.2949,-1,1
609,0.83661,1.2952,-1,1
610,0.8379,1.2955,-1,1
611,0.83919,1.2952,-1,1
612,0.84049,1.2945,-1,1
613,0.84178,1.2939,-1,1
614,0.84307,1.2935,-1,1
615,0.84437,1.2934,-1,1
616,0.84566,1.2934,-1,1
617,0.84695,1.2933,-1,1
618,0.84824,1.2928,-1,1
619,0.84953,1.2923,-1,1
620,0.85082,1.2919,-1,1
621,0.85211,1.2919,-1,1
622,0.8534,1.2917,-1,1
623,0.85598,1.2912,-1,1
624,0.85727,1.291,-1,1
625,0.85856,1.2905,-1,1
626,0.85985,1.2902,-1,1
627,0.86114,1.2901,-1,1
628,0.86243,1.2899,-1,1
629,0.86372,1.2896,-1,1
630,0.86501,1.2895,-1,1
631,0.86629,1.2891,-1,1
632,0.86758,1.2889,-1,1
633,0.86887,1.2887,-1,1
634,0.87016,1.2883,-1,1
635,0.87144,1.2882,-1,1
636,0.87273,1.288,-1,1
637,0.87402,1.2876,-1,1
638,0.8753,1.2873,-1,1
639,0.87787,1.287,-1,1
640,0.87916,1.2867,-1,1
641,0.88044,1.2866,-1,1
642,0.88173,1.2862,-1,1
643,0.88301,1.2856,-1,1
644,0.88429,1.2852,-1,1
645,0.88557,1.2848,-1,1
646,0.88686,1.2846,-1,1
647,0.88814,1.2845,-1,1
648,0.88942,1.284,-1,1
649,0.8907,1.2833,-1,1
650,0.89326,1.2827,-1,1
651,0.89454,1.2825,-1,1
652,0.89583,1.2824,-1,1
653,0.8971,1.282,-1,1
654,0.89838,1.281,-1,1
655,0.89965,1.2798,-1,1
656,0.90092,1.2789,-1,1
657,0.9022,1.2781,-1,1
658,0.90348,1.2779,-1,1
659,0.90475,1.2774,-1,1
660,0.90602,1.276,-1,1
661,0.90729,1.2742,-1,1
662,0.90855,1.2728,-1,1
663,0.90983,1.2723,-1,1
664,0.9111,1.2723,-1,1
665,0.91237,1.272,-1,1
666,0.91363,1.2706,-1,1
667,0.91489,1.2686,-1,1
668,0.91615,1.2669,-1,1
669,0.91741,1.2661,-1,1
670,0.91994,1.2659,-1,1
671,0.9212,1.265,-1,1
672,0.92245,1.2634,-1,1
673,0.9237,1.2611,-1,1
674,0.92495,1.2592,-1,1
675,0.92621,1.2583,-1,1
676,0.92747,1.258,-1,1
677,0.92873,1.2577,-1,1
678,0.92997,1.2562,-1,1
679,0.93122,1.2538,-1,1
680,0.93246,1.2517,-1,1
681,0.93371,1.2511,-1,1
682,0.93496,1.2512,-1,1
683,0.93621,1.2502,-1,1
684,0.93869,1.2483,-1,1
685,0.93869,1.2458,-1,1
686,0.93992,1.2432,-1,1
687,0.94116,1.242,-1,1
688,0.94241,1.242,-1,1
689,0.94365,1.2423,-1,1
690,0.94489,1.2415,-1,1
691,0.94734,1.239,-1,1
692,0.94857,1.2367,-1,1
693,0.94981,1.2366,-1,1
694,0.95105,1.2371,-1,1
695,0.95229,1.2372,-1,1
696,0.95351,1.2364,-1,1
697,0.95473,1.2342,-1,1
698,0.95595,1.2315,-1,1
699,0.95718,1.23,-1,1
700,0.95842,1.2299,-1,1
701,0.95965,1.2295,-1,1
702,0.96208,1.2279,-1,1
703,0.9633,1.2257,-1,1
704,0.96452,1.2238,-1,1
705,0.96575,1.2233,-1,1
706,0.96698,1.2235,-1,1
707,0.9682,1.2234,-1,1
708,0.96941,1.2226,-1,1
709,0.97062,1.2205,-1,1
710,0.97183,1.2186,-1,1
711,0.97306,1.2188,-1,1
712,0.97428,1.2199,-1,1
713,0.9755,1.2201,-1,1
714,0.97671,1.2189,-1,1
715,0.97792,1.2164,-1,1
716,0.97912,1.2143,-1,1
717,0.98034,1.2141,-1,1
718,0.98156,1.2153,-1,1
719,0.98278,1.2163,-1,1
720,0.98399,1.2156,-1,1
721,0.98519,1.2134,-1,1
722,0.98639,1.2111,-1,1
723,0.98882,1.2108,-1,1
724,0.99004,1.2118,-1,1
725,0.99125,1.2125,-1,1
726,0.99245,1.2121,-1,1
727,0.99365,1.2103,-1,1
728,0.99485,1.2082,-1,1
729,0.99606,1.2073,-1,1
730,0.99728,1.2081,-1,1
731,0.99849,1.2092,-1,1
732,0.9997,1.2098,-1,1
733,1.0009,1.2082,-1,1
734,1.0021,1.2066,-1,1
735,1.00452,1.2065,-1,1
736,1.00573,1.2077,-1,1
737,1.00694,1.209,-1,1
738,1.00694,1.2091,-1,1
739,1.00815,1.2084,-1,1
740,1.00935,1.2069,-1,1
741,1.01055,1.2057,-1,1
742,1.01176,1.2057,-1,1
743,1.01297,1.2072,-1,1
744,1.01419,1.2079,-1,1
745,1.0154,1.2072,-1,1
746,1.0178,1.2058,-1,1
747,1.01901,1.2056,-1,1
748,1.02023,1.2069,-1,1
749,1.02145,1.2085,-1,1
750,1.02266,1.21,-1,1
751,1.02388,1.211,-1,1
752,1.02509,1.2112,-1,1
753,1.0263,1.2108,-1,1
754,1.02751,1.2115,-1,1
755,1.02874,1.2137,-1,1
756,1.03119,1.216,-1,1
757,1.03241,1.217,-1,1
758,1.03363,1.2171,-1,1
759,1.03485,1.2173,-1,1
760,1.03608,1.2188,-1,1
761,1.03732,1.2218,-1,1
762,1.03856,1.2248,-1,1
763,1.03979,1.2273,-1,1
764,1.04102,1.2283,-1,1
765,1.04225,1.2289,-1,1
766,1.04349,1.2306,-1,1
767,1.04475,1.234,-1,1
768,1.04601,1.238,-1,1
769,1.04726,1.2415,-1,1
770,1.04851,1.243,-1,1
771,1.04975,1.2434,-1,1
772,1.05101,1.2447,-1,1
773,1.05228,1.2483,-1,1
774,1.05356,1.2535,-1,1
775,1.05483,1.2579,-1,1
776,1.0561,1.2609,-1,1
777,1.05737,1.2621,-1,1
778,1.05864,1.2638,-1,1
779,1.05993,1.2672,-1,1
780,1.06123,1.2727,-1,1
781,1.06254,1.2785,-1,1
782,1.06384,1.2824,-1,1
783,1.06513,1.2845,-1,1
784,1.06643,1.2883,-1,1
785,1.06908,1.2937,-1,1
786,1.07041,1.3,-1,1
787,1.07174,1.3063,-1,1
788,1.07306,1.3112,-1,1
789,1.07439,1.3152,-1,1
790,1.07574,1.3198,-1,1
791,1.0771,1.3257,-1,1
792,1.07847,1.3332,-1,1
793,1.07983,1.3405,-1,1
794,1.08119,1.3447,-1,1
795,1.08256,1.3481,-1,1
796,1.08394,1.3546,-1,1
797,1.08534,1.3621,-1,1
798,1.08814,1.3699,-1,1
799,1.08954,1.3768,-1,1
800,1.09095,1.3827,-1,1
801,1.09095,1.3882,-1,1
802,1.09236,1.3932,-1,1
803,1.0938,1.4002,-1,1
804,1.09524,1.4086,-1,1
805,1.09668,1.4165,-1,1
806,1.09813,1.4209,-1,1
807,1.09958,1.4267,-1,1
808,1.10104,1.4337,-1,1
809,1.10399,1.4416,-1,1
810,1.10547,1.4493,-1,1
811,1.10696,1.4566,-1,1
812,1.10846,1.4646,-1,1
813,1.10996,1.4715,-1,1
814,1.11147,1.4779,-1,1
815,1.11298,1.4849,-1,1
816,1.1145,1.4929,-1,1
817,1.11604,1.5002,-1,1
818,1.11912,1.5073,-1,1
819,1.12066,1.5137,-1,1
820,1.12221,1.5203,-1,1
821,1.12378,1.5277,-1,1
822,1.12535,1.5353,-1,1
823,1.12693,1.5423,-1,1
824,1.1285,1.5491,-1,1
825,1.13008,1.5558,-1,1
826,1.13167,1.5627,-1,1
827,1.13327,1.5692,-1,1
828,1.13487,1.5753,-1,1
829,1.13648,1.5813,-1,1
830,1.13808,1.5867,-1,1
831,1.13969,1.5916,-1,1
832,1.14132,1.5967,-1,1
833,1.14295,1.6021,-1,1
834,1.14457,1.6073,-1,1
835,1.1462,1.6119,-1,1
836,1.14783,1.616,-1,1
837,1.14947,1.6203,-1,1
838,1.15112,1.6247,-1,1
839,1.15277,1.6294,-1,1
840,1.15442,1.6338,-1,1
