cnt,pos,speed,Dir,Force,
1,0,1.1417,-1,1
2,0.00111008,1.1361,-1,1
3,0.00221014,1.1304,-1,1
4,0.0033102,1.1246,-1,1
5,0.00440979,1.1193,-1,1
6,0.00549984,1.1139,-1,1
7,0.00657988,1.1086,-1,1
8,0.00765991,1.1028,-1,1
9,0.00872993,1.0968,-1,1
10,0.00979996,1.0915,-1,1
11,0.01086,1.0863,-1,1
12,0.01192,1.0814,-1,1
13,0.01298,1.0767,-1,1
14,0.01403,1.0717,-1,1
15,0.01507,1.0664,-1,1
16,0.0160999,1.0609,-1,1
17,0.0171299,1.0553,-1,1
18,0.0181599,1.0502,-1,1
19,0.0191798,1.0453,-1,1
20,0.0201998,1.0401,-1,1
21,0.0212102,1.0349,-1,1
22,0.0222201,1.0298,-1,1
23,0.0232201,1.0244,-1,1
24,0.0252099,1.0185,-1,1
25,0.0252099,1.0126,-1,1
26,0.0271702,1.0072,-1,1
27,0.0271702,1.002,-1,1
28,0.02912,0.9966,-1,1
29,0.02912,0.9908,-1,1
30,0.0310502,0.9852,-1,1
31,0.0320001,0.9794,-1,1
32,0.0329499,0.9737,-1,1
33,0.0338998,0.9682,-1,1
34,0.0348401,0.9632,-1,1
35,0.0357699,0.9584,-1,1
36,0.0367098,0.9533,-1,1
37,0.0376301,0.9483,-1,1
38,0.0385499,0.9431,-1,1
39,0.0394702,0.938,-1,1
40,0.04038,0.9327,-1,1
41,0.0412798,0.9279,-1,1
42,0.0421801,0.9229,-1,1
43,0.0430799,0.9178,-1,1
44,0.0439701,0.9127,-1,1
45,0.0448499,0.9076,-1,1
46,0.0457301,0.9026,-1,1
47,0.0466099,0.8975,-1,1
48,0.0474801,0.8924,-1,1
49,0.0483398,0.8872,-1,1
50,0.04919,0.8819,-1,1
51,0.0500498,0.8768,-1,1
52,0.0509,0.8719,-1,1
53,0.0517502,0.8672,-1,1
54,0.0525899,0.8624,-1,1
55,0.0534201,0.8572,-1,1
56,0.0542498,0.8519,-1,1
57,0.0550699,0.8466,-1,1
58,0.0558901,0.8414,-1,1
59,0.0567002,0.8366,-1,1
60,0.0575099,0.8319,-1,1
61,0.05831,0.8267,-1,1
62,0.0591102,0.8213,-1,1
63,0.0599098,0.8161,-1,1
64,0.0606999,0.811,-1,1
65,0.06148,0.8063,-1,1
66,0.0622602,0.8012,-1,1
67,0.0630298,0.7959,-1,1
68,0.0637999,0.7906,-1,1
69,0.0645599,0.7854,-1,1
70,0.06532,0.7808,-1,1
71,0.0660801,0.7761,-1,1
72,0.0668201,0.7711,-1,1
73,0.0675702,0.7656,-1,1
74,0.0682998,0.7604,-1,1
75,0.0690398,0.7552,-1,1
76,0.0697699,0.7506,-1,1
77,0.0704899,0.746,-1,1
78,0.0712099,0.7412,-1,1
79,0.0719199,0.7361,-1,1
80,0.0726299,0.7304,-1,1
81,0.0733299,0.7253,-1,1
82,0.0740299,0.7206,-1,1
83,0.0747299,0.7161,-1,1
84,0.0754199,0.7112,-1,1
85,0.0760999,0.7061,-1,1
86,0.0767798,0.7009,-1,1
87,0.0774498,0.6961,-1,1
88,0.0781202,0.6915,-1,1
89,0.0787902,0.6872,-1,1
90,0.0794501,0.6827,-1,1
91,0.0801101,0.6778,-1,1
92,0.08076,0.6726,-1,1
93,0.0813999,0.6672,-1,1
94,0.0820398,0.6625,-1,1
95,0.0826802,0.658,-1,1
96,0.0833101,0.6535,-1,1
97,0.08394,0.6487,-1,1
98,0.0845599,0.6438,-1,1
99,0.0851798,0.6387,-1,1
100,0.0857902,0.6337,-1,1
101,0.0864,0.6289,-1,1
102,0.0869999,0.6243,-1,1
103,0.0876002,0.6199,-1,1
104,0.0881901,0.615,-1,1
105,0.0887799,0.6099,-1,1
106,0.0893598,0.6045,-1,1
107,0.0899301,0.5995,-1,1
108,0.0905099,0.5947,-1,1
109,0.0910802,0.59,-1,1
110,0.09164,0.5856,-1,1
111,0.0921998,0.5808,-1,1
112,0.0927601,0.5759,-1,1
113,0.0933099,0.571,-1,1
114,0.0938501,0.5661,-1,1
115,0.0943899,0.5614,-1,1
116,0.0949302,0.5569,-1,1
117,0.0954499,0.5521,-1,1
118,0.0959802,0.5472,-1,1
119,0.0964999,0.5423,-1,1
120,0.0970201,0.5373,-1,1
121,0.0975299,0.5325,-1,1
122,0.0980301,0.5278,-1,1
123,0.0985398,0.5231,-1,1
124,0.09904,0.5186,-1,1
125,0.0995302,0.5139,-1,1
126,0.10002,0.5092,-1,1
127,0.1005,0.5045,-1,1
128,0.10098,0.4999,-1,1
129,0.10145,0.4952,-1,1
130,0.10192,0.4906,-1,1
131,0.10239,0.4859,-1,1
132,0.10285,0.4813,-1,1
133,0.1033,0.4765,-1,1
134,0.10375,0.4716,-1,1
135,0.1042,0.4669,-1,1
136,0.10464,0.4621,-1,1
137,0.10507,0.4576,-1,1
138,0.10551,0.453,-1,1
139,0.10594,0.4484,-1,1
140,0.10636,0.4438,-1,1
141,0.10678,0.4393,-1,1
142,0.10719,0.4346,-1,1
143,0.1076,0.4303,-1,1
144,0.10801,0.426,-1,1
145,0.10841,0.4216,-1,1
146,0.10881,0.4172,-1,1
147,0.1092,0.4125,-1,1
148,0.10958,0.4078,-1,1
149,0.10997,0.4033,-1,1
150,0.11035,0.3988,-1,1
151,0.11072,0.3944,-1,1
152,0.11109,0.3899,-1,1
153,0.11145,0.3852,-1,1
154,0.11181,0.3804,-1,1
155,0.11217,0.3758,-1,1
156,0.11252,0.3714,-1,1
157,0.11287,0.3671,-1,1
158,0.11321,0.3629,-1,1
159,0.11389,0.3582,-1,1
160,0.11422,0.3533,-1,1
161,0.11455,0.3485,-1,1
162,0.11487,0.3441,-1,1
163,0.11519,0.3398,-1,1
164,0.11551,0.3356,-1,1
165,0.11582,0.3312,-1,1
166,0.11613,0.3268,-1,1
167,0.11643,0.3224,-1,1
168,0.11673,0.3182,-1,1
169,0.11703,0.3142,-1,1
170,0.11762,0.3104,-1,1
171,0.11791,0.3065,-1,1
172,0.11819,0.3024,-1,1
173,0.11847,0.2984,-1,1
174,0.11875,0.2946,-1,1
175,0.11903,0.291,-1,1
176,0.1193,0.2876,-1,1
177,0.11957,0.2843,-1,1
178,0.11984,0.281,-1,1
179,0.12011,0.2781,-1,1
180,0.12037,0.2754,-1,1
181,0.12064,0.273,-1,1
182,0.12117,0.2708,-1,1
183,0.12143,0.2688,-1,1
184,0.12169,0.267,-1,1
185,0.12195,0.2654,-1,1
186,0.12221,0.2641,-1,1
187,0.12247,0.2631,-1,1
188,0.12273,0.2622,-1,1
189,0.12299,0.2614,-1,1
190,0.12325,0.2608,-1,1
191,0.12351,0.2605,-1,1
192,0.12403,0.2605,-1,1
193,0.12429,0.2606,-1,1
194,0.12455,0.2607,-1,1
195,0.12455,0.261,-1,1
196,0.12482,0.2612,-1,1
197,0.12508,0.2615,-1,1
198,0.12535,0.2622,-1,1
199,0.12562,0.2632,-1,1
200,0.12589,0.2644,-1,1
201,0.12616,0.2656,-1,1
202,0.12643,0.2671,-1,1
203,0.12699,0.2688,-1,1
204,0.12727,0.2709,-1,1
205,0.12756,0.2731,-1,1
206,0.12756,0.2756,-1,1
207,0.12784,0.278,-1,1
208,0.12813,0.2804,-1,1
209,0.12843,0.283,-1,1
210,0.12873,0.2859,-1,1
211,0.12903,0.2894,-1,1
212,0.12934,0.2928,-1,1
213,0.12965,0.2965,-1,1
214,0.13029,0.3003,-1,1
215,0.13062,0.3045,-1,1
216,0.13062,0.3089,-1,1
217,0.13095,0.3139,-1,1
218,0.13129,0.3186,-1,1
219,0.13163,0.3233,-1,1
220,0.13197,0.328,-1,1
221,0.13233,0.3325,-1,1
222,0.13269,0.3379,-1,1
223,0.13305,0.3435,-1,1
224,0.1338,0.3493,-1,1
225,0.13419,0.355,-1,1
226,0.13458,0.3609,-1,1
227,0.13498,0.3669,-1,1
228,0.13538,0.3736,-1,1
229,0.13579,0.3806,-1,1
230,0.13621,0.3879,-1,1
231,0.13664,0.3952,-1,1
232,0.13708,0.4023,-1,1
233,0.13752,0.4093,-1,1
234,0.13797,0.4164,-1,1
235,0.13843,0.4238,-1,1
236,0.13889,0.4313,-1,1
237,0.13937,0.4389,-1,1
238,0.13985,0.4467,-1,1
239,0.14034,0.4544,-1,1
240,0.14084,0.4621,-1,1
241,0.14134,0.47,-1,1
242,0.14186,0.4778,-1,1
243,0.14238,0.4859,-1,1
244,0.14291,0.494,-1,1
245,0.14345,0.5021,-1,1
246,0.14399,0.5102,-1,1
247,0.14455,0.5185,-1,1
248,0.14512,0.5268,-1,1
249,0.14569,0.5354,-1,1
250,0.14628,0.544,-1,1
251,0.14687,0.5526,-1,1
252,0.14747,0.5612,-1,1
253,0.14808,0.5698,-1,1
254,0.14869,0.5785,-1,1
255,0.14932,0.5872,-1,1
256,0.14996,0.596,-1,1
257,0.1506,0.6045,-1,1
258,0.15125,0.6129,-1,1
259,0.15191,0.6213,-1,1
260,0.15258,0.6299,-1,1
261,0.15326,0.6387,-1,1
262,0.15394,0.6474,-1,1
263,0.15464,0.656,-1,1
264,0.15534,0.6645,-1,1
265,0.15605,0.673,-1,1
266,0.15677,0.6814,-1,1
267,0.1575,0.6901,-1,1
268,0.15824,0.6987,-1,1
269,0.15898,0.7072,-1,1
270,0.15973,0.7155,-1,1
271,0.16049,0.7235,-1,1
272,0.16126,0.7316,-1,1
273,0.16204,0.7399,-1,1
274,0.16282,0.7484,-1,1
275,0.16362,0.7569,-1,1
276,0.16442,0.7653,-1,1
277,0.16523,0.7731,-1,1
278,0.16605,0.781,-1,1
279,0.16687,0.7891,-1,1
280,0.1677,0.7973,-1,1
281,0.16855,0.8056,-1,1
282,0.16939,0.8135,-1,1
283,0.17025,0.8214,-1,1
284,0.17111,0.8289,-1,1
285,0.17199,0.8365,-1,1
286,0.17286,0.844,-1,1
287,0.17375,0.8517,-1,1
288,0.17464,0.8593,-1,1
289,0.17553,0.8664,-1,1
290,0.17644,0.8735,-1,1
291,0.17735,0.8806,-1,1
292,0.17827,0.888,-1,1
293,0.1792,0.8952,-1,1
294,0.18013,0.902,-1,1
295,0.18107,0.9084,-1,1
296,0.18201,0.9147,-1,1
297,0.18296,0.9212,-1,1
298,0.18391,0.9277,-1,1
299,0.18488,0.9342,-1,1
300,0.18584,0.9404,-1,1
301,0.18682,0.9467,-1,1
302,0.1878,0.9528,-1,1
303,0.18879,0.9585,-1,1
304,0.18977,0.9642,-1,1
305,0.19076,0.9696,-1,1
306,0.19176,0.9751,-1,1
307,0.19276,0.9806,-1,1
308,0.19378,0.9864,-1,1
309,0.1948,0.9923,-1,1
310,0.19582,0.9977,-1,1
311,0.19787,1.0027,-1,1
312,0.19889,1.0073,-1,1
313,0.19993,1.012,-1,1
314,0.20097,1.0171,-1,1
315,0.20202,1.023,-1,1
316,0.20307,1.0289,-1,1
317,0.20412,1.0339,-1,1
318,0.20518,1.0378,-1,1
319,0.20623,1.0411,-1,1
320,0.20836,1.0456,-1,1
321,0.20943,1.0504,-1,1
322,0.21051,1.0554,-1,1
323,0.21159,1.0601,-1,1
324,0.21267,1.0641,-1,1
325,0.21374,1.0669,-1,1
326,0.21482,1.0693,-1,1
327,0.21591,1.0726,-1,1
328,0.21701,1.0769,-1,1
329,0.21811,1.0818,-1,1
330,0.22031,1.0849,-1,1
331,0.2214,1.0871,-1,1
332,0.2225,1.0891,-1,1
333,0.22361,1.0917,-1,1
334,0.22472,1.0952,-1,1
335,0.22584,1.0995,-1,1
336,0.22696,1.1036,-1,1
337,0.22807,1.1062,-1,1
338,0.22918,1.1076,-1,1
339,0.2303,1.1087,-1,1
340,0.23142,1.1118,-1,1
341,0.23368,1.1155,-1,1
342,0.23481,1.119,-1,1
343,0.23481,1.1212,-1,1
344,0.23594,1.1221,-1,1
345,0.23706,1.1224,-1,1
346,0.23818,1.1228,-1,1
347,0.23932,1.1245,-1,1
348,0.24045,1.1274,-1,1
349,0.2416,1.1306,-1,1
350,0.24274,1.1318,-1,1
351,0.24389,1.1321,-1,1
352,0.24616,1.1323,-1,1
353,0.24729,1.1332,-1,1
354,0.24844,1.1356,-1,1
355,0.24844,1.1388,-1,1
356,0.24959,1.1419,-1,1
357,0.25075,1.1447,-1,1
358,0.2519,1.146,-1,1
359,0.25305,1.1461,-1,1
360,0.25419,1.1465,-1,1
361,0.25649,1.1481,-1,1
362,0.25765,1.1508,-1,1
363,0.25881,1.1536,-1,1
364,0.25998,1.1551,-1,1
365,0.25998,1.1548,-1,1
366,0.26113,1.1545,-1,1
367,0.26227,1.1533,-1,1
368,0.26342,1.1527,-1,1
369,0.26458,1.1538,-1,1
370,0.26575,1.1564,-1,1
371,0.26692,1.1581,-1,1
372,0.26808,1.1573,-1,1
373,0.26923,1.1556,-1,1
374,0.27153,1.1547,-1,1
375,0.2727,1.1561,-1,1
376,0.2727,1.1584,-1,1
377,0.27388,1.1613,-1,1
378,0.27505,1.1638,-1,1
379,0.27621,1.164,-1,1
380,0.27736,1.1623,-1,1
381,0.27851,1.1605,-1,1
382,0.27967,1.1612,-1,1
383,0.28084,1.1638,-1,1
384,0.28202,1.1653,-1,1
385,0.28434,1.1644,-1,1
386,0.28549,1.1618,-1,1
387,0.28549,1.1598,-1,1
388,0.28664,1.1592,-1,1
389,0.28781,1.1598,-1,1
390,0.28898,1.162,-1,1
391,0.29016,1.164,-1,1
392,0.29132,1.1642,-1,1
393,0.29247,1.1621,-1,1
394,0.29362,1.1609,-1,1
395,0.29595,1.1618,-1,1
396,0.29712,1.1642,-1,1
397,0.29829,1.1655,-1,1
398,0.29829,1.165,-1,1
399,0.29945,1.1645,-1,1
400,0.3006,1.1621,-1,1
401,0.30175,1.1603,-1,1
402,0.30291,1.16,-1,1
403,0.30408,1.1614,-1,1
404,0.30525,1.1622,-1,1
405,0.30641,1.1614,-1,1
406,0.30757,1.1594,-1,1
407,0.30987,1.1579,-1,1
408,0.31104,1.1579,-1,1
409,0.31104,1.1582,-1,1
410,0.3122,1.1598,-1,1
411,0.31336,1.1612,-1,1
412,0.31453,1.1613,-1,1
413,0.31568,1.1602,-1,1
414,0.31683,1.159,-1,1
415,0.31798,1.1582,-1,1
416,0.32031,1.1595,-1,1
417,0.32147,1.1607,-1,1
418,0.32263,1.1607,-1,1
419,0.32378,1.1594,-1,1
420,0.32493,1.1575,-1,1
421,0.32493,1.1559,-1,1
422,0.32608,1.1549,-1,1
423,0.32724,1.1553,-1,1
424,0.32841,1.1566,-1,1
425,0.32957,1.158,-1,1
426,0.33073,1.1563,-1,1
427,0.33188,1.1545,-1,1
428,0.33418,1.1536,-1,1
429,0.33534,1.1548,-1,1
430,0.3365,1.1563,-1,1
431,0.33766,1.1574,-1,1
432,0.33766,1.1577,-1,1
433,0.33882,1.1571,-1,1
434,0.33996,1.1554,-1,1
435,0.34111,1.1535,-1,1
436,0.34226,1.1537,-1,1
437,0.34342,1.1552,-1,1
438,0.34458,1.156,-1,1
439,0.34574,1.1548,-1,1
440,0.34804,1.1531,-1,1
441,0.34918,1.1514,-1,1
442,0.34918,1.1514,-1,1
443,0.35034,1.1514,-1,1
444,0.3515,1.1526,-1,1
445,0.35266,1.1541,-1,1
446,0.35381,1.1544,-1,1
447,0.35496,1.1529,-1,1
448,0.3561,1.1514,-1,1
449,0.35725,1.1522,-1,1
450,0.35841,1.1535,-1,1
451,0.36072,1.1544,-1,1
452,0.36187,1.1537,-1,1
453,0.36302,1.1529,-1,1
454,0.36302,1.1519,-1,1
455,0.36417,1.1509,-1,1
456,0.36532,1.1509,-1,1
457,0.36648,1.1519,-1,1
458,0.36763,1.1529,-1,1
459,0.36878,1.1515,-1,1
460,0.37107,1.1504,-1,1
461,0.37222,1.1503,-1,1
462,0.37338,1.151,-1,1
463,0.37453,1.1515,-1,1
464,0.37567,1.151,-1,1
465,0.37682,1.1504,-1,1
466,0.37796,1.1496,-1,1
467,0.37912,1.149,-1,1
468,0.38027,1.1487,-1,1
469,0.38256,1.1487,-1,1
470,0.3837,1.148,-1,1
471,0.38484,1.147,-1,1
472,0.38599,1.1463,-1,1
473,0.38714,1.1461,-1,1
474,0.38829,1.1463,-1,1
475,0.38943,1.1461,-1,1
476,0.39057,1.1456,-1,1
477,0.39171,1.1445,-1,1
478,0.39285,1.1435,-1,1
479,0.39399,1.1431,-1,1
480,0.39513,1.1431,-1,1
481,0.39627,1.1428,-1,1
482,0.39741,1.1419,-1,1
483,0.39855,1.1405,-1,1
484,0.40082,1.1393,-1,1
485,0.40195,1.1384,-1,1
486,0.40308,1.1375,-1,1
487,0.40422,1.1369,-1,1
488,0.40535,1.1365,-1,1
489,0.40649,1.1359,-1,1
490,0.40762,1.1347,-1,1
491,0.40874,1.1332,-1,1
492,0.411,1.1321,-1,1
493,0.411,1.1314,-1,1
494,0.41325,1.1307,-1,1
495,0.41325,1.13,-1,1
496,0.4155,1.1289,-1,1
497,0.4155,1.1273,-1,1
498,0.41662,1.1254,-1,1
499,0.41773,1.1238,-1,1
500,0.41885,1.1231,-1,1
501,0.41998,1.1227,-1,1
502,0.42222,1.1218,-1,1
503,0.42333,1.1205,-1,1
504,0.42444,1.1189,-1,1
505,0.42444,1.1173,-1,1
506,0.42555,1.1162,-1,1
507,0.42666,1.1154,-1,1
508,0.42777,1.1146,-1,1
509,0.42888,1.1138,-1,1
510,0.42999,1.1123,-1,1
511,0.43109,1.1104,-1,1
512,0.43219,1.1084,-1,1
513,0.43329,1.1067,-1,1
514,0.43439,1.1053,-1,1
515,0.43548,1.1042,-1,1
516,0.43658,1.103,-1,1
517,0.43768,1.1018,-1,1
518,0.43877,1.1002,-1,1
519,0.43986,1.098,-1,1
520,0.44094,1.0956,-1,1
521,0.44203,1.0936,-1,1
522,0.44311,1.0923,-1,1
523,0.4442,1.091,-1,1
524,0.44528,1.0893,-1,1
525,0.44744,1.087,-1,1
526,0.44744,1.0841,-1,1
527,0.44851,1.0809,-1,1
528,0.44957,1.0781,-1,1
529,0.45064,1.0762,-1,1
530,0.45171,1.075,-1,1
531,0.45279,1.0741,-1,1
532,0.45386,1.0726,-1,1
533,0.45492,1.0696,-1,1
534,0.45702,1.0665,-1,1
535,0.45808,1.0642,-1,1
536,0.45913,1.0628,-1,1
537,0.46019,1.062,-1,1
538,0.46124,1.0609,-1,1
539,0.46229,1.0588,-1,1
540,0.46333,1.0557,-1,1
541,0.46437,1.052,-1,1
542,0.4654,1.0487,-1,1
543,0.46645,1.0472,-1,1
544,0.46749,1.0463,-1,1
545,0.46852,1.0448,-1,1
546,0.46956,1.0426,-1,1
547,0.47058,1.0395,-1,1
548,0.47161,1.0363,-1,1
549,0.47263,1.0338,-1,1
550,0.47365,1.032,-1,1
551,0.47468,1.0307,-1,1
552,0.4757,1.0292,-1,1
553,0.47672,1.0271,-1,1
554,0.47773,1.0243,-1,1
555,0.47874,1.0212,-1,1
556,0.47974,1.0187,-1,1
557,0.48075,1.0165,-1,1
558,0.48176,1.0148,-1,1
559,0.48276,1.013,-1,1
560,0.48376,1.0108,-1,1
561,0.48476,1.0084,-1,1
562,0.48575,1.0058,-1,1
563,0.48674,1.003,-1,1
564,0.48773,1.0006,-1,1
565,0.48872,0.9984,-1,1
566,0.48971,0.9962,-1,1
567,0.49069,0.9942,-1,1
568,0.49167,0.9918,-1,1
569,0.49265,0.9892,-1,1
570,0.49363,0.9868,-1,1
571,0.4946,0.9842,-1,1
572,0.49557,0.9815,-1,1
573,0.49654,0.979,-1,1
574,0.4975,0.9765,-1,1
575,0.49846,0.9745,-1,1
576,0.49943,0.9723,-1,1
577,0.50039,0.9699,-1,1
578,0.50135,0.9674,-1,1
579,0.5023,0.9649,-1,1
580,0.50325,0.9623,-1,1
581,0.5042,0.9599,-1,1
582,0.50515,0.9578,-1,1
583,0.50609,0.9558,-1,1
584,0.50704,0.954,-1,1
585,0.50798,0.9517,-1,1
586,0.50892,0.9492,-1,1
587,0.50986,0.9468,-1,1
588,0.51079,0.9442,-1,1
589,0.51172,0.9419,-1,1
590,0.51265,0.9399,-1,1
591,0.51358,0.938,-1,1
592,0.51451,0.9359,-1,1
593,0.51543,0.9337,-1,1
594,0.51635,0.9311,-1,1
595,0.51727,0.9289,-1,1
596,0.51819,0.9268,-1,1
597,0.5191,0.9245,-1,1
598,0.52001,0.9226,-1,1
599,0.52093,0.9206,-1,1
600,0.52184,0.9186,-1,1
601,0.52275,0.9166,-1,1
602,0.52365,0.9148,-1,1
603,0.52456,0.9127,-1,1
604,0.52546,0.9108,-1,1
605,0.52636,0.9087,-1,1
606,0.52726,0.9068,-1,1
607,0.52815,0.9053,-1,1
608,0.52905,0.9038,-1,1
609,0.52995,0.9023,-1,1
610,0.53084,0.9008,-1,1
611,0.53174,0.8991,-1,1
612,0.53263,0.8974,-1,1
613,0.53352,0.896,-1,1
614,0.5344,0.8945,-1,1
615,0.53529,0.893,-1,1
616,0.53617,0.8916,-1,1
617,0.53706,0.8905,-1,1
618,0.53795,0.8894,-1,1
619,0.53883,0.8883,-1,1
620,0.53971,0.8871,-1,1
621,0.5406,0.8859,-1,1
622,0.54148,0.8848,-1,1
623,0.54236,0.8839,-1,1
624,0.54324,0.8832,-1,1
625,0.54411,0.8826,-1,1
626,0.54499,0.8821,-1,1
627,0.54588,0.8816,-1,1
628,0.54676,0.8812,-1,1
629,0.54852,0.8806,-1,1
630,0.5494,0.8801,-1,1
631,0.55028,0.8802,-1,1
632,0.55116,0.8804,-1,1
633,0.55205,0.8806,-1,1
634,0.55293,0.881,-1,1
635,0.55381,0.8816,-1,1
636,0.5547,0.8825,-1,1
637,0.55559,0.8832,-1,1
638,0.55648,0.884,-1,1
639,0.55826,0.8851,-1,1
640,0.55826,0.8869,-1,1
641,0.55916,0.8886,-1,1
642,0.56006,0.8902,-1,1
643,0.56096,0.8922,-1,1
644,0.56186,0.8942,-1,1
645,0.56367,0.8966,-1,1
646,0.56458,0.8987,-1,1
647,0.56549,0.901,-1,1
648,0.56641,0.9036,-1,1
649,0.56732,0.9063,-1,1
650,0.56824,0.9087,-1,1
651,0.56917,0.9114,-1,1
652,0.5701,0.9149,-1,1
653,0.57104,0.9181,-1,1
654,0.57197,0.9214,-1,1
655,0.57291,0.9245,-1,1
656,0.57481,0.9288,-1,1
657,0.57577,0.9332,-1,1
658,0.57673,0.9375,-1,1
659,0.57769,0.9422,-1,1
660,0.57866,0.9472,-1,1
661,0.57964,0.9523,-1,1
662,0.58062,0.9569,-1,1
663,0.58161,0.9622,-1,1
664,0.5826,0.9676,-1,1
665,0.5836,0.9737,-1,1
666,0.58461,0.9792,-1,1
667,0.58562,0.9848,-1,1
668,0.58663,0.9905,-1,1
669,0.58765,0.9961,-1,1
670,0.58868,1.002,-1,1
671,0.58972,1.0081,-1,1
672,0.59077,1.0147,-1,1
673,0.59182,1.0214,-1,1
674,0.59288,1.0286,-1,1
675,0.59395,1.0354,-1,1
676,0.59502,1.0417,-1,1
677,0.5961,1.0482,-1,1
678,0.59719,1.0553,-1,1
679,0.59829,1.063,-1,1
680,0.59939,1.0709,-1,1
681,0.60051,1.0785,-1,1
682,0.60163,1.0861,-1,1
683,0.60276,1.0935,-1,1
684,0.60389,1.1007,-1,1
685,0.60503,1.1081,-1,1
686,0.60619,1.1163,-1,1
687,0.60735,1.1248,-1,1
688,0.60852,1.1335,-1,1
689,0.6097,1.1419,-1,1
690,0.61089,1.1497,-1,1
691,0.61208,1.1574,-1,1
692,0.61328,1.1654,-1,1
693,0.6145,1.1738,-1,1
694,0.61572,1.1825,-1,1
695,0.61695,1.1918,-1,1
696,0.61819,1.2004,-1,1
697,0.61943,1.2083,-1,1
698,0.62068,1.2156,-1,1
699,0.62194,1.2237,-1,1
700,0.62322,1.2323,-1,1
701,0.6245,1.2416,-1,1
702,0.62579,1.2504,-1,1
703,0.62708,1.2586,-1,1
704,0.62838,1.2662,-1,1
705,0.62969,1.2737,-1,1
706,0.63101,1.2819,-1,1
707,0.63235,1.2911,-1,1
708,0.63369,1.3004,-1,1
709,0.63503,1.3085,-1,1
710,0.63638,1.3159,-1,1
711,0.63773,1.323,-1,1
712,0.6391,1.3308,-1,1
713,0.64048,1.3397,-1,1
714,0.64187,1.3491,-1,1
715,0.64327,1.3573,-1,1
716,0.64466,1.3646,-1,1
717,0.64606,1.3711,-1,1
718,0.64747,1.3787,-1,1
719,0.6489,1.3873,-1,1
720,0.65034,1.3964,-1,1
721,0.65178,1.4047,-1,1
722,0.65322,1.4117,-1,1
723,0.65466,1.4179,-1,1
724,0.65612,1.4248,-1,1
725,0.65759,1.4327,-1,1
726,0.65907,1.4411,-1,1
727,0.66055,1.4491,-1,1
728,0.66203,1.4553,-1,1
729,0.66351,1.4611,-1,1
730,0.66502,1.4676,-1,1
731,0.66652,1.4747,-1,1
732,0.66804,1.4823,-1,1
733,0.66955,1.4889,-1,1
734,0.67107,1.4946,-1,1
735,0.67259,1.5,-1,1
736,0.67413,1.5062,-1,1
737,0.67567,1.5126,-1,1
738,0.67722,1.5188,-1,1
739,0.67876,1.5241,-1,1
740,0.6803,1.5287,-1,1
741,0.68186,1.5339,-1,1
742,0.68343,1.5393,-1,1
743,0.685,1.5447,-1,1
744,0.68656,1.5493,-1,1
745,0.68813,1.5535,-1,1
746,0.68971,1.5573,-1,1
747,0.69129,1.5617,-1,1
748,0.69288,1.5665,-1,1
749,0.69446,1.5709,-1,1
750,0.69605,1.5742,-1,1
751,0.69764,1.5773,-1,1
752,0.69924,1.5805,-1,1
753,0.70084,1.5843,-1,1
754,0.70244,1.588,-1,1
755,0.70404,1.5911,-1,1
756,0.70564,1.5934,-1,1
757,0.70725,1.5957,-1,1
758,0.70887,1.5984,-1,1
759,0.71048,1.6015,-1,1
760,0.71209,1.6045,-1,1
761,0.7137,1.6064,-1,1
762,0.71532,1.6081,-1,1
763,0.71694,1.6101,-1,1
764,0.71857,1.6125,-1,1
765,0.72019,1.6148,-1,1
766,0.72181,1.6167,-1,1
767,0.72343,1.6177,-1,1
768,0.72505,1.6186,-1,1
769,0.72668,1.6199,-1,1
770,0.72831,1.6217,-1,1
771,0.72993,1.6232,-1,1
772,0.73156,1.624,-1,1
773,0.73318,1.6241,-1,1
774,0.73481,1.6243,-1,1
775,0.73644,1.625,-1,1
776,0.73806,1.6258,-1,1
777,0.73969,1.6266,-1,1
778,0.74132,1.6269,-1,1
779,0.74295,1.6266,-1,1
780,0.74457,1.6262,-1,1
781,0.7462,1.6262,-1,1
782,0.74782,1.6263,-1,1
783,0.74945,1.6265,-1,1
784,0.75107,1.6263,-1,1
785,0.75431,1.6257,-1,1
786,0.75594,1.6252,-1,1
787,0.75756,1.6245,-1,1
788,0.75918,1.6239,-1,1
789,0.7608,1.6232,-1,1
790,0.76241,1.6224,-1,1
791,0.76403,1.6214,-1,1
792,0.76565,1.6203,-1,1
793,0.76726,1.6191,-1,1
794,0.76887,1.618,-1,1
795,0.77048,1.6169,-1,1
796,0.77209,1.6154,-1,1
797,0.7737,1.6137,-1,1
798,0.77691,1.6119,-1,1
799,0.77851,1.6104,-1,1
800,0.77851,1.6086,-1,1
801,0.78011,1.6069,-1,1
802,0.7833,1.6048,-1,1
803,0.7833,1.6029,-1,1
804,0.78649,1.601,-1,1
805,0.78808,1.599,-1,1
806,0.78967,1.5969,-1,1
807,0.79125,1.595,-1,1
808,0.79284,1.593,-1,1
809,0.79442,1.5908,-1,1
810,0.796,1.5889,-1,1
811,0.79758,1.5863,-1,1
812,0.79915,1.5842,-1,1
813,0.80072,1.5819,-1,1
814,0.80229,1.5797,-1,1
815,0.80543,1.5775,-1,1
816,0.807,1.5754,-1,1
817,0.80856,1.573,-1,1
818,0.81012,1.5706,-1,1
819,0.81168,1.5685,-1,1
820,0.81324,1.5663,-1,1
821,0.81479,1.5645,-1,1
822,0.81635,1.5626,-1,1
823,0.8179,1.5603,-1,1
824,0.81944,1.5579,-1,1
825,0.82099,1.5559,-1,1
826,0.82254,1.5537,-1,1
827,0.82408,1.5522,-1,1
828,0.82562,1.5504,-1,1
829,0.82716,1.5484,-1,1
830,0.8287,1.5464,-1,1
831,0.83024,1.5446,-1,1
832,0.83177,1.5426,-1,1
833,0.8333,1.5409,-1,1
834,0.83484,1.5394,-1,1
