cnt,pos,speed,Dir,Force,
1,0,1.0072,-1,1
2,0.00106001,1.0171,-1,1
3,0.00214005,1.0272,-1,1
4,0.00322008,1.0376,-1,1
5,0.00432014,1.0483,-1,1
6,0.00542021,1.0587,-1,1
7,0.0065403,1.069,-1,1
8,0.00766039,1.0789,-1,1
9,0.00880003,1.0886,-1,1
10,0.00994015,1.0986,-1,1
11,0.0110903,1.109,-1,1
12,0.01226,1.1194,-1,1
13,0.0134301,1.1294,-1,1
14,0.0146103,1.139,-1,1
15,0.0158,1.1479,-1,1
16,0.0169902,1.1563,-1,1
17,0.0181804,1.1645,-1,1
18,0.0194001,1.1732,-1,1
19,0.0206203,1.182,-1,1
20,0.0218401,1.1905,-1,1
21,0.0230703,1.1979,-1,1
22,0.0243001,1.2043,-1,1
23,0.0255404,1.2106,-1,1
24,0.0267801,1.2171,-1,1
25,0.0280399,1.2244,-1,1
26,0.0293102,1.2319,-1,1
27,0.03058,1.2389,-1,1
28,0.0318503,1.2449,-1,1
29,0.0331202,1.2499,-1,1
30,0.03439,1.2549,-1,1
31,0.0356803,1.2608,-1,1
32,0.0369802,1.2674,-1,1
33,0.03828,1.2743,-1,1
34,0.0395904,1.2805,-1,1
35,0.0408902,1.2853,-1,1
36,0.0422001,1.2893,-1,1
37,0.04351,1.294,-1,1
38,0.0448403,1.2998,-1,1
39,0.0461802,1.3066,-1,1
40,0.0475202,1.313,-1,1
41,0.0488601,1.3182,-1,1
42,0.0502,1.3221,-1,1
43,0.0515404,1.3257,-1,1
44,0.0528903,1.3304,-1,1
45,0.0542603,1.3367,-1,1
46,0.0556302,1.3431,-1,1
47,0.0570002,1.3484,-1,1
48,0.0583601,1.352,-1,1
49,0.0597301,1.3551,-1,1
50,0.06111,1.3592,-1,1
51,0.06251,1.3647,-1,1
52,0.0639,1.3706,-1,1
53,0.0653,1.3756,-1,1
54,0.06668,1.3789,-1,1
55,0.0680799,1.3817,-1,1
56,0.06949,1.3855,-1,1
57,0.07091,1.3907,-1,1
58,0.07232,1.3957,-1,1
59,0.07373,1.3998,-1,1
60,0.07514,1.4025,-1,1
61,0.07656,1.4053,-1,1
62,0.0780001,1.4092,-1,1
63,0.0794301,1.4137,-1,1
64,0.0808601,1.4182,-1,1
65,0.0822902,1.4211,-1,1
66,0.0837202,1.4231,-1,1
67,0.0851603,1.4255,-1,1
68,0.0866103,1.4293,-1,1
69,0.0880704,1.4335,-1,1
70,0.08951,1.4368,-1,1
71,0.09095,1.4385,-1,1
72,0.0923901,1.4397,-1,1
73,0.0953202,1.4428,-1,1
74,0.0967803,1.4459,-1,1
75,0.0982304,1.4486,-1,1
76,0.09969,1.4511,-1,1
77,0.10115,1.4528,-1,1
78,0.10262,1.4543,-1,1
79,0.10409,1.4564,-1,1
80,0.10556,1.4592,-1,1
81,0.10702,1.4617,-1,1
82,0.10849,1.4637,-1,1
83,0.10996,1.4643,-1,1
84,0.11143,1.4654,-1,1
85,0.11438,1.4676,-1,1
86,0.11586,1.4698,-1,1
87,0.11586,1.4714,-1,1
88,0.11733,1.4726,-1,1
89,0.11881,1.4733,-1,1
90,0.12029,1.4735,-1,1
91,0.12176,1.4744,-1,1
92,0.12324,1.4756,-1,1
93,0.12472,1.4769,-1,1
94,0.12621,1.4775,-1,1
95,0.12916,1.4774,-1,1
96,0.13063,1.4774,-1,1
97,0.13211,1.4776,-1,1
98,0.1336,1.4783,-1,1
99,0.13509,1.4789,-1,1
100,0.13657,1.4799,-1,1
101,0.13804,1.4801,-1,1
102,0.13952,1.4801,-1,1
103,0.141,1.4795,-1,1
104,0.14249,1.4801,-1,1
105,0.14397,1.4814,-1,1
106,0.14545,1.4821,-1,1
107,0.14693,1.4824,-1,1
108,0.14842,1.4818,-1,1
109,0.1499,1.4815,-1,1
110,0.15138,1.4814,-1,1
111,0.15286,1.4819,-1,1
112,0.15434,1.4821,-1,1
113,0.15582,1.4826,-1,1
114,0.1573,1.482,-1,1
115,0.15878,1.4813,-1,1
116,0.16026,1.4804,-1,1
117,0.16173,1.4794,-1,1
118,0.16321,1.4791,-1,1
119,0.16469,1.4788,-1,1
120,0.16616,1.4784,-1,1
121,0.16764,1.4776,-1,1
122,0.1691,1.4759,-1,1
123,0.17057,1.474,-1,1
124,0.17204,1.4734,-1,1
125,0.17351,1.4729,-1,1
126,0.17498,1.4723,-1,1
127,0.17644,1.4712,-1,1
128,0.1779,1.469,-1,1
129,0.17936,1.4669,-1,1
130,0.18082,1.4657,-1,1
131,0.18229,1.4649,-1,1
132,0.18374,1.4644,-1,1
133,0.18519,1.4629,-1,1
134,0.18664,1.4602,-1,1
135,0.18809,1.4576,-1,1
136,0.18954,1.4563,-1,1
137,0.191,1.4554,-1,1
138,0.19244,1.4546,-1,1
139,0.19389,1.4529,-1,1
140,0.19532,1.4503,-1,1
141,0.19676,1.4479,-1,1
142,0.1982,1.4462,-1,1
143,0.19964,1.445,-1,1
144,0.20108,1.4439,-1,1
145,0.20251,1.4422,-1,1
146,0.20394,1.4398,-1,1
147,0.20537,1.4372,-1,1
148,0.20679,1.435,-1,1
149,0.20822,1.4333,-1,1
150,0.20964,1.4318,-1,1
151,0.21106,1.43,-1,1
152,0.21248,1.4277,-1,1
153,0.21389,1.4251,-1,1
154,0.21531,1.4226,-1,1
155,0.21672,1.4205,-1,1
156,0.21813,1.4186,-1,1
157,0.21954,1.4171,-1,1
158,0.22094,1.4149,-1,1
159,0.22234,1.4123,-1,1
160,0.22374,1.4094,-1,1
161,0.22513,1.4067,-1,1
162,0.22653,1.4046,-1,1
163,0.22793,1.403,-1,1
164,0.22932,1.401,-1,1
165,0.2307,1.3984,-1,1
166,0.23208,1.3953,-1,1
167,0.23346,1.3921,-1,1
168,0.23484,1.3897,-1,1
169,0.23622,1.3877,-1,1
170,0.23759,1.3857,-1,1
171,0.23896,1.383,-1,1
172,0.24033,1.3798,-1,1
173,0.24169,1.3764,-1,1
174,0.24305,1.3735,-1,1
175,0.24441,1.3709,-1,1
176,0.24577,1.3685,-1,1
177,0.24712,1.3659,-1,1
178,0.24847,1.3628,-1,1
179,0.24981,1.3595,-1,1
180,0.25116,1.3564,-1,1
181,0.2525,1.3537,-1,1
182,0.25384,1.3508,-1,1
183,0.25517,1.3478,-1,1
184,0.2565,1.3449,-1,1
185,0.25783,1.3419,-1,1
186,0.25916,1.3388,-1,1
187,0.26048,1.3356,-1,1
188,0.26179,1.3325,-1,1
189,0.26311,1.3294,-1,1
190,0.26442,1.3263,-1,1
191,0.26573,1.3232,-1,1
192,0.26704,1.3199,-1,1
193,0.26833,1.3165,-1,1
194,0.26963,1.313,-1,1
195,0.27093,1.3098,-1,1
196,0.27222,1.3065,-1,1
197,0.27351,1.3032,-1,1
198,0.27479,1.2996,-1,1
199,0.27607,1.2959,-1,1
200,0.27735,1.2922,-1,1
201,0.27862,1.2887,-1,1
202,0.27989,1.2854,-1,1
203,0.28116,1.2814,-1,1
204,0.28367,1.2773,-1,1
205,0.28492,1.273,-1,1
206,0.28618,1.2692,-1,1
207,0.28743,1.2653,-1,1
208,0.28867,1.2614,-1,1
209,0.28991,1.2572,-1,1
210,0.29114,1.2527,-1,1
211,0.29237,1.2481,-1,1
212,0.2936,1.2441,-1,1
213,0.29482,1.2407,-1,1
214,0.29605,1.2365,-1,1
215,0.29847,1.2319,-1,1
216,0.29967,1.2268,-1,1
217,0.29967,1.2218,-1,1
218,0.30087,1.2178,-1,1
219,0.30207,1.2145,-1,1
220,0.30447,1.2107,-1,1
221,0.30447,1.2063,-1,1
222,0.30683,1.2011,-1,1
223,0.308,1.196,-1,1
224,0.30918,1.1918,-1,1
225,0.31035,1.1884,-1,1
226,0.31152,1.1852,-1,1
227,0.31268,1.1818,-1,1
228,0.31499,1.1763,-1,1
229,0.31499,1.1706,-1,1
230,0.31613,1.1657,-1,1
231,0.31728,1.1615,-1,1
232,0.31956,1.1576,-1,1
233,0.32069,1.1534,-1,1
234,0.32182,1.1486,-1,1
235,0.32293,1.1431,-1,1
236,0.32405,1.1373,-1,1
237,0.32516,1.1322,-1,1
238,0.32628,1.1288,-1,1
239,0.32739,1.1252,-1,1
240,0.32849,1.121,-1,1
241,0.32958,1.1162,-1,1
242,0.33067,1.1111,-1,1
243,0.33176,1.1064,-1,1
244,0.33284,1.1022,-1,1
245,0.33392,1.0987,-1,1
246,0.335,1.0953,-1,1
247,0.33607,1.0911,-1,1
248,0.33714,1.0862,-1,1
249,0.3382,1.0811,-1,1
250,0.33925,1.0763,-1,1
251,0.34031,1.0723,-1,1
252,0.34136,1.069,-1,1
253,0.34241,1.0653,-1,1
254,0.34345,1.0613,-1,1
255,0.34449,1.0566,-1,1
256,0.34552,1.0517,-1,1
257,0.34654,1.0469,-1,1
258,0.34756,1.0426,-1,1
259,0.34859,1.039,-1,1
260,0.34961,1.0358,-1,1
261,0.35062,1.0317,-1,1
262,0.35163,1.0269,-1,1
263,0.35263,1.022,-1,1
264,0.35362,1.0172,-1,1
265,0.35462,1.0131,-1,1
266,0.35561,1.0092,-1,1
267,0.3566,1.0058,-1,1
268,0.35758,1.0021,-1,1
269,0.35856,0.9977,-1,1
270,0.35954,0.9928,-1,1
271,0.3605,0.9881,-1,1
272,0.36147,0.9837,-1,1
273,0.36243,0.9799,-1,1
274,0.36339,0.9762,-1,1
275,0.36434,0.9723,-1,1
276,0.36529,0.9683,-1,1
277,0.36624,0.9639,-1,1
278,0.36718,0.9594,-1,1
279,0.36812,0.9553,-1,1
280,0.36905,0.9515,-1,1
281,0.36998,0.9476,-1,1
282,0.37091,0.9438,-1,1
283,0.37183,0.9399,-1,1
284,0.37275,0.9362,-1,1
285,0.37367,0.9325,-1,1
286,0.37458,0.9288,-1,1
287,0.37549,0.925,-1,1
288,0.37639,0.9214,-1,1
289,0.37729,0.9176,-1,1
290,0.37819,0.9137,-1,1
291,0.37908,0.9103,-1,1
292,0.37998,0.907,-1,1
293,0.38087,0.9039,-1,1
294,0.38175,0.9005,-1,1
295,0.38264,0.8968,-1,1
296,0.38351,0.8933,-1,1
297,0.38439,0.8898,-1,1
298,0.38526,0.8864,-1,1
299,0.38613,0.8832,-1,1
300,0.38699,0.8802,-1,1
301,0.38786,0.8773,-1,1
302,0.38872,0.8742,-1,1
303,0.38958,0.8711,-1,1
304,0.39043,0.868,-1,1
305,0.39129,0.8651,-1,1
306,0.39213,0.8621,-1,1
307,0.39298,0.8593,-1,1
308,0.39382,0.8566,-1,1
309,0.39466,0.854,-1,1
310,0.39551,0.8517,-1,1
311,0.39635,0.8492,-1,1
312,0.39719,0.847,-1,1
313,0.39802,0.8445,-1,1
314,0.39885,0.842,-1,1
315,0.39968,0.8396,-1,1
316,0.40051,0.8376,-1,1
317,0.40134,0.8359,-1,1
318,0.40217,0.8344,-1,1
319,0.40299,0.8328,-1,1
320,0.40382,0.831,-1,1
321,0.40464,0.8293,-1,1
322,0.40546,0.8277,-1,1
323,0.40628,0.8263,-1,1
324,0.4071,0.8253,-1,1
325,0.40792,0.8243,-1,1
326,0.40874,0.8232,-1,1
327,0.40956,0.8223,-1,1
328,0.41038,0.8215,-1,1
329,0.4112,0.8209,-1,1
330,0.41202,0.8203,-1,1
331,0.41284,0.8198,-1,1
332,0.41366,0.8194,-1,1
333,0.41448,0.8194,-1,1
334,0.4153,0.8195,-1,1
335,0.41612,0.8198,-1,1
336,0.41694,0.8201,-1,1
337,0.41777,0.8206,-1,1
338,0.41859,0.8213,-1,1
339,0.41942,0.8224,-1,1
340,0.42026,0.8238,-1,1
341,0.42109,0.8253,-1,1
342,0.42192,0.8268,-1,1
343,0.42276,0.8284,-1,1
344,0.4236,0.8303,-1,1
345,0.42445,0.8326,-1,1
346,0.4253,0.8354,-1,1
347,0.42615,0.8382,-1,1
348,0.427,0.8411,-1,1
349,0.42787,0.8441,-1,1
350,0.42873,0.8475,-1,1
351,0.4296,0.8514,-1,1
352,0.43048,0.8554,-1,1
353,0.43136,0.8595,-1,1
354,0.43224,0.8636,-1,1
355,0.43313,0.8681,-1,1
356,0.43403,0.873,-1,1
357,0.43493,0.8785,-1,1
358,0.43585,0.8843,-1,1
359,0.43677,0.8902,-1,1
360,0.43769,0.8961,-1,1
361,0.43863,0.9024,-1,1
362,0.43957,0.909,-1,1
363,0.44052,0.9161,-1,1
364,0.44245,0.9248,-1,1
365,0.44343,0.9338,-1,1
366,0.44442,0.943,-1,1
367,0.44541,0.9521,-1,1
368,0.44642,0.9615,-1,1
369,0.44744,0.9713,-1,1
370,0.44847,0.9818,-1,1
371,0.44951,0.9924,-1,1
372,0.45056,1.0036,-1,1
373,0.45163,1.0152,-1,1
374,0.45271,1.0261,-1,1
375,0.45379,1.037,-1,1
376,0.45489,1.048,-1,1
377,0.45601,1.0594,-1,1
378,0.45713,1.0712,-1,1
379,0.45827,1.0834,-1,1
380,0.45943,1.0957,-1,1
381,0.46059,1.1082,-1,1
382,0.46177,1.1209,-1,1
383,0.46296,1.1335,-1,1
384,0.46417,1.1463,-1,1
385,0.46539,1.1592,-1,1
386,0.46662,1.1725,-1,1
387,0.46787,1.1862,-1,1
388,0.46913,1.1998,-1,1
389,0.4704,1.2131,-1,1
390,0.47169,1.2266,-1,1
391,0.473,1.2403,-1,1
392,0.47431,1.254,-1,1
393,0.47564,1.268,-1,1
394,0.47699,1.2818,-1,1
395,0.47834,1.2957,-1,1
396,0.47971,1.3094,-1,1
397,0.4811,1.3229,-1,1
398,0.4825,1.3366,-1,1
399,0.48391,1.3507,-1,1
400,0.48533,1.3641,-1,1
401,0.48677,1.3775,-1,1
402,0.48822,1.3908,-1,1
403,0.48968,1.404,-1,1
404,0.49116,1.4176,-1,1
405,0.49266,1.4311,-1,1
406,0.49416,1.4441,-1,1
407,0.49567,1.457,-1,1
408,0.49719,1.4695,-1,1
409,0.49874,1.4823,-1,1
410,0.50029,1.4955,-1,1
411,0.50186,1.5082,-1,1
412,0.50343,1.5203,-1,1
413,0.50501,1.5322,-1,1
414,0.50661,1.5441,-1,1
415,0.50822,1.5562,-1,1
416,0.50984,1.5683,-1,1
417,0.51146,1.5795,-1,1
418,0.5131,1.5905,-1,1
419,0.51475,1.6012,-1,1
420,0.51641,1.612,-1,1
421,0.51808,1.6224,-1,1
422,0.51975,1.6326,-1,1
423,0.52143,1.6422,-1,1
424,0.52312,1.6515,-1,1
425,0.52482,1.6602,-1,1
426,0.52653,1.6686,-1,1
427,0.52823,1.677,-1,1
428,0.52995,1.6853,-1,1
429,0.53168,1.6929,-1,1
430,0.53341,1.6996,-1,1
431,0.53514,1.7062,-1,1
432,0.53688,1.7126,-1,1
433,0.53862,1.7191,-1,1
434,0.54037,1.7251,-1,1
435,0.54213,1.7306,-1,1
436,0.54388,1.7354,-1,1
437,0.54564,1.74,-1,1
438,0.5474,1.7444,-1,1
439,0.54917,1.7488,-1,1
440,0.55094,1.7527,-1,1
441,0.5527,1.7559,-1,1
442,0.55447,1.7592,-1,1
443,0.55624,1.7623,-1,1
444,0.55802,1.7647,-1,1
445,0.55979,1.7667,-1,1
446,0.56157,1.7686,-1,1
447,0.56334,1.7706,-1,1
448,0.56512,1.772,-1,1
449,0.5669,1.7729,-1,1
450,0.56867,1.7733,-1,1
451,0.57044,1.7741,-1,1
452,0.57222,1.7747,-1,1
453,0.57399,1.7746,-1,1
454,0.57576,1.7742,-1,1
455,0.57753,1.7736,-1,1
456,0.5793,1.7732,-1,1
457,0.58107,1.7725,-1,1
458,0.58283,1.7716,-1,1
459,0.5846,1.7701,-1,1
460,0.58635,1.7686,-1,1
461,0.58811,1.7668,-1,1
462,0.58987,1.7651,-1,1
463,0.59162,1.7629,-1,1
464,0.59337,1.7603,-1,1
465,0.59511,1.7578,-1,1
466,0.59685,1.7553,-1,1
467,0.59859,1.7524,-1,1
468,0.60033,1.7493,-1,1
469,0.60205,1.7457,-1,1
470,0.60378,1.7424,-1,1
471,0.6055,1.7391,-1,1
472,0.60722,1.7354,-1,1
473,0.60894,1.7317,-1,1
474,0.61235,1.7274,-1,1
475,0.61405,1.7232,-1,1
476,0.61575,1.7187,-1,1
477,0.61744,1.714,-1,1
478,0.61912,1.7089,-1,1
479,0.6208,1.7041,-1,1
480,0.62248,1.6992,-1,1
481,0.62415,1.6944,-1,1
482,0.62582,1.689,-1,1
483,0.62748,1.6836,-1,1
484,0.62914,1.6788,-1,1
485,0.63243,1.673,-1,1
486,0.63407,1.6671,-1,1
487,0.6357,1.6615,-1,1
488,0.63734,1.6562,-1,1
489,0.63896,1.6508,-1,1
490,0.64058,1.6449,-1,1
491,0.64219,1.6385,-1,1
492,0.6438,1.6327,-1,1
493,0.6454,1.6272,-1,1
494,0.647,1.6216,-1,1
495,0.64859,1.6164,-1,1
496,0.65018,1.6111,-1,1
497,0.65176,1.6059,-1,1
498,0.65334,1.6006,-1,1
499,0.65492,1.5955,-1,1
500,0.65648,1.5905,-1,1
501,0.65805,1.5856,-1,1
502,0.6596,1.5803,-1,1
503,0.66115,1.575,-1,1
504,0.6627,1.5698,-1,1
505,0.66424,1.5648,-1,1
506,0.66578,1.56,-1,1
507,0.66731,1.5548,-1,1
508,0.66884,1.55,-1,1
509,0.67036,1.5448,-1,1
510,0.67188,1.5399,-1,1
511,0.67339,1.5348,-1,1
512,0.6749,1.5301,-1,1
513,0.6764,1.5251,-1,1
514,0.6779,1.5204,-1,1
515,0.6794,1.5154,-1,1
516,0.68089,1.5105,-1,1
517,0.68237,1.506,-1,1
518,0.68385,1.5011,-1,1
519,0.68533,1.4969,-1,1
520,0.68681,1.4924,-1,1
521,0.68827,1.488,-1,1
522,0.68974,1.4836,-1,1
523,0.6912,1.4797,-1,1
524,0.69266,1.4758,-1,1
525,0.69412,1.4723,-1,1
526,0.69557,1.4685,-1,1
527,0.69702,1.4646,-1,1
528,0.69846,1.4611,-1,1
529,0.69991,1.4576,-1,1
530,0.70135,1.4546,-1,1
531,0.70279,1.4521,-1,1
532,0.70423,1.4493,-1,1
533,0.70566,1.4462,-1,1
534,0.7071,1.4434,-1,1
535,0.70853,1.4413,-1,1
536,0.70997,1.4396,-1,1
537,0.7114,1.4379,-1,1
538,0.71283,1.4362,-1,1
539,0.71425,1.4344,-1,1
540,0.71568,1.4328,-1,1
541,0.71711,1.4317,-1,1
542,0.71854,1.4312,-1,1
543,0.71997,1.4309,-1,1
544,0.7214,1.4304,-1,1
545,0.72283,1.4298,-1,1
546,0.72426,1.4295,-1,1
547,0.72569,1.4297,-1,1
548,0.72713,1.4303,-1,1
549,0.72857,1.4314,-1,1
550,0.73,1.4325,-1,1
551,0.73144,1.4333,-1,1
552,0.73289,1.4343,-1,1
553,0.73433,1.4358,-1,1
554,0.73578,1.4378,-1,1
555,0.73723,1.4401,-1,1
556,0.73869,1.4425,-1,1
557,0.74014,1.4449,-1,1
558,0.7416,1.4474,-1,1
559,0.74307,1.4501,-1,1
560,0.74454,1.4533,-1,1
561,0.74601,1.457,-1,1
562,0.74749,1.4607,-1,1
563,0.74897,1.4645,-1,1
564,0.75046,1.4684,-1,1
565,0.75196,1.4726,-1,1
566,0.75346,1.4771,-1,1
567,0.75496,1.4822,-1,1
568,0.75647,1.4872,-1,1
569,0.75799,1.4925,-1,1
570,0.75952,1.4979,-1,1
571,0.76105,1.5037,-1,1
572,0.76259,1.5096,-1,1
573,0.76413,1.5159,-1,1
574,0.76568,1.5222,-1,1
575,0.76724,1.5286,-1,1
576,0.76881,1.5356,-1,1
577,0.77039,1.5423,-1,1
578,0.77197,1.5492,-1,1
579,0.77356,1.5561,-1,1
580,0.77515,1.5634,-1,1
581,0.77676,1.5707,-1,1
582,0.77837,1.5782,-1,1
583,0.77999,1.5852,-1,1
584,0.78161,1.5924,-1,1
585,0.78325,1.6003,-1,1
586,0.78489,1.6079,-1,1
587,0.78654,1.6153,-1,1
588,0.78819,1.6224,-1,1
589,0.78985,1.6294,-1,1
590,0.79152,1.6366,-1,1
591,0.7932,1.6438,-1,1
592,0.79488,1.6504,-1,1
593,0.79824,1.6573,-1,1
594,0.79993,1.6645,-1,1
595,0.80164,1.6709,-1,1
596,0.80334,1.6766,-1,1
597,0.80504,1.6819,-1,1
598,0.80674,1.6872,-1,1
599,0.80846,1.6928,-1,1
600,0.81018,1.6977,-1,1
601,0.81189,1.7014,-1,1
602,0.81361,1.7051,-1,1
603,0.81533,1.7086,-1,1
604,0.81705,1.7117,-1,1
605,0.81878,1.7139,-1,1
606,0.8205,1.7158,-1,1
607,0.82222,1.7179,-1,1
608,0.82395,1.7204,-1,1
609,0.82568,1.7221,-1,1
610,0.8274,1.7229,-1,1
611,0.82913,1.7236,-1,1
612,0.83085,1.7245,-1,1
613,0.83258,1.7254,-1,1
614,0.83431,1.7252,-1,1
615,0.83775,1.7249,-1,1
616,0.83947,1.725,-1,1
617,0.83947,1.725,-1,1
618,0.8412,1.7245,-1,1
619,0.84292,1.7234,-1,1
620,0.84463,1.7225,-1,1
621,0.84635,1.7218,-1,1
622,0.84806,1.7207,-1,1
623,0.84978,1.7189,-1,1
624,0.85319,1.7173,-1,1
625,0.8549,1.7157,-1,1
626,0.8566,1.7136,-1,1
627,0.8566,1.7112,-1,1
628,0.8583,1.7088,-1,1
629,0.86,1.7065,-1,1
630,0.86169,1.7043,-1,1
631,0.86339,1.7022,-1,1
632,0.86508,1.7,-1,1
633,0.86676,1.6972,-1,1
634,0.86844,1.6945,-1,1
635,0.87012,1.692,-1,1
636,0.87348,1.6894,-1,1
637,0.87515,1.6865,-1,1
638,0.87515,1.6829,-1,1
639,0.87681,1.6796,-1,1
640,0.87848,1.6764,-1,1
641,0.88014,1.6733,-1,1
642,0.8818,1.6701,-1,1
643,0.88345,1.6672,-1,1
644,0.8851,1.6639,-1,1
645,0.88674,1.6604,-1,1
646,0.88839,1.657,-1,1
647,0.89167,1.6537,-1,1
648,0.8933,1.6504,-1,1
649,0.89492,1.6469,-1,1
650,0.89492,1.6434,-1,1
651,0.89655,1.6398,-1,1
652,0.89818,1.6361,-1,1
653,0.89979,1.6325,-1,1
654,0.90141,1.6291,-1,1
655,0.90302,1.6254,-1,1
656,0.90462,1.6216,-1,1
657,0.90783,1.6176,-1,1
658,0.90942,1.6141,-1,1
659,0.91101,1.6107,-1,1
660,0.9126,1.6067,-1,1
661,0.91418,1.6021,-1,1
662,0.91576,1.5975,-1,1
663,0.91733,1.5932,-1,1
664,0.91891,1.5892,-1,1
665,0.92048,1.5852,-1,1
666,0.92204,1.5812,-1,1
667,0.92359,1.5769,-1,1
668,0.92514,1.5725,-1,1
669,0.9267,1.5682,-1,1
670,0.92824,1.564,-1,1
671,0.92978,1.56,-1,1
672,0.93131,1.5554,-1,1
673,0.93284,1.5509,-1,1
674,0.93437,1.5465,-1,1
675,0.9359,1.5422,-1,1
676,0.93741,1.5375,-1,1
677,0.93892,1.533,-1,1
678,0.94043,1.5283,-1,1
679,0.94193,1.5237,-1,1
680,0.94343,1.5192,-1,1
681,0.94493,1.5146,-1,1
682,0.94641,1.5099,-1,1
683,0.94789,1.5049,-1,1
684,0.94937,1.4999,-1,1
685,0.95085,1.4949,-1,1
686,0.95232,1.4904,-1,1
687,0.95378,1.4859,-1,1
688,0.95524,1.481,-1,1
689,0.95669,1.4757,-1,1
690,0.95814,1.4706,-1,1
691,0.95958,1.4655,-1,1
692,0.96102,1.4608,-1,1
693,0.96245,1.4559,-1,1
694,0.96388,1.4508,-1,1
695,0.9653,1.4459,-1,1
696,0.96673,1.441,-1,1
697,0.96814,1.4361,-1,1
698,0.96955,1.431,-1,1
699,0.97095,1.4257,-1,1
700,0.97234,1.4205,-1,1
701,0.97374,1.4159,-1,1
702,0.97513,1.4114,-1,1
703,0.97652,1.4067,-1,1
704,0.97789,1.4011,-1,1
705,0.97926,1.3953,-1,1
706,0.98062,1.3897,-1,1
707,0.98199,1.385,-1,1
708,0.98335,1.3809,-1,1
709,0.98471,1.3763,-1,1
710,0.98605,1.3708,-1,1
711,0.98739,1.3648,-1,1
712,0.98873,1.3593,-1,1
713,0.99006,1.3546,-1,1
714,0.9914,1.3507,-1,1
715,0.99272,1.3463,-1,1
716,0.99404,1.3412,-1,1
717,0.99535,1.3357,-1,1
718,0.99666,1.3303,-1,1
719,0.99797,1.3258,-1,1
720,0.99926,1.3214,-1,1
721,1.00056,1.3169,-1,1
722,1.00185,1.3123,-1,1
723,1.00313,1.3071,-1,1
724,1.00442,1.3021,-1,1
725,1.0057,1.2978,-1,1
726,1.00697,1.2934,-1,1
727,1.00823,1.2885,-1,1
728,1.0095,1.2838,-1,1
729,1.01076,1.279,-1,1
730,1.01201,1.2748,-1,1
731,1.01327,1.2708,-1,1
732,1.01452,1.2666,-1,1
733,1.01575,1.262,-1,1
734,1.01699,1.257,-1,1
735,1.01822,1.2523,-1,1
736,1.01945,1.2485,-1,1
737,1.02191,1.2446,-1,1
738,1.02191,1.24,-1,1
739,1.02433,1.2347,-1,1
740,1.02553,1.2291,-1,1
741,1.02674,1.2242,-1,1
742,1.02794,1.2201,-1,1
743,1.02915,1.217,-1,1
744,1.03035,1.2133,-1,1
745,1.03153,1.2084,-1,1
746,1.03271,1.2029,-1,1
747,1.03389,1.1984,-1,1
748,1.03507,1.195,-1,1
749,1.03626,1.193,-1,1
750,1.03862,1.1901,-1,1
751,1.03978,1.1858,-1,1
752,1.04093,1.1806,-1,1
753,1.04209,1.1758,-1,1
754,1.04326,1.1729,-1,1
755,1.04443,1.171,-1,1
756,1.04559,1.1693,-1,1
757,1.04674,1.1665,-1,1
758,1.04788,1.1627,-1,1
759,1.04903,1.1582,-1,1
760,1.05017,1.1555,-1,1
761,1.05132,1.1541,-1,1
762,1.05247,1.1529,-1,1
763,1.05475,1.1506,-1,1
764,1.05588,1.1468,-1,1
765,1.05701,1.1432,-1,1
766,1.05814,1.1404,-1,1
767,1.05928,1.1388,-1,1
768,1.06041,1.1377,-1,1
769,1.06154,1.1363,-1,1
770,1.06266,1.1339,-1,1
771,1.06377,1.1308,-1,1
772,1.06489,1.1287,-1,1
773,1.06714,1.1274,-1,1
774,1.06826,1.1263,-1,1
775,1.06937,1.1244,-1,1
776,1.07047,1.1214,-1,1
777,1.07158,1.1182,-1,1
778,1.07268,1.1157,-1,1
779,1.0738,1.114,-1,1
780,1.07491,1.1129,-1,1
781,1.07601,1.1116,-1,1
782,1.07711,1.1089,-1,1
783,1.0782,1.1056,-1,1
784,1.07929,1.1029,-1,1
785,1.08038,1.1013,-1,1
786,1.08148,1.1007,-1,1
787,1.08258,1.0999,-1,1
788,1.08366,1.098,-1,1
789,1.08475,1.0951,-1,1
790,1.08582,1.0918,-1,1
791,1.0869,1.0891,-1,1
792,1.08798,1.0877,-1,1
793,1.08907,1.087,-1,1
794,1.09015,1.0858,-1,1
795,1.09122,1.0835,-1,1
796,1.09228,1.0802,-1,1
797,1.09334,1.0766,-1,1
798,1.09441,1.0741,-1,1
799,1.09547,1.0722,-1,1
800,1.09653,1.0707,-1,1
801,1.09759,1.0685,-1,1
802,1.09864,1.0653,-1,1
803,1.09968,1.0614,-1,1
804,1.10072,1.0578,-1,1
805,1.10177,1.0552,-1,1
806,1.10281,1.0532,-1,1
807,1.10386,1.0515,-1,1
808,1.10489,1.0488,-1,1
809,1.10592,1.0456,-1,1
810,1.10695,1.0422,-1,1
811,1.10798,1.0396,-1,1
812,1.10901,1.0378,-1,1
813,1.11004,1.0363,-1,1
814,1.11107,1.0343,-1,1
815,1.11208,1.0316,-1,1
816,1.1131,1.0288,-1,1
817,1.11411,1.0259,-1,1
818,1.11513,1.0237,-1,1
819,1.11614,1.0221,-1,1
820,1.11715,1.0203,-1,1
821,1.11816,1.0182,-1,1
822,1.11917,1.0154,-1,1
823,1.12017,1.0125,-1,1
824,1.12117,1.0104,-1,1
825,1.12217,1.0085,-1,1
826,1.12317,1.0066,-1,1
827,1.12416,1.0046,-1,1
828,1.12515,1.0022,-1,1
829,1.12614,0.9998,-1,1
830,1.12713,0.9978,-1,1
831,1.12812,0.9957,-1,1
832,1.1291,0.9938,-1,1
833,1.13008,0.9917,-1,1
834,1.13106,0.9895,-1,1
835,1.13204,0.9874,-1,1
836,1.13302,0.9856,-1,1
837,1.134,0.9838,-1,1
838,1.13497,0.9819,-1,1
839,1.13594,0.9797,-1,1
