cnt,pos,speed,Dir,Force,
1,0,1.001,-1,1
2,0.00100994,1.0019,-1,1
3,0.00200987,1.0023,-1,1
4,0.00301981,1.0033,-1,1
5,0.00401974,1.0039,-1,1
6,0.00502968,1.0046,-1,1
7,0.00603962,1.0057,-1,1
8,0.00704956,1.0065,-1,1
9,0.00805998,1.0071,-1,1
10,0.00906992,1.0073,-1,1
11,0.0100698,1.007,-1,1
12,0.0110798,1.007,-1,1
13,0.0120897,1.0072,-1,1
14,0.0130897,1.0074,-1,1
15,0.0140996,1.008,-1,1
16,0.01511,1.0082,-1,1
17,0.01612,1.0078,-1,1
18,0.0171199,1.0074,-1,1
19,0.0181298,1.0068,-1,1
20,0.0191298,1.0062,-1,1
21,0.0201397,1.0061,-1,1
22,0.0211396,1.0056,-1,1
23,0.02214,1.0055,-1,1
24,0.02314,1.0051,-1,1
25,0.0241499,1.0042,-1,1
26,0.0251498,1.0032,-1,1
27,0.0261397,1.0022,-1,1
28,0.0271397,1.001,-1,1
29,0.0281296,1.0005,-1,1
30,0.02913,0.9999,-1,1
31,0.0301299,0.9993,-1,1
32,0.0311198,0.9987,-1,1
33,0.0321198,0.9975,-1,1
34,0.0331097,0.9961,-1,1
35,0.0340896,0.9947,-1,1
36,0.03508,0.9936,-1,1
37,0.0360699,0.993,-1,1
38,0.0370598,0.9927,-1,1
39,0.0380497,0.9919,-1,1
40,0.0390396,0.9908,-1,1
41,0.04002,0.9895,-1,1
42,0.0419898,0.9882,-1,1
43,0.0429697,0.9872,-1,1
44,0.0439496,0.9863,-1,1
45,0.04493,0.9857,-1,1
46,0.0459199,0.9852,-1,1
47,0.0468998,0.9846,-1,1
48,0.0478797,0.9836,-1,1
49,0.0488596,0.9824,-1,1
50,0.04983,0.9813,-1,1
51,0.0508099,0.9805,-1,1
52,0.0527596,0.98,-1,1
53,0.05374,0.9796,-1,1
54,0.0547199,0.9796,-1,1
55,0.0556998,0.9796,-1,1
56,0.0556998,0.9791,-1,1
57,0.0566797,0.9785,-1,1
58,0.0576596,0.9779,-1,1
59,0.05863,0.9772,-1,1
60,0.0596099,0.9773,-1,1
61,0.0605798,0.9777,-1,1
62,0.0625396,0.978,-1,1
63,0.06352,0.9783,-1,1
64,0.0644999,0.9782,-1,1
65,0.0654798,0.978,-1,1
66,0.0664597,0.9779,-1,1
67,0.06744,0.9778,-1,1
68,0.0684199,0.9784,-1,1
69,0.0693998,0.9795,-1,1
70,0.0703897,0.9806,-1,1
71,0.0713696,0.9811,-1,1
72,0.0723596,0.9816,-1,1
73,0.0733399,0.9817,-1,1
74,0.0753098,0.9822,-1,1
75,0.0762897,0.983,-1,1
76,0.0772896,0.9845,-1,1
77,0.07828,0.986,-1,1
78,0.0792699,0.9872,-1,1
79,0.0802598,0.9878,-1,1
80,0.0812497,0.9878,-1,1
81,0.0822396,0.9883,-1,1
82,0.08323,0.9891,-1,1
83,0.0842299,0.9907,-1,1
84,0.0852299,0.9923,-1,1
85,0.0862298,0.9935,-1,1
86,0.0872297,0.9943,-1,1
87,0.0882297,0.9948,-1,1
88,0.0892296,0.9955,-1,1
89,0.09023,0.9966,-1,1
90,0.0912299,0.9981,-1,1
91,0.0922399,0.9996,-1,1
92,0.0932498,1.0014,-1,1
93,0.0942597,1.0028,-1,1
94,0.0952697,1.0037,-1,1
95,0.0962796,1.0046,-1,1
96,0.09728,1.0054,-1,1
97,0.09829,1.0069,-1,1
98,0.0993099,1.0082,-1,1
99,0.10033,1.0099,-1,1
100,0.10135,1.0119,-1,1
101,0.10237,1.0136,-1,1
102,0.10339,1.0146,-1,1
103,0.10441,1.0153,-1,1
104,0.10543,1.016,-1,1
105,0.10645,1.0172,-1,1
106,0.10747,1.019,-1,1
107,0.10851,1.021,-1,1
108,0.10954,1.023,-1,1
109,0.11057,1.0245,-1,1
110,0.1116,1.0252,-1,1
111,0.11263,1.0258,-1,1
112,0.11366,1.0265,-1,1
113,0.11469,1.0277,-1,1
114,0.11573,1.0297,-1,1
115,0.11677,1.0321,-1,1
116,0.11781,1.0339,-1,1
117,0.11886,1.0349,-1,1
118,0.11989,1.0353,-1,1
119,0.12093,1.0358,-1,1
120,0.12197,1.0367,-1,1
121,0.12301,1.0383,-1,1
122,0.12406,1.0405,-1,1
123,0.12512,1.0429,-1,1
124,0.12617,1.0446,-1,1
125,0.12722,1.0449,-1,1
126,0.12826,1.045,-1,1
127,0.12931,1.0452,-1,1
128,0.13036,1.0469,-1,1
129,0.13142,1.0492,-1,1
130,0.13249,1.0518,-1,1
131,0.13355,1.0534,-1,1
132,0.1346,1.0541,-1,1
133,0.13566,1.0538,-1,1
134,0.13671,1.0539,-1,1
135,0.13777,1.0551,-1,1
136,0.13883,1.057,-1,1
137,0.1399,1.0595,-1,1
138,0.14097,1.0612,-1,1
139,0.14204,1.0619,-1,1
140,0.1431,1.0617,-1,1
141,0.14416,1.0616,-1,1
142,0.14522,1.0622,-1,1
143,0.14629,1.0638,-1,1
144,0.14737,1.0658,-1,1
145,0.14845,1.0677,-1,1
146,0.14952,1.0691,-1,1
147,0.1506,1.0694,-1,1
148,0.15166,1.0691,-1,1
149,0.15273,1.0691,-1,1
150,0.1538,1.07,-1,1
151,0.15488,1.072,-1,1
152,0.15597,1.0743,-1,1
153,0.15705,1.0761,-1,1
154,0.15814,1.0769,-1,1
155,0.15921,1.0769,-1,1
156,0.16029,1.0766,-1,1
157,0.16137,1.077,-1,1
158,0.16245,1.0785,-1,1
159,0.16354,1.0811,-1,1
160,0.16464,1.0837,-1,1
161,0.16573,1.0851,-1,1
162,0.16682,1.0853,-1,1
163,0.1679,1.0849,-1,1
164,0.16898,1.0848,-1,1
165,0.17007,1.086,-1,1
166,0.17117,1.0883,-1,1
167,0.17228,1.0912,-1,1
168,0.17338,1.0932,-1,1
169,0.17448,1.0936,-1,1
170,0.17557,1.0929,-1,1
171,0.17665,1.0921,-1,1
172,0.17775,1.0926,-1,1
173,0.17885,1.0948,-1,1
174,0.17996,1.0978,-1,1
175,0.18107,1.0998,-1,1
176,0.18217,1.1003,-1,1
177,0.18327,1.0994,-1,1
178,0.18436,1.0983,-1,1
179,0.18546,1.0983,-1,1
180,0.18657,1.1001,-1,1
181,0.18768,1.1031,-1,1
182,0.1888,1.1052,-1,1
183,0.1899,1.1053,-1,1
184,0.191,1.1038,-1,1
185,0.1921,1.1024,-1,1
186,0.1932,1.1025,-1,1
187,0.19431,1.104,-1,1
188,0.19542,1.1062,-1,1
189,0.19654,1.1078,-1,1
190,0.19764,1.1077,-1,1
191,0.19874,1.1062,-1,1
192,0.19984,1.1047,-1,1
193,0.20095,1.1045,-1,1
194,0.20206,1.1058,-1,1
195,0.20317,1.1074,-1,1
196,0.20428,1.108,-1,1
197,0.20538,1.1074,-1,1
198,0.20649,1.1063,-1,1
199,0.20759,1.1052,-1,1
200,0.20869,1.1048,-1,1
201,0.2098,1.1053,-1,1
202,0.2109,1.1062,-1,1
203,0.21201,1.1066,-1,1
204,0.21311,1.1059,-1,1
205,0.21422,1.1048,-1,1
206,0.21532,1.1038,-1,1
207,0.21642,1.1035,-1,1
208,0.21752,1.1036,-1,1
209,0.21862,1.1039,-1,1
210,0.21973,1.1039,-1,1
211,0.22083,1.1033,-1,1
212,0.22192,1.1021,-1,1
213,0.22302,1.1008,-1,1
214,0.22412,1.1003,-1,1
215,0.22522,1.1003,-1,1
216,0.22632,1.1005,-1,1
217,0.22742,1.1002,-1,1
218,0.22851,1.0993,-1,1
219,0.22961,1.098,-1,1
220,0.2307,1.0968,-1,1
221,0.23179,1.096,-1,1
222,0.23288,1.0959,-1,1
223,0.23398,1.0962,-1,1
224,0.23617,1.0956,-1,1
225,0.23726,1.0942,-1,1
226,0.23726,1.0922,-1,1
227,0.23942,1.0907,-1,1
228,0.24051,1.09,-1,1
229,0.2416,1.09,-1,1
230,0.24269,1.0901,-1,1
231,0.24378,1.0896,-1,1
232,0.24486,1.088,-1,1
233,0.24593,1.0858,-1,1
234,0.24701,1.0841,-1,1
235,0.24809,1.0838,-1,1
236,0.24917,1.084,-1,1
237,0.25026,1.084,-1,1
238,0.25134,1.0831,-1,1
239,0.25241,1.0811,-1,1
240,0.25347,1.0786,-1,1
241,0.25454,1.0765,-1,1
242,0.25561,1.0754,-1,1
243,0.25668,1.0751,-1,1
244,0.25776,1.075,-1,1
245,0.25882,1.0736,-1,1
246,0.25989,1.0717,-1,1
247,0.26095,1.0689,-1,1
248,0.262,1.0666,-1,1
249,0.26306,1.065,-1,1
250,0.26412,1.0644,-1,1
251,0.26518,1.0639,-1,1
252,0.26729,1.0623,-1,1
253,0.26834,1.0599,-1,1
254,0.26938,1.0568,-1,1
255,0.27043,1.0544,-1,1
256,0.27148,1.053,-1,1
257,0.27253,1.0524,-1,1
258,0.27358,1.0513,-1,1
259,0.27461,1.0495,-1,1
260,0.27565,1.0469,-1,1
261,0.27668,1.0445,-1,1
262,0.27772,1.0431,-1,1
263,0.27979,1.0417,-1,1
264,0.28083,1.0405,-1,1
265,0.28185,1.0385,-1,1
266,0.28287,1.0357,-1,1
267,0.2839,1.033,-1,1
268,0.28492,1.0309,-1,1
269,0.28594,1.0294,-1,1
270,0.28696,1.0279,-1,1
271,0.28798,1.0258,-1,1
272,0.28899,1.023,-1,1
273,0.29,1.0204,-1,1
274,0.29101,1.0184,-1,1
275,0.29202,1.0166,-1,1
276,0.29302,1.0147,-1,1
277,0.29402,1.0126,-1,1
278,0.29502,1.0099,-1,1
279,0.29602,1.0072,-1,1
280,0.29701,1.0046,-1,1
281,0.298,1.002,-1,1
282,0.29899,0.9998,-1,1
283,0.29997,0.9974,-1,1
284,0.30096,0.9948,-1,1
285,0.30194,0.9921,-1,1
286,0.30292,0.9896,-1,1
287,0.30389,0.9869,-1,1
288,0.30486,0.9844,-1,1
289,0.30583,0.9817,-1,1
290,0.3068,0.9789,-1,1
291,0.30776,0.976,-1,1
292,0.30872,0.9732,-1,1
293,0.30968,0.9707,-1,1
294,0.31064,0.9679,-1,1
295,0.31159,0.9649,-1,1
296,0.31254,0.9619,-1,1
297,0.31348,0.9586,-1,1
298,0.31442,0.9555,-1,1
299,0.31536,0.9523,-1,1
300,0.31629,0.9492,-1,1
301,0.31722,0.9463,-1,1
302,0.31815,0.9431,-1,1
303,0.31908,0.9401,-1,1
304,0.32001,0.9371,-1,1
305,0.32092,0.9338,-1,1
306,0.32184,0.9303,-1,1
307,0.32275,0.9271,-1,1
308,0.32365,0.9236,-1,1
309,0.32456,0.9205,-1,1
310,0.32546,0.9174,-1,1
311,0.32637,0.9144,-1,1
312,0.32726,0.9112,-1,1
313,0.32815,0.9077,-1,1
314,0.32904,0.9039,-1,1
315,0.32993,0.9007,-1,1
316,0.33081,0.8973,-1,1
317,0.33169,0.8942,-1,1
318,0.33256,0.8913,-1,1
319,0.33344,0.8883,-1,1
320,0.33431,0.885,-1,1
321,0.33518,0.8814,-1,1
322,0.33604,0.8781,-1,1
323,0.3369,0.8744,-1,1
324,0.33775,0.8712,-1,1
325,0.33861,0.8679,-1,1
326,0.33946,0.865,-1,1
327,0.34031,0.8619,-1,1
328,0.34115,0.8586,-1,1
329,0.34199,0.855,-1,1
330,0.34283,0.8518,-1,1
331,0.34367,0.8488,-1,1
332,0.3445,0.8457,-1,1
333,0.34533,0.8427,-1,1
334,0.34615,0.8394,-1,1
335,0.34697,0.8362,-1,1
336,0.34779,0.8331,-1,1
337,0.34861,0.8299,-1,1
338,0.34942,0.8269,-1,1
339,0.35023,0.8238,-1,1
340,0.35104,0.8205,-1,1
341,0.35184,0.8173,-1,1
342,0.35264,0.8141,-1,1
343,0.35343,0.8109,-1,1
344,0.35423,0.8077,-1,1
345,0.35502,0.8044,-1,1
346,0.3558,0.8011,-1,1
347,0.35659,0.798,-1,1
348,0.35737,0.7949,-1,1
349,0.35815,0.7921,-1,1
350,0.35893,0.7892,-1,1
351,0.3597,0.7862,-1,1
352,0.36047,0.7833,-1,1
353,0.36124,0.7805,-1,1
354,0.36201,0.7778,-1,1
355,0.36277,0.7752,-1,1
356,0.36352,0.7722,-1,1
357,0.36428,0.7692,-1,1
358,0.36503,0.7662,-1,1
359,0.36579,0.7635,-1,1
360,0.36654,0.761,-1,1
361,0.36729,0.7586,-1,1
362,0.36803,0.7561,-1,1
363,0.36878,0.7536,-1,1
364,0.36951,0.7509,-1,1
365,0.37025,0.7484,-1,1
366,0.37098,0.7461,-1,1
367,0.37172,0.7437,-1,1
368,0.37245,0.7415,-1,1
369,0.37318,0.7391,-1,1
370,0.37391,0.7367,-1,1
371,0.37463,0.7345,-1,1
372,0.37536,0.7323,-1,1
373,0.37608,0.7304,-1,1
374,0.3768,0.7285,-1,1
375,0.37752,0.7264,-1,1
376,0.37823,0.7245,-1,1
377,0.37894,0.7227,-1,1
378,0.37966,0.7209,-1,1
379,0.38037,0.7191,-1,1
380,0.38179,0.7173,-1,1
381,0.3825,0.7152,-1,1
382,0.3832,0.7133,-1,1
383,0.3839,0.7113,-1,1
384,0.38461,0.71,-1,1
385,0.38531,0.7086,-1,1
386,0.38601,0.7072,-1,1
387,0.38671,0.7056,-1,1
388,0.3881,0.704,-1,1
389,0.3888,0.7026,-1,1
390,0.3895,0.7015,-1,1
391,0.3902,0.7006,-1,1
392,0.39089,0.6995,-1,1
393,0.39089,0.6984,-1,1
394,0.39158,0.697,-1,1
395,0.39228,0.696,-1,1
396,0.39297,0.6951,-1,1
397,0.39366,0.6946,-1,1
398,0.39504,0.6939,-1,1
399,0.39573,0.6929,-1,1
400,0.39642,0.6917,-1,1
401,0.39711,0.6908,-1,1
402,0.3978,0.6905,-1,1
403,0.39849,0.6904,-1,1
404,0.39918,0.6902,-1,1
405,0.39987,0.6898,-1,1
406,0.40055,0.6892,-1,1
407,0.40124,0.6886,-1,1
408,0.40261,0.6883,-1,1
409,0.4033,0.6883,-1,1
410,0.40399,0.6884,-1,1
411,0.40468,0.6883,-1,1
412,0.40536,0.688,-1,1
413,0.40605,0.6877,-1,1
414,0.40674,0.6876,-1,1
415,0.40743,0.6878,-1,1
416,0.40812,0.6881,-1,1
417,0.40881,0.6883,-1,1
418,0.40949,0.6884,-1,1
419,0.41018,0.6883,-1,1
420,0.41087,0.6882,-1,1
421,0.41156,0.6883,-1,1
422,0.41225,0.6886,-1,1
423,0.41294,0.689,-1,1
424,0.41363,0.6894,-1,1
425,0.41433,0.6898,-1,1
426,0.41502,0.6903,-1,1
427,0.41572,0.6908,-1,1
428,0.41641,0.6913,-1,1
429,0.4171,0.692,-1,1
430,0.4178,0.693,-1,1
431,0.4185,0.6939,-1,1
432,0.4192,0.6947,-1,1
433,0.4199,0.6955,-1,1
434,0.4206,0.6961,-1,1
435,0.4213,0.6968,-1,1
436,0.422,0.6976,-1,1
437,0.4227,0.6989,-1,1
438,0.42341,0.7,-1,1
439,0.42411,0.7012,-1,1
440,0.42482,0.7019,-1,1
441,0.42552,0.7027,-1,1
442,0.42623,0.7035,-1,1
443,0.42694,0.7045,-1,1
444,0.42765,0.7059,-1,1
445,0.42837,0.707,-1,1
446,0.42908,0.7081,-1,1
447,0.42979,0.7087,-1,1
448,0.43051,0.7098,-1,1
449,0.43122,0.7109,-1,1
450,0.43194,0.7124,-1,1
451,0.43266,0.7137,-1,1
452,0.43338,0.7147,-1,1
453,0.4341,0.7155,-1,1
454,0.43482,0.7164,-1,1
455,0.43554,0.7176,-1,1
456,0.43627,0.719,-1,1
457,0.437,0.7206,-1,1
458,0.43773,0.7218,-1,1
459,0.43846,0.723,-1,1
460,0.43918,0.7239,-1,1
461,0.43991,0.7252,-1,1
462,0.44065,0.727,-1,1
463,0.44139,0.7288,-1,1
464,0.44212,0.7303,-1,1
465,0.44286,0.7316,-1,1
466,0.4436,0.7328,-1,1
467,0.44434,0.7343,-1,1
468,0.44509,0.7362,-1,1
469,0.44584,0.738,-1,1
470,0.44658,0.7399,-1,1
471,0.44733,0.7414,-1,1
472,0.44808,0.7427,-1,1
473,0.44883,0.7441,-1,1
474,0.44958,0.7456,-1,1
475,0.45034,0.7476,-1,1
476,0.45109,0.7494,-1,1
477,0.45185,0.7509,-1,1
478,0.45261,0.7522,-1,1
479,0.45337,0.7536,-1,1
480,0.45414,0.7552,-1,1
481,0.4549,0.7571,-1,1
482,0.45567,0.7589,-1,1
483,0.45644,0.7607,-1,1
484,0.4572,0.7622,-1,1
485,0.45797,0.7633,-1,1
486,0.45874,0.7648,-1,1
487,0.45952,0.7665,-1,1
488,0.4603,0.7684,-1,1
489,0.46107,0.7702,-1,1
490,0.46185,0.7717,-1,1
491,0.46263,0.773,-1,1
492,0.46341,0.7745,-1,1
493,0.4642,0.7762,-1,1
494,0.46498,0.7781,-1,1
495,0.46577,0.78,-1,1
496,0.46656,0.7814,-1,1
497,0.46735,0.7828,-1,1
498,0.46814,0.7843,-1,1
499,0.46893,0.7858,-1,1
500,0.46973,0.7878,-1,1
501,0.47053,0.7894,-1,1
502,0.47132,0.7909,-1,1
503,0.47212,0.7921,-1,1
504,0.47292,0.7937,-1,1
505,0.47373,0.7954,-1,1
506,0.47453,0.7973,-1,1
507,0.47533,0.7988,-1,1
508,0.47614,0.8002,-1,1
509,0.47695,0.8017,-1,1
510,0.47776,0.803,-1,1
511,0.47857,0.8047,-1,1
512,0.47939,0.8063,-1,1
513,0.4802,0.808,-1,1
514,0.48101,0.8092,-1,1
515,0.48183,0.8104,-1,1
516,0.48265,0.8118,-1,1
517,0.48347,0.8135,-1,1
518,0.48429,0.8149,-1,1
519,0.48511,0.8162,-1,1
520,0.48593,0.8172,-1,1
521,0.48676,0.8184,-1,1
522,0.48758,0.8197,-1,1
523,0.48924,0.8211,-1,1
524,0.49007,0.8225,-1,1
525,0.49089,0.8236,-1,1
526,0.49173,0.8248,-1,1
527,0.49256,0.8261,-1,1
528,0.4934,0.8276,-1,1
529,0.49423,0.8288,-1,1
530,0.49506,0.8299,-1,1
531,0.49589,0.8307,-1,1
532,0.49673,0.8319,-1,1
533,0.49757,0.8331,-1,1
534,0.49841,0.8346,-1,1
535,0.49926,0.8359,-1,1
536,0.50093,0.8366,-1,1
537,0.50177,0.8372,-1,1
538,0.50177,0.838,-1,1
539,0.50262,0.8392,-1,1
540,0.50431,0.8406,-1,1
541,0.50431,0.8418,-1,1
542,0.506,0.8427,-1,1
543,0.50685,0.8437,-1,1
544,0.5077,0.8447,-1,1
545,0.50855,0.8458,-1,1
546,0.5094,0.8468,-1,1
547,0.51024,0.8473,-1,1
548,0.51109,0.8478,-1,1
549,0.51195,0.8484,-1,1
550,0.5128,0.8495,-1,1
551,0.51366,0.8507,-1,1
552,0.51452,0.8518,-1,1
553,0.51537,0.8524,-1,1
554,0.51623,0.8525,-1,1
555,0.51794,0.8531,-1,1
556,0.5188,0.8542,-1,1
557,0.51966,0.8557,-1,1
558,0.52052,0.8569,-1,1
559,0.52138,0.8579,-1,1
560,0.52224,0.8587,-1,1
561,0.52311,0.8598,-1,1
562,0.52398,0.8606,-1,1
563,0.52484,0.8615,-1,1
564,0.52571,0.8626,-1,1
565,0.52658,0.8637,-1,1
566,0.52745,0.8649,-1,1
567,0.52832,0.8661,-1,1
568,0.52919,0.8673,-1,1
569,0.53007,0.8686,-1,1
570,0.53095,0.8701,-1,1
571,0.53182,0.8713,-1,1
572,0.5327,0.8727,-1,1
573,0.53358,0.8738,-1,1
574,0.53446,0.8752,-1,1
575,0.53534,0.8768,-1,1
576,0.53623,0.8783,-1,1
577,0.53712,0.88,-1,1
578,0.53801,0.8817,-1,1
579,0.5389,0.8832,-1,1
580,0.53979,0.8844,-1,1
581,0.54068,0.8856,-1,1
582,0.54157,0.8871,-1,1
583,0.54247,0.8891,-1,1
584,0.54337,0.8909,-1,1
585,0.54427,0.8926,-1,1
586,0.54517,0.8943,-1,1
587,0.54608,0.896,-1,1
588,0.54699,0.8979,-1,1
589,0.54789,0.8997,-1,1
590,0.5488,0.9014,-1,1
591,0.54971,0.9034,-1,1
592,0.55063,0.9052,-1,1
593,0.55154,0.9073,-1,1
594,0.55246,0.9096,-1,1
595,0.55339,0.9117,-1,1
596,0.55431,0.9139,-1,1
597,0.55524,0.9163,-1,1
598,0.55617,0.9182,-1,1
599,0.5571,0.9204,-1,1
600,0.55803,0.9226,-1,1
601,0.55896,0.9249,-1,1
602,0.5599,0.9277,-1,1
603,0.56085,0.9303,-1,1
604,0.56179,0.9326,-1,1
605,0.56274,0.9351,-1,1
606,0.56369,0.9376,-1,1
607,0.56464,0.9398,-1,1
608,0.56559,0.9421,-1,1
609,0.56655,0.9446,-1,1
610,0.5675,0.9471,-1,1
611,0.56846,0.9499,-1,1
612,0.56943,0.9524,-1,1
613,0.5704,0.955,-1,1
614,0.57137,0.9576,-1,1
615,0.57234,0.9601,-1,1
616,0.57331,0.9624,-1,1
617,0.57429,0.965,-1,1
618,0.57527,0.9677,-1,1
619,0.57625,0.9703,-1,1
620,0.57723,0.9731,-1,1
621,0.57822,0.9759,-1,1
622,0.57922,0.9787,-1,1
623,0.58021,0.9812,-1,1
624,0.58121,0.9839,-1,1
625,0.5822,0.9863,-1,1
626,0.5832,0.9892,-1,1
627,0.58421,0.9919,-1,1
628,0.58522,0.9948,-1,1
629,0.58623,0.9979,-1,1
630,0.58724,1.001,-1,1
631,0.58826,1.0038,-1,1
632,0.58928,1.0065,-1,1
633,0.5903,1.0093,-1,1
634,0.59133,1.012,-1,1
635,0.59235,1.0151,-1,1
636,0.59339,1.0183,-1,1
637,0.59442,1.0214,-1,1
638,0.59546,1.0244,-1,1
639,0.5965,1.0272,-1,1
640,0.59754,1.0302,-1,1
641,0.59859,1.0332,-1,1
642,0.59964,1.0359,-1,1
643,0.60069,1.0388,-1,1
644,0.60175,1.0421,-1,1
645,0.60281,1.0456,-1,1
646,0.60387,1.0486,-1,1
647,0.60494,1.0516,-1,1
648,0.606,1.0546,-1,1
649,0.60707,1.0577,-1,1
650,0.60815,1.0605,-1,1
651,0.60922,1.0633,-1,1
652,0.61031,1.0666,-1,1
653,0.61139,1.0699,-1,1
654,0.61248,1.0732,-1,1
655,0.61357,1.0762,-1,1
656,0.61466,1.0791,-1,1
657,0.61576,1.0819,-1,1
658,0.61685,1.085,-1,1
659,0.61796,1.0881,-1,1
660,0.61906,1.0912,-1,1
661,0.62017,1.0945,-1,1
662,0.62128,1.0979,-1,1
663,0.6224,1.101,-1,1
664,0.62352,1.1037,-1,1
665,0.62463,1.1063,-1,1
666,0.62576,1.1092,-1,1
667,0.62688,1.1123,-1,1
668,0.62801,1.1155,-1,1
669,0.62914,1.1185,-1,1
670,0.63028,1.1216,-1,1
671,0.63141,1.1244,-1,1
672,0.63369,1.1269,-1,1
673,0.63484,1.1297,-1,1
674,0.63598,1.1328,-1,1
675,0.63713,1.136,-1,1
676,0.63828,1.139,-1,1
677,0.63944,1.142,-1,1
678,0.6406,1.1447,-1,1
679,0.64175,1.1473,-1,1
680,0.64291,1.1497,-1,1
681,0.64408,1.1523,-1,1
682,0.64524,1.1551,-1,1
683,0.64641,1.1576,-1,1
684,0.64758,1.16,-1,1
685,0.64875,1.1622,-1,1
686,0.6511,1.1643,-1,1
687,0.65227,1.1664,-1,1
688,0.65345,1.1686,-1,1
689,0.65464,1.1711,-1,1
690,0.65582,1.1733,-1,1
691,0.657,1.175,-1,1
692,0.65818,1.1763,-1,1
693,0.65936,1.178,-1,1
694,0.66055,1.1795,-1,1
695,0.66174,1.1812,-1,1
696,0.66292,1.1828,-1,1
697,0.6653,1.1838,-1,1
698,0.66649,1.1848,-1,1
699,0.66768,1.1858,-1,1
700,0.66888,1.1873,-1,1
701,0.67007,1.1888,-1,1
702,0.67126,1.1899,-1,1
703,0.67245,1.1906,-1,1
704,0.67365,1.1913,-1,1
705,0.67484,1.1919,-1,1
706,0.67604,1.1926,-1,1
707,0.67723,1.1937,-1,1
708,0.67843,1.1943,-1,1
709,0.67962,1.1944,-1,1
710,0.68082,1.1941,-1,1
711,0.68201,1.1941,-1,1
712,0.68321,1.1945,-1,1
713,0.6844,1.195,-1,1
714,0.6856,1.1952,-1,1
715,0.68679,1.1949,-1,1
716,0.68798,1.1945,-1,1
717,0.68917,1.1938,-1,1
718,0.69036,1.1932,-1,1
719,0.69155,1.193,-1,1
720,0.69274,1.1929,-1,1
721,0.69393,1.1922,-1,1
722,0.69512,1.1912,-1,1
723,0.6963,1.19,-1,1
724,0.69749,1.1889,-1,1
725,0.69867,1.1881,-1,1
726,0.69986,1.1874,-1,1
727,0.70104,1.1869,-1,1
728,0.70222,1.1859,-1,1
729,0.70339,1.1842,-1,1
730,0.70457,1.1824,-1,1
731,0.70574,1.1811,-1,1
732,0.70692,1.1801,-1,1
733,0.70809,1.1791,-1,1
734,0.70926,1.178,-1,1
735,0.71043,1.1765,-1,1
736,0.7116,1.1743,-1,1
737,0.71276,1.1719,-1,1
738,0.71392,1.1702,-1,1
739,0.71508,1.169,-1,1
740,0.71625,1.1679,-1,1
741,0.7174,1.1662,-1,1
742,0.71856,1.164,-1,1
743,0.71971,1.1614,-1,1
744,0.72085,1.1589,-1,1
745,0.722,1.1568,-1,1
746,0.72315,1.1553,-1,1
747,0.7243,1.154,-1,1
748,0.72544,1.1524,-1,1
749,0.72658,1.15,-1,1
750,0.72772,1.1471,-1,1
751,0.72885,1.1444,-1,1
752,0.72998,1.1423,-1,1
753,0.73111,1.1407,-1,1
754,0.73224,1.1391,-1,1
755,0.73337,1.1372,-1,1
756,0.7345,1.1348,-1,1
757,0.73562,1.1319,-1,1
758,0.73673,1.1288,-1,1
759,0.73784,1.1263,-1,1
760,0.73896,1.1246,-1,1
761,0.74008,1.123,-1,1
762,0.74119,1.121,-1,1
763,0.74229,1.1183,-1,1
764,0.7434,1.1152,-1,1
765,0.74449,1.112,-1,1
766,0.74559,1.1094,-1,1
767,0.74669,1.1074,-1,1
768,0.74779,1.1056,-1,1
769,0.74888,1.1035,-1,1
770,0.74997,1.1005,-1,1
771,0.75105,1.0971,-1,1
772,0.75213,1.0939,-1,1
773,0.75321,1.0913,-1,1
774,0.75429,1.0892,-1,1
775,0.75537,1.0873,-1,1
776,0.75644,1.0847,-1,1
777,0.7575,1.0814,-1,1
778,0.75857,1.0781,-1,1
779,0.75963,1.0749,-1,1
780,0.76069,1.0723,-1,1
781,0.76175,1.0701,-1,1
782,0.76281,1.0678,-1,1
783,0.76386,1.065,-1,1
784,0.7649,1.0617,-1,1
785,0.76595,1.0583,-1,1
786,0.76699,1.0555,-1,1
787,0.76803,1.053,-1,1
788,0.76907,1.0504,-1,1
789,0.77011,1.0478,-1,1
790,0.77114,1.0448,-1,1
791,0.77216,1.0417,-1,1
792,0.77319,1.0386,-1,1
793,0.77422,1.0359,-1,1
794,0.77524,1.0333,-1,1
795,0.77625,1.0307,-1,1
796,0.77727,1.028,-1,1
797,0.77828,1.025,-1,1
798,0.77929,1.0218,-1,1
799,0.7803,1.0191,-1,1
800,0.7813,1.0166,-1,1
801,0.7823,1.014,-1,1
802,0.7833,1.0113,-1,1
803,0.7843,1.0082,-1,1
804,0.78529,1.0054,-1,1
805,0.78628,1.0028,-1,1
806,0.78727,0.9999,-1,1
807,0.78826,0.9974,-1,1
808,0.78924,0.995,-1,1
809,0.79022,0.9925,-1,1
810,0.7912,0.9898,-1,1
811,0.79218,0.9873,-1,1
812,0.79315,0.9845,-1,1
813,0.79412,0.9821,-1,1
814,0.79509,0.9796,-1,1
815,0.79605,0.9771,-1,1
816,0.79702,0.9745,-1,1
817,0.79894,0.9718,-1,1
818,0.7999,0.9696,-1,1
819,0.80085,0.9667,-1,1
820,0.8018,0.964,-1,1
821,0.80275,0.9609,-1,1
822,0.80369,0.9584,-1,1
823,0.80464,0.9558,-1,1
824,0.80558,0.9531,-1,1
825,0.80652,0.9501,-1,1
826,0.8084,0.9477,-1,1
827,0.80933,0.9452,-1,1
828,0.81026,0.9423,-1,1
829,0.81119,0.9395,-1,1
830,0.81211,0.9368,-1,1
831,0.81304,0.9347,-1,1
832,0.81397,0.9327,-1,1
833,0.81489,0.9305,-1,1
834,0.81581,0.9283,-1,1
835,0.81672,0.9262,-1,1
836,0.81763,0.9236,-1,1
837,0.81946,0.9213,-1,1
838,0.82036,0.919,-1,1
