cnt,pos,speed,Dir,Force,
1,0,1.4043,-1,1
2,0.00139999,1.4045,-1,1
3,0.00281,1.4045,-1,1
4,0.00421,1.4041,-1,1
5,0.00560999,1.4041,-1,1
6,0.00700998,1.404,-1,1
7,0.00841999,1.4038,-1,1
8,0.00981998,1.4037,-1,1
9,0.01122,1.4034,-1,1
10,0.01262,1.4028,-1,1
11,0.01402,1.4026,-1,1
12,0.01543,1.4024,-1,1
13,0.01683,1.4021,-1,1
14,0.01823,1.4019,-1,1
15,0.01963,1.4014,-1,1
16,0.0210299,1.4009,-1,1
17,0.0224299,1.4006,-1,1
18,0.0238299,1.4007,-1,1
19,0.0252299,1.4007,-1,1
20,0.0266299,1.4007,-1,1
21,0.0280299,1.4001,-1,1
22,0.0294299,1.3999,-1,1
23,0.0322299,1.3999,-1,1
24,0.0336299,1.4001,-1,1
25,0.0336299,1.4,-1,1
26,0.0350299,1.3999,-1,1
27,0.0364199,1.3996,-1,1
28,0.0378199,1.3993,-1,1
29,0.0392299,1.3996,-1,1
30,0.0406299,1.4001,-1,1
31,0.0420299,1.4002,-1,1
32,0.0434198,1.3998,-1,1
33,0.0448198,1.4,-1,1
34,0.0476298,1.4007,-1,1
35,0.0476298,1.4013,-1,1
36,0.0490398,1.4011,-1,1
37,0.0504298,1.4011,-1,1
38,0.0518198,1.4001,-1,1
39,0.0532198,1.3992,-1,1
40,0.0546298,1.3995,-1,1
41,0.0560398,1.4007,-1,1
42,0.0574398,1.4005,-1,1
43,0.0602202,1.3994,-1,1
44,0.0616202,1.3986,-1,1
45,0.0630302,1.3991,-1,1
46,0.0644403,1.4003,-1,1
47,0.0644403,1.4006,-1,1
48,0.0658402,1.4015,-1,1
49,0.0672302,1.4011,-1,1
50,0.0686302,1.3999,-1,1
51,0.0700302,1.3994,-1,1
52,0.0714402,1.4006,-1,1
53,0.0728502,1.4013,-1,1
54,0.0756402,1.4007,-1,1
55,0.0770402,1.3998,-1,1
56,0.0784502,1.3998,-1,1
57,0.0798602,1.401,-1,1
58,0.0798602,1.402,-1,1
59,0.0812702,1.4036,-1,1
60,0.0826702,1.4041,-1,1
61,0.0840602,1.4033,-1,1
62,0.0854702,1.4028,-1,1
63,0.0868802,1.4041,-1,1
64,0.0882902,1.4056,-1,1
65,0.0911002,1.4058,-1,1
66,0.0925002,1.4049,-1,1
67,0.0939102,1.4045,-1,1
68,0.0953202,1.405,-1,1
69,0.0953202,1.4057,-1,1
70,0.0967402,1.4073,-1,1
71,0.0981402,1.4085,-1,1
72,0.0995502,1.4085,-1,1
73,0.10095,1.4076,-1,1
74,0.10236,1.4077,-1,1
75,0.10378,1.4091,-1,1
76,0.1066,1.4102,-1,1
77,0.10801,1.4098,-1,1
78,0.10941,1.4089,-1,1
79,0.11083,1.4087,-1,1
80,0.11224,1.4087,-1,1
81,0.11366,1.4094,-1,1
82,0.11507,1.41,-1,1
83,0.11647,1.4104,-1,1
84,0.11788,1.4105,-1,1
85,0.1193,1.4104,-1,1
86,0.12072,1.411,-1,1
87,0.12213,1.4118,-1,1
88,0.12354,1.4123,-1,1
89,0.12494,1.4118,-1,1
90,0.12636,1.4115,-1,1
91,0.12777,1.4114,-1,1
92,0.12919,1.412,-1,1
93,0.13059,1.4121,-1,1
94,0.132,1.4116,-1,1
95,0.13341,1.4111,-1,1
96,0.13483,1.4111,-1,1
97,0.13624,1.4116,-1,1
98,0.13765,1.4117,-1,1
99,0.13906,1.4111,-1,1
100,0.14187,1.4106,-1,1
101,0.14329,1.4107,-1,1
102,0.1447,1.4108,-1,1
103,0.14611,1.4111,-1,1
104,0.14752,1.411,-1,1
105,0.14892,1.4103,-1,1
106,0.15033,1.4095,-1,1
107,0.15174,1.4094,-1,1
108,0.15456,1.4089,-1,1
109,0.15597,1.409,-1,1
110,0.15737,1.4084,-1,1
111,0.15878,1.4076,-1,1
112,0.16019,1.4071,-1,1
113,0.16159,1.4068,-1,1
114,0.163,1.4067,-1,1
115,0.1644,1.4065,-1,1
116,0.1658,1.4059,-1,1
117,0.16721,1.4049,-1,1
118,0.16861,1.4048,-1,1
119,0.17001,1.4043,-1,1
120,0.17141,1.404,-1,1
121,0.17281,1.4033,-1,1
122,0.17421,1.4026,-1,1
123,0.17561,1.402,-1,1
124,0.17701,1.4014,-1,1
125,0.1784,1.4005,-1,1
126,0.1798,1.3996,-1,1
127,0.18119,1.3988,-1,1
128,0.18259,1.3984,-1,1
129,0.18399,1.3983,-1,1
130,0.18538,1.3974,-1,1
131,0.18677,1.3958,-1,1
132,0.18815,1.3942,-1,1
133,0.18955,1.3934,-1,1
134,0.19095,1.3933,-1,1
135,0.19234,1.3934,-1,1
136,0.19372,1.3923,-1,1
137,0.1951,1.3905,-1,1
138,0.19648,1.3883,-1,1
139,0.19787,1.3873,-1,1
140,0.19926,1.3874,-1,1
141,0.20064,1.3875,-1,1
142,0.20202,1.3863,-1,1
143,0.20339,1.3842,-1,1
144,0.20477,1.3822,-1,1
145,0.20615,1.3812,-1,1
146,0.20753,1.3811,-1,1
147,0.20891,1.3809,-1,1
148,0.21028,1.3799,-1,1
149,0.21165,1.378,-1,1
150,0.21302,1.3762,-1,1
151,0.2144,1.3753,-1,1
152,0.21577,1.375,-1,1
153,0.21714,1.3745,-1,1
154,0.2185,1.3731,-1,1
155,0.21986,1.3713,-1,1
156,0.22123,1.37,-1,1
157,0.2226,1.3692,-1,1
158,0.22396,1.3687,-1,1
159,0.22532,1.3675,-1,1
160,0.22668,1.3657,-1,1
161,0.22804,1.3642,-1,1
162,0.2294,1.3633,-1,1
163,0.23076,1.3626,-1,1
164,0.23212,1.3619,-1,1
165,0.23347,1.3602,-1,1
166,0.23482,1.3584,-1,1
167,0.23617,1.3569,-1,1
168,0.23753,1.3563,-1,1
169,0.23888,1.3559,-1,1
170,0.24023,1.3552,-1,1
171,0.24157,1.3532,-1,1
172,0.24291,1.3511,-1,1
173,0.24426,1.3495,-1,1
174,0.24561,1.3488,-1,1
175,0.24696,1.3489,-1,1
176,0.2483,1.348,-1,1
177,0.24963,1.3462,-1,1
178,0.25097,1.344,-1,1
179,0.2523,1.3422,-1,1
180,0.25364,1.3412,-1,1
181,0.25498,1.3408,-1,1
182,0.25631,1.34,-1,1
183,0.25764,1.3384,-1,1
184,0.25897,1.3365,-1,1
185,0.2603,1.3345,-1,1
186,0.26163,1.3331,-1,1
187,0.26295,1.3318,-1,1
188,0.26427,1.3302,-1,1
189,0.26559,1.3287,-1,1
190,0.26691,1.3272,-1,1
191,0.26824,1.3258,-1,1
192,0.26956,1.3244,-1,1
193,0.27087,1.3227,-1,1
194,0.27217,1.3201,-1,1
195,0.27348,1.318,-1,1
196,0.27479,1.3165,-1,1
197,0.27611,1.3158,-1,1
198,0.27742,1.3148,-1,1
199,0.27872,1.313,-1,1
200,0.28002,1.3099,-1,1
201,0.28131,1.3069,-1,1
202,0.28261,1.3049,-1,1
203,0.28392,1.3044,-1,1
204,0.28522,1.3042,-1,1
205,0.28651,1.3025,-1,1
206,0.28779,1.2994,-1,1
207,0.28907,1.2957,-1,1
208,0.29035,1.293,-1,1
209,0.29164,1.292,-1,1
210,0.29294,1.292,-1,1
211,0.29422,1.2912,-1,1
212,0.2955,1.2886,-1,1
213,0.29676,1.2842,-1,1
214,0.29803,1.2808,-1,1
215,0.2993,1.279,-1,1
216,0.30058,1.2786,-1,1
217,0.30185,1.2782,-1,1
218,0.30312,1.2764,-1,1
219,0.30437,1.273,-1,1
220,0.30563,1.269,-1,1
221,0.30688,1.2661,-1,1
222,0.30814,1.2646,-1,1
223,0.3094,1.2642,-1,1
224,0.31065,1.2628,-1,1
225,0.3119,1.2602,-1,1
226,0.31314,1.2567,-1,1
227,0.31563,1.2534,-1,1
228,0.31687,1.2513,-1,1
229,0.31811,1.2495,-1,1
230,0.31934,1.2477,-1,1
231,0.32057,1.245,-1,1
232,0.3218,1.2418,-1,1
233,0.32303,1.2386,-1,1
234,0.32425,1.2359,-1,1
235,0.32548,1.2334,-1,1
236,0.3267,1.2312,-1,1
237,0.32791,1.2283,-1,1
238,0.32912,1.2251,-1,1
239,0.33033,1.2224,-1,1
240,0.33154,1.2199,-1,1
241,0.33275,1.2179,-1,1
242,0.33395,1.2154,-1,1
243,0.33515,1.2124,-1,1
244,0.33635,1.2094,-1,1
245,0.33754,1.2067,-1,1
246,0.33873,1.2039,-1,1
247,0.33992,1.2016,-1,1
248,0.34111,1.1989,-1,1
249,0.34229,1.1954,-1,1
250,0.34347,1.1923,-1,1
251,0.34464,1.1892,-1,1
252,0.34582,1.1867,-1,1
253,0.34699,1.184,-1,1
254,0.34816,1.1808,-1,1
255,0.34932,1.1775,-1,1
256,0.35048,1.1743,-1,1
257,0.35164,1.1712,-1,1
258,0.35279,1.1685,-1,1
259,0.35395,1.166,-1,1
260,0.35509,1.163,-1,1
261,0.35624,1.1594,-1,1
262,0.35738,1.1558,-1,1
263,0.35852,1.153,-1,1
264,0.35966,1.1506,-1,1
265,0.3608,1.1481,-1,1
266,0.36193,1.145,-1,1
267,0.36305,1.1417,-1,1
268,0.36418,1.1383,-1,1
269,0.3653,1.1354,-1,1
270,0.36642,1.1328,-1,1
271,0.36754,1.1306,-1,1
272,0.36866,1.128,-1,1
273,0.36977,1.1248,-1,1
274,0.37087,1.1212,-1,1
275,0.37198,1.118,-1,1
276,0.37308,1.1156,-1,1
277,0.37419,1.1133,-1,1
278,0.37528,1.1106,-1,1
279,0.37637,1.1074,-1,1
280,0.37746,1.104,-1,1
281,0.37855,1.1007,-1,1
282,0.37963,1.0977,-1,1
283,0.38072,1.0952,-1,1
284,0.3818,1.0929,-1,1
285,0.38288,1.0901,-1,1
286,0.38395,1.0867,-1,1
287,0.38502,1.0831,-1,1
288,0.38608,1.0798,-1,1
289,0.38715,1.0771,-1,1
290,0.38821,1.0748,-1,1
291,0.38927,1.0721,-1,1
292,0.39033,1.0693,-1,1
293,0.39138,1.0659,-1,1
294,0.39243,1.0625,-1,1
295,0.39347,1.0593,-1,1
296,0.39451,1.0564,-1,1
297,0.39556,1.0539,-1,1
298,0.3966,1.0517,-1,1
299,0.39763,1.0488,-1,1
300,0.39867,1.0456,-1,1
301,0.39969,1.0424,-1,1
302,0.40072,1.0392,-1,1
303,0.40174,1.0363,-1,1
304,0.40276,1.0335,-1,1
305,0.40378,1.0308,-1,1
306,0.40479,1.0281,-1,1
307,0.40581,1.0254,-1,1
308,0.40682,1.0225,-1,1
309,0.40783,1.0195,-1,1
310,0.40883,1.0164,-1,1
311,0.40983,1.0134,-1,1
312,0.41082,1.0105,-1,1
313,0.41182,1.008,-1,1
314,0.41282,1.0055,-1,1
315,0.41381,1.0029,-1,1
316,0.4148,1.0003,-1,1
317,0.41578,0.9973,-1,1
318,0.41676,0.9941,-1,1
319,0.41774,0.9912,-1,1
320,0.41872,0.9887,-1,1
321,0.41969,0.9865,-1,1
322,0.42067,0.9844,-1,1
323,0.42164,0.982,-1,1
324,0.42261,0.9794,-1,1
325,0.42357,0.9766,-1,1
326,0.42453,0.9738,-1,1
327,0.42549,0.9712,-1,1
328,0.42645,0.9688,-1,1
329,0.4274,0.9664,-1,1
330,0.42836,0.9641,-1,1
331,0.42931,0.9616,-1,1
332,0.43026,0.959,-1,1
333,0.4312,0.9561,-1,1
334,0.43214,0.9531,-1,1
335,0.43308,0.9505,-1,1
336,0.43401,0.9479,-1,1
337,0.43495,0.9455,-1,1
338,0.43588,0.9432,-1,1
339,0.43681,0.941,-1,1
340,0.43774,0.9386,-1,1
341,0.43867,0.9361,-1,1
342,0.43959,0.9336,-1,1
343,0.44051,0.9313,-1,1
344,0.44143,0.929,-1,1
345,0.44234,0.9266,-1,1
346,0.44326,0.9246,-1,1
347,0.44417,0.9224,-1,1
348,0.44508,0.9202,-1,1
349,0.44599,0.9181,-1,1
350,0.4469,0.916,-1,1
351,0.44781,0.9139,-1,1
352,0.44871,0.9117,-1,1
353,0.44961,0.9094,-1,1
354,0.4505,0.9072,-1,1
355,0.45139,0.9051,-1,1
356,0.45229,0.9031,-1,1
357,0.45319,0.9015,-1,1
358,0.45408,0.8998,-1,1
359,0.45497,0.8977,-1,1
360,0.45585,0.8953,-1,1
361,0.45674,0.893,-1,1
362,0.45762,0.8908,-1,1
363,0.4585,0.8889,-1,1
364,0.45937,0.8874,-1,1
365,0.46026,0.8862,-1,1
366,0.46113,0.8846,-1,1
367,0.46201,0.8825,-1,1
368,0.46288,0.8803,-1,1
369,0.46375,0.8782,-1,1
370,0.46462,0.8764,-1,1
371,0.46548,0.8747,-1,1
372,0.46635,0.8732,-1,1
373,0.46721,0.8718,-1,1
374,0.46808,0.8705,-1,1
375,0.46894,0.8686,-1,1
376,0.4698,0.8667,-1,1
377,0.47066,0.8649,-1,1
378,0.47152,0.8633,-1,1
379,0.47237,0.862,-1,1
380,0.47322,0.8606,-1,1
381,0.47408,0.8592,-1,1
382,0.47492,0.8576,-1,1
383,0.47578,0.8562,-1,1
384,0.47663,0.8548,-1,1
385,0.47748,0.8536,-1,1
386,0.47832,0.8523,-1,1
387,0.47917,0.8507,-1,1
388,0.48001,0.8491,-1,1
389,0.48085,0.8477,-1,1
390,0.48169,0.8465,-1,1
391,0.48253,0.8453,-1,1
392,0.48337,0.8443,-1,1
393,0.4842,0.8429,-1,1
394,0.48504,0.8415,-1,1
395,0.48588,0.84,-1,1
396,0.48671,0.8387,-1,1
397,0.48754,0.8375,-1,1
398,0.48837,0.8363,-1,1
399,0.4892,0.8348,-1,1
400,0.49002,0.8334,-1,1
401,0.49085,0.8323,-1,1
402,0.49168,0.8312,-1,1
403,0.4925,0.83,-1,1
404,0.49333,0.8286,-1,1
405,0.49415,0.8274,-1,1
406,0.49497,0.8262,-1,1
407,0.49579,0.825,-1,1
408,0.49661,0.8239,-1,1
409,0.49742,0.8228,-1,1
410,0.49824,0.8217,-1,1
411,0.49905,0.8205,-1,1
412,0.49987,0.8193,-1,1
413,0.50068,0.8182,-1,1
414,0.5015,0.8171,-1,1
415,0.50231,0.8158,-1,1
416,0.50312,0.8145,-1,1
417,0.50393,0.8135,-1,1
418,0.50473,0.8124,-1,1
419,0.50554,0.8117,-1,1
420,0.50634,0.8106,-1,1
421,0.50715,0.8096,-1,1
422,0.50795,0.8084,-1,1
423,0.50876,0.8075,-1,1
424,0.50956,0.8065,-1,1
425,0.51037,0.8058,-1,1
426,0.51116,0.8046,-1,1
427,0.51196,0.8033,-1,1
428,0.51275,0.8022,-1,1
429,0.51355,0.8011,-1,1
430,0.51435,0.8002,-1,1
431,0.51514,0.7992,-1,1
432,0.51594,0.7983,-1,1
433,0.51673,0.797,-1,1
434,0.51752,0.7959,-1,1
435,0.51832,0.7948,-1,1
436,0.51911,0.7942,-1,1
437,0.5199,0.7935,-1,1
438,0.52068,0.7924,-1,1
439,0.52147,0.7917,-1,1
440,0.52305,0.7911,-1,1
441,0.52384,0.7903,-1,1
442,0.52384,0.7894,-1,1
443,0.52462,0.7888,-1,1
444,0.52541,0.7879,-1,1
445,0.52619,0.787,-1,1
446,0.52697,0.7864,-1,1
447,0.52776,0.786,-1,1
448,0.52854,0.7858,-1,1
449,0.52932,0.7851,-1,1
450,0.53011,0.7843,-1,1
451,0.53089,0.7838,-1,1
452,0.53246,0.7837,-1,1
453,0.53324,0.7833,-1,1
454,0.53402,0.783,-1,1
455,0.5348,0.7825,-1,1
456,0.53557,0.7817,-1,1
457,0.53635,0.7813,-1,1
458,0.53714,0.7812,-1,1
459,0.53792,0.781,-1,1
460,0.5387,0.7809,-1,1
461,0.53948,0.7804,-1,1
462,0.54026,0.78,-1,1
463,0.54104,0.7799,-1,1
464,0.54182,0.7801,-1,1
465,0.5426,0.7802,-1,1
466,0.54338,0.7803,-1,1
467,0.54415,0.7799,-1,1
468,0.54493,0.7796,-1,1
469,0.54571,0.7796,-1,1
470,0.54728,0.7798,-1,1
471,0.54806,0.7802,-1,1
472,0.54884,0.7799,-1,1
473,0.54962,0.7797,-1,1
474,0.54962,0.7796,-1,1
475,0.5504,0.7798,-1,1
476,0.55118,0.7803,-1,1
477,0.55196,0.781,-1,1
478,0.55274,0.781,-1,1
479,0.55352,0.781,-1,1
480,0.55509,0.7812,-1,1
481,0.55587,0.7814,-1,1
482,0.55666,0.782,-1,1
483,0.55744,0.7821,-1,1
484,0.55744,0.782,-1,1
485,0.55822,0.7824,-1,1
486,0.559,0.7826,-1,1
487,0.55979,0.783,-1,1
488,0.56057,0.7836,-1,1
489,0.56136,0.7839,-1,1
490,0.56214,0.784,-1,1
491,0.56293,0.7844,-1,1
492,0.56451,0.7849,-1,1
493,0.56529,0.7856,-1,1
494,0.56608,0.7863,-1,1
495,0.56687,0.7867,-1,1
496,0.56766,0.7873,-1,1
497,0.56845,0.7877,-1,1
498,0.56924,0.7884,-1,1
499,0.57004,0.7894,-1,1
500,0.57083,0.7902,-1,1
501,0.57163,0.7908,-1,1
502,0.57242,0.7912,-1,1
503,0.57321,0.792,-1,1
504,0.57401,0.7929,-1,1
505,0.57481,0.7938,-1,1
506,0.57561,0.7947,-1,1
507,0.5764,0.7954,-1,1
508,0.5772,0.7961,-1,1
509,0.578,0.7968,-1,1
510,0.57881,0.7978,-1,1
511,0.57961,0.7988,-1,1
512,0.58042,0.7999,-1,1
513,0.58122,0.8006,-1,1
514,0.58202,0.8013,-1,1
515,0.58283,0.8021,-1,1
516,0.58364,0.803,-1,1
517,0.58445,0.8043,-1,1
518,0.58526,0.8056,-1,1
519,0.58607,0.8067,-1,1
520,0.58688,0.8074,-1,1
521,0.5877,0.8083,-1,1
522,0.58851,0.8092,-1,1
523,0.58932,0.8105,-1,1
524,0.59014,0.8119,-1,1
525,0.59096,0.8131,-1,1
526,0.59178,0.8141,-1,1
527,0.5926,0.8152,-1,1
528,0.59343,0.8166,-1,1
529,0.59425,0.8181,-1,1
530,0.59508,0.8196,-1,1
531,0.5959,0.8207,-1,1
532,0.59673,0.8218,-1,1
533,0.59755,0.8231,-1,1
534,0.59839,0.8247,-1,1
535,0.59922,0.8263,-1,1
536,0.60006,0.8279,-1,1
537,0.60089,0.8293,-1,1
538,0.60173,0.8306,-1,1
539,0.60257,0.8319,-1,1
540,0.60341,0.8333,-1,1
541,0.60425,0.8351,-1,1
542,0.60509,0.8368,-1,1
543,0.60594,0.8383,-1,1
544,0.60678,0.8395,-1,1
545,0.60763,0.8411,-1,1
546,0.60848,0.8428,-1,1
547,0.60934,0.8448,-1,1
548,0.61019,0.8463,-1,1
549,0.61105,0.8476,-1,1
550,0.6119,0.8489,-1,1
551,0.61276,0.8505,-1,1
552,0.61362,0.8527,-1,1
553,0.61449,0.8548,-1,1
554,0.61535,0.8566,-1,1
555,0.61621,0.8581,-1,1
556,0.61708,0.8598,-1,1
557,0.61796,0.8616,-1,1
558,0.61883,0.8636,-1,1
559,0.6197,0.8657,-1,1
560,0.62057,0.8675,-1,1
561,0.62145,0.8693,-1,1
562,0.62233,0.871,-1,1
563,0.62321,0.873,-1,1
564,0.6241,0.8752,-1,1
565,0.62499,0.8772,-1,1
566,0.62587,0.8792,-1,1
567,0.62677,0.881,-1,1
568,0.62766,0.8828,-1,1
569,0.62855,0.8848,-1,1
570,0.62944,0.887,-1,1
571,0.63034,0.8891,-1,1
572,0.63124,0.8912,-1,1
573,0.63215,0.8933,-1,1
574,0.63305,0.8955,-1,1
575,0.63396,0.8979,-1,1
576,0.63487,0.9,-1,1
577,0.63578,0.9017,-1,1
578,0.63669,0.9036,-1,1
579,0.63761,0.9057,-1,1
580,0.63853,0.9082,-1,1
581,0.63945,0.9106,-1,1
582,0.64037,0.9129,-1,1
583,0.6413,0.915,-1,1
584,0.64223,0.9172,-1,1
585,0.64316,0.9192,-1,1
586,0.64409,0.9212,-1,1
587,0.64502,0.9234,-1,1
588,0.64595,0.9259,-1,1
589,0.64689,0.9283,-1,1
590,0.64783,0.9307,-1,1
591,0.64878,0.9329,-1,1
592,0.64972,0.9349,-1,1
593,0.65067,0.9371,-1,1
594,0.65162,0.9391,-1,1
595,0.65257,0.9412,-1,1
596,0.65352,0.9431,-1,1
597,0.65447,0.9455,-1,1
598,0.65543,0.9476,-1,1
599,0.65639,0.9499,-1,1
600,0.65735,0.9518,-1,1
601,0.65831,0.9538,-1,1
602,0.65928,0.9557,-1,1
603,0.66024,0.9576,-1,1
604,0.66121,0.9595,-1,1
605,0.66218,0.9614,-1,1
606,0.66315,0.9634,-1,1
607,0.66412,0.9653,-1,1
608,0.6651,0.9673,-1,1
609,0.66608,0.9692,-1,1
610,0.66706,0.9709,-1,1
611,0.66804,0.9726,-1,1
612,0.66902,0.9743,-1,1
613,0.67001,0.976,-1,1
614,0.67099,0.9777,-1,1
615,0.67198,0.9796,-1,1
616,0.67297,0.9818,-1,1
617,0.67396,0.9837,-1,1
618,0.67496,0.9855,-1,1
619,0.67595,0.9868,-1,1
620,0.67694,0.9883,-1,1
621,0.67794,0.9898,-1,1
622,0.67894,0.9916,-1,1
623,0.67994,0.9934,-1,1
624,0.68094,0.9953,-1,1
625,0.68195,0.9968,-1,1
626,0.68295,0.9983,-1,1
627,0.68396,0.9997,-1,1
628,0.68497,1.0009,-1,1
629,0.68598,1.0023,-1,1
630,0.68698,1.0037,-1,1
631,0.68799,1.0054,-1,1
632,0.68901,1.0074,-1,1
633,0.69003,1.0089,-1,1
634,0.69105,1.0102,-1,1
635,0.69206,1.0116,-1,1
636,0.69308,1.0127,-1,1
637,0.6941,1.0138,-1,1
638,0.69512,1.0154,-1,1
639,0.69614,1.0169,-1,1
640,0.69717,1.0187,-1,1
641,0.6982,1.0204,-1,1
642,0.69923,1.0215,-1,1
643,0.70026,1.0227,-1,1
644,0.70128,1.0238,-1,1
645,0.70231,1.0251,-1,1
646,0.70335,1.0267,-1,1
647,0.70438,1.0282,-1,1
648,0.70541,1.0297,-1,1
649,0.70645,1.0314,-1,1
650,0.70853,1.0328,-1,1
651,0.70957,1.0337,-1,1
652,0.71061,1.0348,-1,1
653,0.71165,1.0361,-1,1
654,0.71269,1.0376,-1,1
655,0.71374,1.0391,-1,1
656,0.71478,1.0403,-1,1
657,0.71583,1.0417,-1,1
658,0.71688,1.0429,-1,1
659,0.71793,1.0437,-1,1
660,0.71898,1.0445,-1,1
661,0.72002,1.0457,-1,1
662,0.72107,1.0469,-1,1
663,0.72318,1.0479,-1,1
664,0.72423,1.0491,-1,1
665,0.72423,1.0498,-1,1
666,0.72529,1.0505,-1,1
667,0.72634,1.0513,-1,1
668,0.7274,1.0518,-1,1
669,0.72845,1.0524,-1,1
670,0.72951,1.0532,-1,1
671,0.73056,1.0538,-1,1
672,0.73162,1.0545,-1,1
673,0.73268,1.0551,-1,1
674,0.73479,1.0552,-1,1
675,0.73585,1.0557,-1,1
676,0.73691,1.0564,-1,1
677,0.73797,1.057,-1,1
678,0.73903,1.0576,-1,1
679,0.74009,1.0583,-1,1
680,0.74115,1.0587,-1,1
681,0.74221,1.0589,-1,1
682,0.74327,1.0587,-1,1
683,0.74433,1.0589,-1,1
684,0.74539,1.0595,-1,1
685,0.74751,1.0597,-1,1
686,0.74857,1.0598,-1,1
687,0.74963,1.0596,-1,1
688,0.74963,1.0594,-1,1
689,0.75069,1.0593,-1,1
690,0.75281,1.0595,-1,1
691,0.75387,1.0598,-1,1
692,0.75493,1.0602,-1,1
693,0.75599,1.0602,-1,1
694,0.75705,1.0597,-1,1
695,0.75811,1.0596,-1,1
696,0.75917,1.0595,-1,1
697,0.76023,1.0595,-1,1
698,0.76128,1.0595,-1,1
699,0.76234,1.0594,-1,1
700,0.7634,1.0589,-1,1
701,0.76446,1.0585,-1,1
702,0.76551,1.058,-1,1
703,0.76657,1.0575,-1,1
704,0.76762,1.0573,-1,1
705,0.76868,1.057,-1,1
706,0.76973,1.0564,-1,1
707,0.77078,1.0558,-1,1
708,0.77184,1.0552,-1,1
709,0.77289,1.0544,-1,1
710,0.77394,1.0539,-1,1
711,0.77499,1.0532,-1,1
712,0.77604,1.0524,-1,1
713,0.77708,1.0517,-1,1
714,0.77813,1.0509,-1,1
715,0.77918,1.0501,-1,1
716,0.78022,1.0492,-1,1
717,0.78127,1.0483,-1,1
718,0.78231,1.0472,-1,1
719,0.78335,1.0463,-1,1
720,0.78439,1.0452,-1,1
721,0.78543,1.0442,-1,1
722,0.78647,1.0434,-1,1
723,0.78751,1.0425,-1,1
724,0.78855,1.0416,-1,1
725,0.78958,1.0404,-1,1
726,0.79061,1.0392,-1,1
727,0.79164,1.0377,-1,1
728,0.79267,1.0366,-1,1
729,0.79371,1.0357,-1,1
730,0.79474,1.0348,-1,1
731,0.79577,1.0336,-1,1
732,0.79679,1.0321,-1,1
733,0.79781,1.0305,-1,1
734,0.79884,1.0288,-1,1
735,0.79985,1.0272,-1,1
736,0.80088,1.0263,-1,1
737,0.8019,1.0256,-1,1
738,0.80292,1.0245,-1,1
739,0.80394,1.0228,-1,1
740,0.80495,1.0209,-1,1
741,0.80596,1.0191,-1,1
742,0.80697,1.0178,-1,1
743,0.80798,1.0166,-1,1
744,0.80899,1.0155,-1,1
745,0.81,1.0144,-1,1
746,0.811,1.0128,-1,1
747,0.81201,1.0111,-1,1
748,0.81301,1.0094,-1,1
749,0.81401,1.0078,-1,1
750,0.81501,1.0064,-1,1
751,0.81601,1.0054,-1,1
752,0.81701,1.004,-1,1
753,0.81801,1.0026,-1,1
754,0.819,1.0009,-1,1
755,0.81999,0.9992,-1,1
756,0.82098,0.9978,-1,1
757,0.82197,0.996,-1,1
758,0.82296,0.9943,-1,1
759,0.82394,0.9929,-1,1
760,0.82493,0.9916,-1,1
761,0.82591,0.9901,-1,1
762,0.82689,0.9884,-1,1
763,0.82787,0.9867,-1,1
764,0.82885,0.985,-1,1
765,0.82983,0.9836,-1,1
766,0.8308,0.9819,-1,1
767,0.83178,0.9808,-1,1
768,0.83275,0.9794,-1,1
769,0.83372,0.9779,-1,1
770,0.83469,0.9763,-1,1
771,0.83566,0.9745,-1,1
772,0.83662,0.9727,-1,1
773,0.83758,0.971,-1,1
774,0.83855,0.9697,-1,1
775,0.83951,0.9684,-1,1
776,0.84047,0.9669,-1,1
777,0.84143,0.9651,-1,1
778,0.84238,0.9633,-1,1
779,0.84334,0.9617,-1,1
780,0.84429,0.9601,-1,1
781,0.84525,0.9588,-1,1
782,0.8462,0.9575,-1,1
783,0.84714,0.9559,-1,1
784,0.84809,0.9543,-1,1
785,0.84904,0.9525,-1,1
786,0.84999,0.951,-1,1
787,0.85093,0.9493,-1,1
788,0.85187,0.9481,-1,1
789,0.85281,0.9464,-1,1
790,0.85374,0.945,-1,1
791,0.85468,0.9434,-1,1
792,0.85562,0.9418,-1,1
793,0.85655,0.9405,-1,1
794,0.85748,0.939,-1,1
795,0.85841,0.9376,-1,1
796,0.85934,0.936,-1,1
797,0.86027,0.9347,-1,1
798,0.8612,0.933,-1,1
799,0.86212,0.9319,-1,1
800,0.86305,0.9304,-1,1
801,0.86397,0.929,-1,1
802,0.86489,0.9277,-1,1
803,0.86581,0.926,-1,1
804,0.86673,0.9247,-1,1
805,0.86765,0.9233,-1,1
806,0.86856,0.9219,-1,1
807,0.86948,0.9204,-1,1
808,0.87039,0.9191,-1,1
809,0.8713,0.9176,-1,1
810,0.87221,0.9164,-1,1
811,0.87312,0.9151,-1,1
812,0.87403,0.9136,-1,1
813,0.87493,0.9123,-1,1
814,0.87584,0.911,-1,1
815,0.87675,0.9099,-1,1
816,0.87765,0.9087,-1,1
817,0.87855,0.9075,-1,1
818,0.87945,0.9062,-1,1
819,0.88035,0.905,-1,1
820,0.88125,0.9035,-1,1
821,0.88304,0.9019,-1,1
822,0.88394,0.9006,-1,1
823,0.88483,0.8994,-1,1
824,0.88572,0.8981,-1,1
825,0.88662,0.8969,-1,1
826,0.88751,0.8957,-1,1
827,0.8884,0.8943,-1,1
828,0.88928,0.8928,-1,1
829,0.89016,0.8913,-1,1
830,0.89105,0.8904,-1,1
831,0.89194,0.8896,-1,1
832,0.89282,0.8885,-1,1
833,0.8937,0.8874,-1,1
834,0.89458,0.8865,-1,1
835,0.89547,0.8851,-1,1
836,0.89635,0.884,-1,1
837,0.89722,0.8829,-1,1
838,0.8981,0.8818,-1,1
839,0.89897,0.8808,-1,1
