cnt,pos,speed,Dir,Force,
1,0,1.1921,-1,1
2,0.0012002,1.1934,-1,1
3,0.00239992,1.1946,-1,1
4,0.00359011,1.1956,-1,1
5,0.00479031,1.1962,-1,1
6,0.00599003,1.1967,-1,1
7,0.00719023,1.1973,-1,1
8,0.00838995,1.198,-1,1
9,0.00959015,1.1985,-1,1
10,0.0107999,1.1995,-1,1
11,0.0120001,1.2004,-1,1
12,0.0132003,1.2007,-1,1
13,0.01441,1.201,-1,1
14,0.0156102,1.2014,-1,1
15,0.01682,1.202,-1,1
16,0.0180202,1.2031,-1,1
17,0.0192299,1.2041,-1,1
18,0.0204401,1.2048,-1,1
19,0.0216503,1.2056,-1,1
20,0.02285,1.2055,-1,1
21,0.0240602,1.2062,-1,1
22,0.02528,1.2073,-1,1
23,0.0264902,1.2084,-1,1
24,0.0276999,1.2093,-1,1
25,0.0289102,1.2099,-1,1
26,0.0301299,1.2104,-1,1
27,0.0313401,1.2109,-1,1
28,0.0325603,1.2115,-1,1
29,0.0337701,1.2124,-1,1
30,0.0349903,1.2137,-1,1
31,0.0362101,1.2145,-1,1
32,0.0374303,1.215,-1,1
33,0.03864,1.2155,-1,1
34,0.0398602,1.2159,-1,1
35,0.04108,1.2169,-1,1
36,0.0423002,1.2178,-1,1
37,0.04352,1.2187,-1,1
38,0.04597,1.2193,-1,1
39,0.04597,1.2191,-1,1
40,0.0483999,1.2192,-1,1
41,0.0496202,1.2196,-1,1
42,0.0508499,1.2207,-1,1
43,0.0520802,1.2218,-1,1
44,0.0533099,1.2227,-1,1
45,0.0545301,1.2226,-1,1
46,0.0557499,1.2224,-1,1
47,0.0569701,1.2228,-1,1
48,0.0582099,1.224,-1,1
49,0.0594401,1.2261,-1,1
50,0.0606699,1.2274,-1,1
51,0.0619001,1.2281,-1,1
52,0.0631299,1.2285,-1,1
53,0.0655999,1.2294,-1,1
54,0.0668502,1.2313,-1,1
55,0.06809,1.2335,-1,1
56,0.0693302,1.2352,-1,1
57,0.07056,1.236,-1,1
58,0.0718002,1.2367,-1,1
59,0.07305,1.2376,-1,1
60,0.0743003,1.2394,-1,1
61,0.0755501,1.2415,-1,1
62,0.0768003,1.2433,-1,1
63,0.0780401,1.2441,-1,1
64,0.0792899,1.2444,-1,1
65,0.0805402,1.2454,-1,1
66,0.0818,1.2477,-1,1
67,0.0830603,1.2503,-1,1
68,0.0843301,1.2525,-1,1
69,0.0855803,1.2539,-1,1
70,0.0868402,1.2549,-1,1
71,0.08811,1.2562,-1,1
72,0.0893803,1.2582,-1,1
73,0.0906501,1.2612,-1,1
74,0.0919299,1.2642,-1,1
75,0.0932102,1.2664,-1,1
76,0.09448,1.2677,-1,1
77,0.0957603,1.2692,-1,1
78,0.0970402,1.2714,-1,1
79,0.09833,1.2744,-1,1
80,0.0996203,1.2776,-1,1
81,0.10091,1.2806,-1,1
82,0.1022,1.2824,-1,1
83,0.10349,1.2837,-1,1
84,0.10479,1.2857,-1,1
85,0.10609,1.2887,-1,1
86,0.1074,1.2923,-1,1
87,0.10871,1.2957,-1,1
88,0.11002,1.2981,-1,1
89,0.11132,1.2995,-1,1
90,0.11263,1.3011,-1,1
91,0.11395,1.3035,-1,1
92,0.11527,1.3072,-1,1
93,0.1166,1.3109,-1,1
94,0.11792,1.3134,-1,1
95,0.11924,1.3147,-1,1
96,0.12056,1.3157,-1,1
97,0.12189,1.3176,-1,1
98,0.12323,1.3206,-1,1
99,0.12457,1.3242,-1,1
100,0.1259,1.327,-1,1
101,0.12723,1.3283,-1,1
102,0.12857,1.3291,-1,1
103,0.12991,1.3307,-1,1
104,0.13126,1.3335,-1,1
105,0.13261,1.3368,-1,1
106,0.13396,1.3395,-1,1
107,0.1353,1.3409,-1,1
108,0.13664,1.3417,-1,1
109,0.138,1.3432,-1,1
110,0.13936,1.346,-1,1
111,0.14073,1.3492,-1,1
112,0.14208,1.3517,-1,1
113,0.14344,1.3529,-1,1
114,0.14479,1.3535,-1,1
115,0.14616,1.355,-1,1
116,0.14753,1.3578,-1,1
117,0.14891,1.361,-1,1
118,0.15028,1.3633,-1,1
119,0.15164,1.3642,-1,1
120,0.15301,1.3645,-1,1
121,0.15438,1.366,-1,1
122,0.15577,1.3688,-1,1
123,0.15716,1.3721,-1,1
124,0.15854,1.3743,-1,1
125,0.15991,1.3749,-1,1
126,0.16128,1.3749,-1,1
127,0.16267,1.3762,-1,1
128,0.16407,1.3791,-1,1
129,0.16546,1.3824,-1,1
130,0.16685,1.3845,-1,1
131,0.16823,1.3849,-1,1
132,0.16962,1.3849,-1,1
133,0.17102,1.3861,-1,1
134,0.17243,1.3889,-1,1
135,0.17383,1.3919,-1,1
136,0.17522,1.3941,-1,1
137,0.17662,1.3945,-1,1
138,0.17801,1.3946,-1,1
139,0.17942,1.3957,-1,1
140,0.18083,1.3982,-1,1
141,0.18224,1.4007,-1,1
142,0.18364,1.4023,-1,1
143,0.18504,1.4026,-1,1
144,0.18645,1.4029,-1,1
145,0.18787,1.4043,-1,1
146,0.18928,1.4059,-1,1
147,0.19069,1.4076,-1,1
148,0.1921,1.4083,-1,1
149,0.19351,1.4087,-1,1
150,0.19493,1.4095,-1,1
151,0.19635,1.4109,-1,1
152,0.19777,1.4122,-1,1
153,0.19918,1.4129,-1,1
154,0.20059,1.4132,-1,1
155,0.20201,1.4134,-1,1
156,0.20343,1.4146,-1,1
157,0.20485,1.4161,-1,1
158,0.20627,1.4172,-1,1
159,0.20768,1.4171,-1,1
160,0.20909,1.4163,-1,1
161,0.21052,1.4167,-1,1
162,0.21194,1.4178,-1,1
163,0.21337,1.4191,-1,1
164,0.21478,1.4194,-1,1
165,0.2162,1.419,-1,1
166,0.21762,1.4185,-1,1
167,0.21904,1.4185,-1,1
168,0.22046,1.4194,-1,1
169,0.22188,1.4202,-1,1
170,0.2233,1.4204,-1,1
171,0.22471,1.4194,-1,1
172,0.22613,1.4189,-1,1
173,0.22756,1.419,-1,1
174,0.22897,1.4192,-1,1
175,0.23039,1.4191,-1,1
176,0.2318,1.4181,-1,1
177,0.23321,1.4174,-1,1
178,0.23463,1.4166,-1,1
179,0.23605,1.4165,-1,1
180,0.23746,1.416,-1,1
181,0.24027,1.4152,-1,1
182,0.24168,1.4143,-1,1
183,0.2431,1.4135,-1,1
184,0.24451,1.4125,-1,1
185,0.24591,1.4115,-1,1
186,0.24731,1.4104,-1,1
187,0.24871,1.4087,-1,1
188,0.25011,1.4075,-1,1
189,0.25152,1.4066,-1,1
190,0.25292,1.4058,-1,1
191,0.25432,1.4048,-1,1
192,0.25571,1.4031,-1,1
193,0.25711,1.4012,-1,1
194,0.25851,1.4001,-1,1
195,0.2599,1.3994,-1,1
196,0.2613,1.3989,-1,1
197,0.26269,1.3981,-1,1
198,0.26408,1.3967,-1,1
199,0.26686,1.3948,-1,1
200,0.26824,1.3931,-1,1
201,0.26963,1.3916,-1,1
202,0.27101,1.3905,-1,1
203,0.2724,1.3896,-1,1
204,0.27378,1.3886,-1,1
205,0.27517,1.3873,-1,1
206,0.27654,1.3855,-1,1
207,0.27791,1.3836,-1,1
208,0.27929,1.382,-1,1
209,0.28067,1.3811,-1,1
210,0.28205,1.3806,-1,1
211,0.28343,1.3799,-1,1
212,0.28479,1.3782,-1,1
213,0.28616,1.3758,-1,1
214,0.28752,1.3738,-1,1
215,0.28889,1.3727,-1,1
216,0.29027,1.3723,-1,1
217,0.29163,1.3715,-1,1
218,0.29299,1.3697,-1,1
219,0.29434,1.367,-1,1
220,0.2957,1.3646,-1,1
221,0.29706,1.3634,-1,1
222,0.29842,1.3631,-1,1
223,0.29978,1.3626,-1,1
224,0.30113,1.3608,-1,1
225,0.30247,1.3579,-1,1
226,0.30382,1.3552,-1,1
227,0.30517,1.3538,-1,1
228,0.30652,1.3536,-1,1
229,0.30788,1.3534,-1,1
230,0.30922,1.3521,-1,1
231,0.31055,1.3495,-1,1
232,0.31189,1.3467,-1,1
233,0.31323,1.3448,-1,1
234,0.31457,1.3439,-1,1
235,0.31591,1.3436,-1,1
236,0.31725,1.3429,-1,1
237,0.31858,1.3412,-1,1
238,0.31991,1.3387,-1,1
239,0.32124,1.3364,-1,1
240,0.32257,1.3347,-1,1
241,0.32389,1.3336,-1,1
242,0.32522,1.3326,-1,1
243,0.32655,1.3315,-1,1
244,0.32787,1.3302,-1,1
245,0.32919,1.328,-1,1
246,0.3305,1.3254,-1,1
247,0.33181,1.323,-1,1
248,0.33312,1.3213,-1,1
249,0.33444,1.32,-1,1
250,0.33576,1.319,-1,1
251,0.33707,1.3176,-1,1
252,0.33837,1.3154,-1,1
253,0.33967,1.3123,-1,1
254,0.34097,1.3094,-1,1
255,0.34227,1.3077,-1,1
256,0.34357,1.3068,-1,1
257,0.34487,1.3058,-1,1
258,0.34616,1.3039,-1,1
259,0.34745,1.301,-1,1
260,0.34873,1.2977,-1,1
261,0.35002,1.2949,-1,1
262,0.3513,1.2933,-1,1
263,0.35259,1.292,-1,1
264,0.35387,1.2902,-1,1
265,0.35514,1.2876,-1,1
266,0.35641,1.2842,-1,1
267,0.35768,1.2814,-1,1
268,0.35895,1.279,-1,1
269,0.36022,1.2773,-1,1
270,0.36149,1.2754,-1,1
271,0.36275,1.273,-1,1
272,0.36401,1.2701,-1,1
273,0.36526,1.2675,-1,1
274,0.36652,1.2654,-1,1
275,0.36777,1.2633,-1,1
276,0.36903,1.2612,-1,1
277,0.37028,1.2587,-1,1
278,0.37152,1.2562,-1,1
279,0.37277,1.2538,-1,1
280,0.37401,1.2519,-1,1
281,0.37525,1.2501,-1,1
282,0.37649,1.2482,-1,1
283,0.37773,1.2464,-1,1
284,0.37897,1.2446,-1,1
285,0.38021,1.2428,-1,1
286,0.38144,1.2412,-1,1
287,0.38391,1.2398,-1,1
288,0.38514,1.2383,-1,1
289,0.38514,1.2369,-1,1
290,0.38637,1.2355,-1,1
291,0.3876,1.2341,-1,1
292,0.38882,1.2328,-1,1
293,0.39005,1.2311,-1,1
294,0.39127,1.2294,-1,1
295,0.39372,1.2283,-1,1
296,0.39494,1.2273,-1,1
297,0.39616,1.2259,-1,1
298,0.39738,1.2248,-1,1
299,0.3986,1.2233,-1,1
300,0.39981,1.2217,-1,1
301,0.40103,1.2206,-1,1
302,0.40224,1.2193,-1,1
303,0.40346,1.2185,-1,1
304,0.40467,1.2174,-1,1
305,0.40588,1.2159,-1,1
306,0.40709,1.2145,-1,1
307,0.40829,1.2132,-1,1
308,0.4095,1.2119,-1,1
309,0.41071,1.2112,-1,1
310,0.41192,1.2105,-1,1
311,0.41312,1.2093,-1,1
312,0.41432,1.2079,-1,1
313,0.41552,1.2059,-1,1
314,0.41671,1.2043,-1,1
315,0.41791,1.2031,-1,1
316,0.41911,1.2024,-1,1
317,0.42031,1.2017,-1,1
318,0.4215,1.2006,-1,1
319,0.42269,1.1985,-1,1
320,0.42388,1.1962,-1,1
321,0.42506,1.1944,-1,1
322,0.42625,1.1933,-1,1
323,0.42745,1.1931,-1,1
324,0.42864,1.1926,-1,1
325,0.42982,1.191,-1,1
326,0.431,1.1884,-1,1
327,0.43335,1.1864,-1,1
328,0.43453,1.185,-1,1
329,0.43571,1.1845,-1,1
330,0.43689,1.1837,-1,1
331,0.43806,1.1821,-1,1
332,0.43922,1.1796,-1,1
333,0.44039,1.1766,-1,1
334,0.44156,1.1743,-1,1
335,0.44273,1.1733,-1,1
336,0.4439,1.1728,-1,1
337,0.44506,1.1714,-1,1
338,0.44622,1.1691,-1,1
339,0.44737,1.166,-1,1
340,0.44853,1.1636,-1,1
341,0.44968,1.1619,-1,1
342,0.45084,1.1611,-1,1
343,0.45199,1.1604,-1,1
344,0.45314,1.1589,-1,1
345,0.45429,1.1563,-1,1
346,0.45543,1.1534,-1,1
347,0.45657,1.1505,-1,1
348,0.45771,1.1486,-1,1
349,0.45885,1.1475,-1,1
350,0.45999,1.1461,-1,1
351,0.46112,1.1444,-1,1
352,0.46226,1.1419,-1,1
353,0.46338,1.1389,-1,1
354,0.4645,1.1359,-1,1
355,0.46563,1.1337,-1,1
356,0.46675,1.132,-1,1
357,0.46787,1.1306,-1,1
358,0.46899,1.1286,-1,1
359,0.47011,1.126,-1,1
360,0.47122,1.1231,-1,1
361,0.47233,1.1201,-1,1
362,0.47343,1.1176,-1,1
363,0.47454,1.1155,-1,1
364,0.47564,1.1137,-1,1
365,0.47675,1.1116,-1,1
366,0.47785,1.1092,-1,1
367,0.47894,1.1063,-1,1
368,0.48003,1.1033,-1,1
369,0.48112,1.1008,-1,1
370,0.48221,1.0987,-1,1
371,0.48329,1.0968,-1,1
372,0.48438,1.0942,-1,1
373,0.48546,1.0917,-1,1
374,0.48654,1.0889,-1,1
375,0.48761,1.086,-1,1
376,0.48868,1.0831,-1,1
377,0.48975,1.0809,-1,1
378,0.49189,1.0789,-1,1
379,0.49295,1.0762,-1,1
380,0.49401,1.0731,-1,1
381,0.49507,1.0699,-1,1
382,0.49612,1.0671,-1,1
383,0.49717,1.0644,-1,1
384,0.49822,1.0615,-1,1
385,0.49927,1.0589,-1,1
386,0.50032,1.056,-1,1
387,0.50136,1.0531,-1,1
388,0.50343,1.0495,-1,1
389,0.50446,1.0464,-1,1
390,0.50549,1.0438,-1,1
391,0.50652,1.0413,-1,1
392,0.50755,1.039,-1,1
393,0.50858,1.0361,-1,1
394,0.5096,1.0333,-1,1
395,0.51061,1.0301,-1,1
396,0.51163,1.0272,-1,1
397,0.51264,1.0243,-1,1
398,0.51365,1.0222,-1,1
399,0.51466,1.02,-1,1
400,0.51567,1.0176,-1,1
401,0.51667,1.0147,-1,1
402,0.51767,1.0114,-1,1
403,0.51866,1.0084,-1,1
404,0.51965,1.0056,-1,1
405,0.52065,1.0034,-1,1
406,0.52164,1.0012,-1,1
407,0.52263,0.9988,-1,1
408,0.52361,0.9962,-1,1
409,0.52459,0.9931,-1,1
410,0.52557,0.9898,-1,1
411,0.52654,0.9867,-1,1
412,0.52751,0.9844,-1,1
413,0.52848,0.9823,-1,1
414,0.52946,0.9799,-1,1
415,0.53043,0.9767,-1,1
416,0.53139,0.9738,-1,1
417,0.53234,0.9704,-1,1
418,0.5333,0.9673,-1,1
419,0.53425,0.9648,-1,1
420,0.53521,0.9625,-1,1
421,0.53711,0.9605,-1,1
422,0.53806,0.9578,-1,1
423,0.539,0.9547,-1,1
424,0.53994,0.9517,-1,1
425,0.54087,0.9488,-1,1
426,0.5418,0.9459,-1,1
427,0.54274,0.9437,-1,1
428,0.54367,0.9416,-1,1
429,0.5446,0.9392,-1,1
430,0.54552,0.9363,-1,1
431,0.54645,0.9334,-1,1
432,0.54737,0.9308,-1,1
433,0.54828,0.9281,-1,1
434,0.54919,0.9255,-1,1
435,0.5501,0.9233,-1,1
436,0.55101,0.9208,-1,1
437,0.55192,0.9183,-1,1
438,0.55283,0.9155,-1,1
439,0.55373,0.9126,-1,1
440,0.55462,0.9099,-1,1
441,0.55552,0.9071,-1,1
442,0.55641,0.9043,-1,1
443,0.55819,0.9014,-1,1
444,0.55907,0.8985,-1,1
445,0.55995,0.8956,-1,1
446,0.56083,0.8928,-1,1
447,0.56171,0.8898,-1,1
448,0.56258,0.8864,-1,1
449,0.56345,0.8831,-1,1
450,0.56432,0.88,-1,1
451,0.56518,0.8771,-1,1
452,0.56605,0.8744,-1,1
453,0.56691,0.8716,-1,1
454,0.56862,0.8686,-1,1
455,0.56947,0.8653,-1,1
456,0.57031,0.8621,-1,1
457,0.57116,0.8589,-1,1
458,0.572,0.856,-1,1
459,0.57284,0.8532,-1,1
460,0.57368,0.8503,-1,1
461,0.57451,0.8472,-1,1
462,0.57534,0.8439,-1,1
463,0.57617,0.8411,-1,1
464,0.577,0.8384,-1,1
465,0.57782,0.8357,-1,1
466,0.57864,0.8327,-1,1
467,0.57946,0.8299,-1,1
468,0.58028,0.8273,-1,1
469,0.58109,0.8248,-1,1
470,0.5819,0.8222,-1,1
471,0.58271,0.8193,-1,1
472,0.58351,0.8164,-1,1
473,0.58431,0.8137,-1,1
474,0.58511,0.8112,-1,1
475,0.58591,0.8087,-1,1
476,0.5867,0.8062,-1,1
477,0.58749,0.8033,-1,1
478,0.58828,0.8005,-1,1
479,0.58907,0.7979,-1,1
480,0.58986,0.7955,-1,1
481,0.59064,0.7935,-1,1
482,0.59142,0.7912,-1,1
483,0.5922,0.7885,-1,1
484,0.59297,0.7857,-1,1
485,0.59375,0.7833,-1,1
486,0.59452,0.7811,-1,1
487,0.59529,0.7792,-1,1
488,0.59605,0.7769,-1,1
489,0.59681,0.7742,-1,1
490,0.59758,0.7718,-1,1
491,0.59834,0.7696,-1,1
492,0.5991,0.7677,-1,1
493,0.59986,0.766,-1,1
494,0.60061,0.7639,-1,1
495,0.60136,0.7614,-1,1
496,0.60211,0.759,-1,1
497,0.60286,0.7569,-1,1
498,0.6036,0.7552,-1,1
499,0.60435,0.7536,-1,1
500,0.6051,0.7519,-1,1
501,0.60584,0.7496,-1,1
502,0.60657,0.7473,-1,1
503,0.60731,0.7453,-1,1
504,0.60805,0.7438,-1,1
505,0.60878,0.7424,-1,1
506,0.60952,0.7411,-1,1
507,0.61025,0.7391,-1,1
508,0.61098,0.737,-1,1
509,0.6117,0.7352,-1,1
510,0.61243,0.7336,-1,1
511,0.61316,0.7326,-1,1
512,0.61389,0.7317,-1,1
513,0.61461,0.7302,-1,1
514,0.61534,0.7287,-1,1
515,0.61606,0.7272,-1,1
516,0.61677,0.7257,-1,1
517,0.6175,0.7249,-1,1
518,0.61822,0.7242,-1,1
519,0.61894,0.7233,-1,1
520,0.61965,0.722,-1,1
521,0.62037,0.7203,-1,1
522,0.62108,0.719,-1,1
523,0.6218,0.7185,-1,1
524,0.62252,0.7184,-1,1
525,0.62324,0.7182,-1,1
526,0.62395,0.7174,-1,1
527,0.62466,0.7163,-1,1
528,0.62537,0.715,-1,1
529,0.62608,0.7145,-1,1
530,0.6268,0.7145,-1,1
531,0.62751,0.7148,-1,1
532,0.62822,0.7143,-1,1
533,0.62893,0.7133,-1,1
534,0.62964,0.7124,-1,1
535,0.63036,0.7121,-1,1
536,0.63108,0.7126,-1,1
537,0.63179,0.713,-1,1
538,0.6325,0.7132,-1,1
539,0.63321,0.7126,-1,1
540,0.63392,0.7118,-1,1
541,0.63463,0.7116,-1,1
542,0.63534,0.7119,-1,1
543,0.63606,0.7124,-1,1
544,0.63677,0.7126,-1,1
545,0.63748,0.7126,-1,1
546,0.6382,0.7126,-1,1
547,0.63892,0.7128,-1,1
548,0.63964,0.7135,-1,1
549,0.64035,0.7142,-1,1
550,0.64106,0.7148,-1,1
551,0.64178,0.7151,-1,1
552,0.6425,0.7155,-1,1
553,0.64322,0.7162,-1,1
554,0.64394,0.717,-1,1
555,0.64467,0.7178,-1,1
556,0.64539,0.7188,-1,1
557,0.64612,0.72,-1,1
558,0.64685,0.7212,-1,1
559,0.64758,0.7226,-1,1
560,0.6483,0.7238,-1,1
561,0.64903,0.725,-1,1
562,0.64976,0.7262,-1,1
563,0.6505,0.7275,-1,1
564,0.65123,0.7289,-1,1
565,0.65197,0.7303,-1,1
566,0.65271,0.7314,-1,1
567,0.65345,0.7326,-1,1
568,0.65419,0.7341,-1,1
569,0.65494,0.7359,-1,1
570,0.65568,0.738,-1,1
571,0.65643,0.7397,-1,1
572,0.65717,0.7412,-1,1
573,0.65792,0.7425,-1,1
574,0.65867,0.7441,-1,1
575,0.65943,0.7461,-1,1
576,0.66019,0.7482,-1,1
577,0.66094,0.7499,-1,1
578,0.6617,0.7514,-1,1
579,0.66246,0.7527,-1,1
580,0.66323,0.7547,-1,1
581,0.664,0.7568,-1,1
582,0.66553,0.7592,-1,1
583,0.6663,0.7613,-1,1
584,0.66707,0.7631,-1,1
585,0.66784,0.7649,-1,1
586,0.66862,0.7669,-1,1
587,0.6694,0.7693,-1,1
588,0.67018,0.7714,-1,1
589,0.67096,0.7735,-1,1
590,0.67175,0.775,-1,1
591,0.67253,0.7769,-1,1
592,0.67332,0.779,-1,1
593,0.67411,0.7811,-1,1
594,0.6749,0.783,-1,1
595,0.67569,0.7848,-1,1
596,0.67649,0.7865,-1,1
597,0.67729,0.7882,-1,1
598,0.67809,0.7903,-1,1
599,0.67889,0.7925,-1,1
600,0.67969,0.7946,-1,1
601,0.6805,0.7965,-1,1
602,0.68131,0.7982,-1,1
603,0.68211,0.8003,-1,1
604,0.68292,0.8027,-1,1
605,0.68374,0.8048,-1,1
606,0.68455,0.8068,-1,1
607,0.68537,0.8087,-1,1
608,0.68619,0.8104,-1,1
609,0.68701,0.8121,-1,1
610,0.68783,0.8142,-1,1
611,0.68866,0.8164,-1,1
612,0.68948,0.8184,-1,1
613,0.69114,0.8201,-1,1
614,0.69197,0.822,-1,1
615,0.69197,0.8244,-1,1
616,0.69281,0.8266,-1,1
617,0.69365,0.8287,-1,1
618,0.69448,0.8308,-1,1
619,0.69532,0.8326,-1,1
620,0.69617,0.8345,-1,1
621,0.69701,0.8366,-1,1
622,0.69786,0.8388,-1,1
623,0.69871,0.8408,-1,1
624,0.70041,0.8427,-1,1
625,0.70127,0.8446,-1,1
626,0.70127,0.8469,-1,1
627,0.70213,0.8491,-1,1
628,0.70299,0.8515,-1,1
629,0.70385,0.854,-1,1
630,0.70472,0.8561,-1,1
631,0.70558,0.8577,-1,1
632,0.70645,0.8598,-1,1
633,0.70732,0.8625,-1,1
634,0.70907,0.8651,-1,1
635,0.70995,0.8672,-1,1
636,0.71083,0.8692,-1,1
637,0.71083,0.8714,-1,1
638,0.71171,0.8733,-1,1
639,0.7126,0.8757,-1,1
640,0.71348,0.8782,-1,1
641,0.71437,0.8808,-1,1
642,0.71526,0.8831,-1,1
643,0.71706,0.8854,-1,1
644,0.71796,0.8878,-1,1
645,0.71886,0.8903,-1,1
646,0.71976,0.8926,-1,1
647,0.72067,0.8951,-1,1
648,0.72158,0.898,-1,1
649,0.72249,0.9007,-1,1
650,0.72341,0.9032,-1,1
651,0.72432,0.9056,-1,1
652,0.72524,0.908,-1,1
653,0.72616,0.9104,-1,1
654,0.72709,0.9129,-1,1
655,0.72802,0.9156,-1,1
656,0.72895,0.9183,-1,1
657,0.72988,0.9209,-1,1
658,0.73081,0.9231,-1,1
659,0.73175,0.9255,-1,1
660,0.73269,0.9282,-1,1
661,0.73363,0.9312,-1,1
662,0.73458,0.9342,-1,1
663,0.73553,0.9368,-1,1
664,0.73648,0.9396,-1,1
665,0.73744,0.9423,-1,1
666,0.7384,0.9451,-1,1
667,0.73935,0.9477,-1,1
668,0.74032,0.9507,-1,1
669,0.74128,0.9535,-1,1
670,0.74225,0.9563,-1,1
671,0.74322,0.9591,-1,1
672,0.7442,0.9619,-1,1
673,0.74518,0.965,-1,1
674,0.74616,0.9679,-1,1
675,0.74714,0.9706,-1,1
676,0.74813,0.9733,-1,1
677,0.74911,0.9762,-1,1
678,0.75011,0.9792,-1,1
679,0.7511,0.9823,-1,1
680,0.7521,0.9853,-1,1
681,0.7531,0.9881,-1,1
682,0.75411,0.9909,-1,1
683,0.75511,0.9938,-1,1
684,0.75613,0.9967,-1,1
685,0.75714,0.9995,-1,1
686,0.75815,1.0025,-1,1
687,0.75917,1.0058,-1,1
688,0.7602,1.0089,-1,1
689,0.76122,1.0119,-1,1
690,0.76225,1.0149,-1,1
691,0.76328,1.0181,-1,1
692,0.76432,1.0212,-1,1
693,0.76536,1.0242,-1,1
694,0.7664,1.0272,-1,1
695,0.76744,1.0307,-1,1
696,0.76849,1.034,-1,1
697,0.76954,1.037,-1,1
698,0.7706,1.0399,-1,1
699,0.77165,1.0429,-1,1
700,0.77271,1.046,-1,1
701,0.77378,1.0492,-1,1
702,0.77484,1.0524,-1,1
703,0.77591,1.0556,-1,1
704,0.77698,1.0586,-1,1
705,0.77806,1.0616,-1,1
706,0.77914,1.0648,-1,1
707,0.78022,1.0677,-1,1
708,0.7813,1.0707,-1,1
709,0.78239,1.0737,-1,1
710,0.78348,1.0769,-1,1
711,0.78457,1.0799,-1,1
712,0.78567,1.0828,-1,1
713,0.78677,1.0856,-1,1
714,0.78787,1.0884,-1,1
715,0.78897,1.0912,-1,1
716,0.79008,1.0943,-1,1
717,0.7923,1.0976,-1,1
718,0.79342,1.1008,-1,1
719,0.79453,1.1037,-1,1
720,0.79565,1.1063,-1,1
721,0.79677,1.1089,-1,1
722,0.7979,1.1119,-1,1
723,0.79902,1.1151,-1,1
724,0.80016,1.1183,-1,1
725,0.80129,1.1213,-1,1
726,0.80242,1.1235,-1,1
727,0.80356,1.1256,-1,1
728,0.80469,1.1284,-1,1
729,0.80699,1.1316,-1,1
730,0.80813,1.1347,-1,1
731,0.80813,1.1375,-1,1
732,0.80928,1.1398,-1,1
733,0.81043,1.1419,-1,1
734,0.81158,1.1437,-1,1
735,0.81274,1.1459,-1,1
736,0.8139,1.1484,-1,1
737,0.81506,1.1513,-1,1
738,0.81623,1.1537,-1,1
739,0.81739,1.1555,-1,1
740,0.81973,1.1573,-1,1
741,0.8209,1.1596,-1,1
742,0.8209,1.1624,-1,1
743,0.82207,1.165,-1,1
744,0.82325,1.1679,-1,1
745,0.82443,1.1704,-1,1
746,0.82562,1.1729,-1,1
747,0.8268,1.1749,-1,1
748,0.82798,1.1763,-1,1
749,0.82916,1.1789,-1,1
750,0.83036,1.1817,-1,1
751,0.83275,1.1841,-1,1
752,0.83394,1.1859,-1,1
753,0.83394,1.1877,-1,1
754,0.83513,1.1892,-1,1
755,0.83633,1.1908,-1,1
756,0.83753,1.1926,-1,1
757,0.83874,1.1949,-1,1
758,0.83995,1.1976,-1,1
759,0.84115,1.1991,-1,1
760,0.84236,1.2001,-1,1
761,0.84356,1.2016,-1,1
762,0.84599,1.2037,-1,1
763,0.84599,1.2062,-1,1
764,0.8472,1.2087,-1,1
765,0.84842,1.2108,-1,1
766,0.84964,1.2123,-1,1
767,0.85085,1.2132,-1,1
768,0.85207,1.2142,-1,1
769,0.85329,1.2157,-1,1
770,0.85452,1.2177,-1,1
771,0.85575,1.2195,-1,1
772,0.85697,1.2205,-1,1
773,0.8582,1.221,-1,1
774,0.85942,1.2217,-1,1
775,0.86065,1.2229,-1,1
776,0.86188,1.2246,-1,1
777,0.86312,1.2266,-1,1
778,0.86435,1.2284,-1,1
779,0.86559,1.2293,-1,1
780,0.86682,1.2302,-1,1
781,0.86806,1.231,-1,1
782,0.8693,1.2325,-1,1
783,0.87054,1.2342,-1,1
784,0.87178,1.2357,-1,1
785,0.87302,1.2367,-1,1
786,0.87426,1.2377,-1,1
787,0.87551,1.2386,-1,1
788,0.87676,1.2398,-1,1
789,0.878,1.2415,-1,1
790,0.87925,1.243,-1,1
791,0.8805,1.2441,-1,1
792,0.88175,1.2452,-1,1
793,0.883,1.2464,-1,1
794,0.88426,1.2478,-1,1
795,0.88551,1.2491,-1,1
796,0.88676,1.2502,-1,1
797,0.88802,1.2514,-1,1
798,0.88928,1.2524,-1,1
799,0.89054,1.2536,-1,1
800,0.8918,1.2547,-1,1
801,0.89306,1.2565,-1,1
802,0.89432,1.2574,-1,1
803,0.89558,1.2582,-1,1
804,0.89685,1.2596,-1,1
805,0.89812,1.2612,-1,1
806,0.89939,1.2627,-1,1
807,0.90065,1.2639,-1,1
808,0.90192,1.2651,-1,1
809,0.90319,1.2656,-1,1
810,0.90446,1.2665,-1,1
811,0.90573,1.2674,-1,1
812,0.90701,1.2691,-1,1
813,0.90829,1.2704,-1,1
814,0.91083,1.2708,-1,1
815,0.91083,1.2713,-1,1
816,0.91211,1.2721,-1,1
817,0.91338,1.273,-1,1
818,0.91467,1.2743,-1,1
819,0.91595,1.2764,-1,1
820,0.91724,1.2777,-1,1
821,0.91851,1.2782,-1,1
822,0.92107,1.2786,-1,1
823,0.92236,1.28,-1,1
824,0.92365,1.2817,-1,1
825,0.92494,1.2834,-1,1
826,0.92623,1.2845,-1,1
827,0.92623,1.2849,-1,1
828,0.92751,1.2847,-1,1
829,0.9288,1.2844,-1,1
830,0.93009,1.2854,-1,1
831,0.93138,1.2871,-1,1
832,0.93398,1.2885,-1,1
833,0.93526,1.2886,-1,1
834,0.93655,1.2883,-1,1
835,0.93784,1.2885,-1,1
836,0.93915,1.2898,-1,1
837,0.94045,1.2921,-1,1
