cnt,pos,speed,Dir,Force,
1,0,1.0054,-1,2
2,0.00103998,1.011,-1,2
3,0.00207996,1.0164,-1,2
4,0.00311995,1.0217,-1,2
5,0.00416994,1.0275,-1,2
6,0.00522995,1.033,-1,2
7,0.00629997,1.0383,-1,2
8,0.00735998,1.0435,-1,2
9,0.00843,1.0489,-1,2
10,0.0095098,1.0545,-1,2
11,0.0105999,1.0594,-1,2
12,0.0116799,1.0642,-1,2
13,0.0127699,1.0694,-1,2
14,0.01387,1.0751,-1,2
15,0.0149798,1.0804,-1,2
16,0.0160899,1.0853,-1,2
17,0.0172,1.0899,-1,2
18,0.0183098,1.0949,-1,2
19,0.0194399,1.1002,-1,2
20,0.02056,1.1052,-1,2
21,0.0216899,1.1099,-1,2
22,0.02283,1.1147,-1,2
23,0.0239699,1.1198,-1,2
24,0.02512,1.1247,-1,2
25,0.0262699,1.1292,-1,2
26,0.0274198,1.1335,-1,2
27,0.02858,1.1385,-1,2
28,0.0297499,1.1434,-1,2
29,0.03092,1.148,-1,2
30,0.0320899,1.1523,-1,2
31,0.0332699,1.1573,-1,2
32,0.0344498,1.162,-1,2
33,0.03563,1.1663,-1,2
34,0.0368299,1.1707,-1,2
35,0.0380199,1.1754,-1,2
36,0.0392199,1.1801,-1,2
37,0.0404298,1.1843,-1,2
38,0.0416298,1.1885,-1,2
39,0.04406,1.1936,-1,2
40,0.04529,1.1986,-1,2
41,0.04651,1.2031,-1,2
42,0.04774,1.2075,-1,2
43,0.04897,1.2122,-1,2
44,0.05021,1.2167,-1,2
45,0.05145,1.2213,-1,2
46,0.0526998,1.226,-1,2
47,0.0539498,1.2309,-1,2
48,0.0551999,1.2353,-1,2
49,0.0564499,1.239,-1,2
50,0.0577099,1.2429,-1,2
51,0.05898,1.2469,-1,2
52,0.0602498,1.2512,-1,2
53,0.0615199,1.2555,-1,2
54,0.0627999,1.2598,-1,2
55,0.06408,1.2634,-1,2
56,0.0653598,1.2668,-1,2
57,0.06795,1.271,-1,2
58,0.0692399,1.2757,-1,2
59,0.07055,1.2804,-1,2
60,0.0718498,1.2848,-1,2
61,0.0731599,1.2889,-1,2
62,0.0744698,1.293,-1,2
63,0.0757899,1.2973,-1,2
64,0.0771098,1.3016,-1,2
65,0.0784299,1.3064,-1,2
66,0.0797598,1.3112,-1,2
67,0.0811,1.3151,-1,2
68,0.0824299,1.3189,-1,2
69,0.0837698,1.3224,-1,2
70,0.0851099,1.3263,-1,2
71,0.0864699,1.3309,-1,2
72,0.0878198,1.3351,-1,2
73,0.08917,1.3387,-1,2
74,0.0905299,1.3422,-1,2
75,0.0918899,1.3457,-1,2
76,0.0932598,1.3494,-1,2
77,0.09463,1.3532,-1,2
78,0.096,1.3571,-1,2
79,0.0973699,1.3605,-1,2
80,0.0987499,1.3639,-1,2
81,0.10014,1.3671,-1,2
82,0.10152,1.3707,-1,2
83,0.10291,1.3743,-1,2
84,0.10431,1.378,-1,2
85,0.1057,1.3812,-1,2
86,0.1071,1.3844,-1,2
87,0.1085,1.3876,-1,2
88,0.10991,1.3911,-1,2
89,0.11132,1.3949,-1,2
90,0.11274,1.3984,-1,2
91,0.11415,1.4015,-1,2
92,0.11557,1.4044,-1,2
93,0.11699,1.4076,-1,2
94,0.11842,1.4109,-1,2
95,0.11985,1.4148,-1,2
96,0.12128,1.4182,-1,2
97,0.12271,1.4211,-1,2
98,0.12415,1.4239,-1,2
99,0.12559,1.4269,-1,2
100,0.12704,1.4304,-1,2
101,0.12849,1.4341,-1,2
102,0.12994,1.4375,-1,2
103,0.13139,1.4404,-1,2
104,0.13285,1.4433,-1,2
105,0.13431,1.4462,-1,2
106,0.13578,1.4496,-1,2
107,0.13725,1.4534,-1,2
108,0.13872,1.4567,-1,2
109,0.14019,1.4594,-1,2
110,0.14166,1.4619,-1,2
111,0.14314,1.4647,-1,2
112,0.14462,1.468,-1,2
113,0.14611,1.4713,-1,2
114,0.14759,1.4743,-1,2
115,0.14908,1.4767,-1,2
116,0.15057,1.4793,-1,2
117,0.15207,1.4819,-1,2
118,0.15356,1.4847,-1,2
119,0.15506,1.4879,-1,2
120,0.15657,1.4908,-1,2
121,0.15807,1.4934,-1,2
122,0.15958,1.4956,-1,2
123,0.16109,1.4984,-1,2
124,0.1626,1.5009,-1,2
125,0.16412,1.504,-1,2
126,0.16564,1.5067,-1,2
127,0.16716,1.5093,-1,2
128,0.16868,1.5115,-1,2
129,0.17021,1.5141,-1,2
130,0.17173,1.5167,-1,2
131,0.17327,1.5195,-1,2
132,0.1748,1.5222,-1,2
133,0.17634,1.5246,-1,2
134,0.17788,1.5274,-1,2
135,0.17942,1.5299,-1,2
136,0.18096,1.5325,-1,2
137,0.18251,1.5346,-1,2
138,0.18405,1.5376,-1,2
139,0.18561,1.5402,-1,2
140,0.18716,1.5429,-1,2
141,0.18872,1.5451,-1,2
142,0.19027,1.5474,-1,2
143,0.19183,1.5495,-1,2
144,0.1934,1.5521,-1,2
145,0.19496,1.5547,-1,2
146,0.19653,1.5569,-1,2
147,0.1981,1.5592,-1,2
148,0.19967,1.5611,-1,2
149,0.20124,1.5632,-1,2
150,0.20282,1.5658,-1,2
151,0.2044,1.5682,-1,2
152,0.20598,1.5703,-1,2
153,0.20756,1.5724,-1,2
154,0.20914,1.5742,-1,2
155,0.21073,1.5762,-1,2
156,0.21232,1.5787,-1,2
157,0.21391,1.581,-1,2
158,0.21549,1.5826,-1,2
159,0.21708,1.5842,-1,2
160,0.21867,1.5856,-1,2
161,0.22027,1.5876,-1,2
162,0.22187,1.5895,-1,2
163,0.22346,1.5908,-1,2
164,0.22505,1.5916,-1,2
165,0.22665,1.5927,-1,2
166,0.22826,1.5941,-1,2
167,0.22986,1.5953,-1,2
168,0.23145,1.5962,-1,2
169,0.23305,1.5968,-1,2
170,0.23465,1.5975,-1,2
171,0.23626,1.5985,-1,2
172,0.23787,1.5995,-1,2
173,0.23946,1.6001,-1,2
174,0.24106,1.6005,-1,2
175,0.24266,1.6008,-1,2
176,0.24427,1.6012,-1,2
177,0.24588,1.602,-1,2
178,0.24748,1.6027,-1,2
179,0.24908,1.6029,-1,2
180,0.25068,1.6029,-1,2
181,0.25229,1.6029,-1,2
182,0.2539,1.6029,-1,2
183,0.2555,1.6034,-1,2
184,0.2571,1.6039,-1,2
185,0.2587,1.604,-1,2
186,0.26031,1.604,-1,2
187,0.26192,1.6031,-1,2
188,0.26512,1.603,-1,2
189,0.26672,1.6036,-1,2
190,0.26833,1.604,-1,2
191,0.26993,1.6037,-1,2
192,0.27153,1.6032,-1,2
193,0.27313,1.6029,-1,2
194,0.27473,1.603,-1,2
195,0.27634,1.603,-1,2
196,0.27794,1.6023,-1,2
197,0.27954,1.6023,-1,2
198,0.28114,1.6022,-1,2
199,0.28274,1.602,-1,2
200,0.28434,1.6011,-1,2
201,0.28753,1.5998,-1,2
202,0.28753,1.5997,-1,2
203,0.29073,1.5999,-1,2
204,0.29233,1.5996,-1,2
205,0.29393,1.5987,-1,2
206,0.29551,1.5972,-1,2
207,0.29711,1.5965,-1,2
208,0.29871,1.5966,-1,2
209,0.3003,1.5963,-1,2
210,0.30189,1.5954,-1,2
211,0.30348,1.5944,-1,2
212,0.30506,1.5929,-1,2
213,0.30666,1.5924,-1,2
214,0.30825,1.5921,-1,2
215,0.30984,1.5913,-1,2
216,0.31142,1.5902,-1,2
217,0.313,1.5892,-1,2
218,0.31459,1.588,-1,2
219,0.31618,1.5873,-1,2
220,0.31776,1.5867,-1,2
221,0.31933,1.5857,-1,2
222,0.32091,1.5846,-1,2
223,0.32249,1.5832,-1,2
224,0.32407,1.5821,-1,2
225,0.32565,1.5812,-1,2
226,0.32722,1.5803,-1,2
227,0.32879,1.5787,-1,2
228,0.33036,1.5775,-1,2
229,0.33194,1.5761,-1,2
230,0.33351,1.5746,-1,2
231,0.33506,1.5731,-1,2
232,0.33662,1.5717,-1,2
233,0.33819,1.5702,-1,2
234,0.33976,1.5688,-1,2
235,0.34132,1.567,-1,2
236,0.34287,1.565,-1,2
237,0.34442,1.5633,-1,2
238,0.34598,1.5615,-1,2
239,0.34754,1.5597,-1,2
240,0.34909,1.5581,-1,2
241,0.35063,1.5562,-1,2
242,0.35217,1.5542,-1,2
243,0.35372,1.5523,-1,2
244,0.35527,1.5505,-1,2
245,0.35681,1.549,-1,2
246,0.35834,1.5475,-1,2
247,0.35988,1.5456,-1,2
248,0.36141,1.5433,-1,2
249,0.36295,1.5417,-1,2
250,0.36449,1.5405,-1,2
251,0.36602,1.5392,-1,2
252,0.36754,1.537,-1,2
253,0.36906,1.5345,-1,2
254,0.37059,1.5321,-1,2
255,0.37212,1.5305,-1,2
256,0.37364,1.5293,-1,2
257,0.37515,1.5275,-1,2
258,0.37666,1.5251,-1,2
259,0.37817,1.5221,-1,2
260,0.37969,1.5194,-1,2
261,0.3812,1.5177,-1,2
262,0.3827,1.5165,-1,2
263,0.38421,1.5147,-1,2
264,0.38571,1.5119,-1,2
265,0.38721,1.5092,-1,2
266,0.3887,1.5065,-1,2
267,0.39019,1.5043,-1,2
268,0.39169,1.5026,-1,2
269,0.39318,1.5005,-1,2
270,0.39467,1.4982,-1,2
271,0.39615,1.4955,-1,2
272,0.39763,1.4926,-1,2
273,0.39911,1.4897,-1,2
274,0.40059,1.4877,-1,2
275,0.40206,1.4854,-1,2
276,0.40353,1.4832,-1,2
277,0.405,1.4803,-1,2
278,0.40646,1.477,-1,2
279,0.40792,1.474,-1,2
280,0.40938,1.4713,-1,2
281,0.41084,1.469,-1,2
282,0.41229,1.4665,-1,2
283,0.41374,1.4634,-1,2
284,0.41519,1.4601,-1,2
285,0.41663,1.457,-1,2
286,0.41808,1.4543,-1,2
287,0.41951,1.4518,-1,2
288,0.42095,1.4489,-1,2
289,0.42238,1.4456,-1,2
290,0.4238,1.4424,-1,2
291,0.42524,1.4394,-1,2
292,0.42666,1.4362,-1,2
293,0.42806,1.4326,-1,2
294,0.42947,1.4286,-1,2
295,0.43088,1.4251,-1,2
296,0.43229,1.4215,-1,2
297,0.43369,1.418,-1,2
298,0.43509,1.414,-1,2
299,0.43647,1.4094,-1,2
300,0.43785,1.4047,-1,2
301,0.43924,1.4004,-1,2
302,0.44063,1.3971,-1,2
303,0.442,1.3938,-1,2
304,0.44337,1.3896,-1,2
305,0.44472,1.3839,-1,2
306,0.44608,1.3788,-1,2
307,0.44744,1.3749,-1,2
308,0.44881,1.3719,-1,2
309,0.45015,1.3684,-1,2
310,0.45149,1.3633,-1,2
311,0.45281,1.3572,-1,2
312,0.45414,1.3516,-1,2
313,0.45548,1.3476,-1,2
314,0.45681,1.3442,-1,2
315,0.45813,1.3406,-1,2
316,0.45943,1.3352,-1,2
317,0.46073,1.3285,-1,2
318,0.46203,1.3222,-1,2
319,0.46333,1.318,-1,2
320,0.46464,1.315,-1,2
321,0.46593,1.3114,-1,2
322,0.4672,1.306,-1,2
323,0.46847,1.2991,-1,2
324,0.46973,1.2926,-1,2
325,0.471,1.2875,-1,2
326,0.47227,1.2839,-1,2
327,0.47353,1.2801,-1,2
328,0.47477,1.2747,-1,2
329,0.47601,1.2674,-1,2
330,0.47724,1.2606,-1,2
331,0.47847,1.2546,-1,2
332,0.4797,1.25,-1,2
333,0.48092,1.2455,-1,2
334,0.48213,1.2398,-1,2
335,0.48333,1.2329,-1,2
336,0.48452,1.2253,-1,2
337,0.48691,1.2188,-1,2
338,0.48809,1.2125,-1,2
339,0.48926,1.206,-1,2
340,0.49042,1.1984,-1,2
341,0.49157,1.1906,-1,2
342,0.49272,1.1828,-1,2
343,0.49387,1.1755,-1,2
344,0.49502,1.1689,-1,2
345,0.49615,1.162,-1,2
346,0.49726,1.1545,-1,2
347,0.49837,1.146,-1,2
348,0.49948,1.1386,-1,2
349,0.50059,1.1326,-1,2
350,0.50169,1.1269,-1,2
351,0.50278,1.1205,-1,2
352,0.50385,1.1129,-1,2
353,0.50492,1.1048,-1,2
354,0.50705,1.0965,-1,2
355,0.5081,1.089,-1,2
356,0.50915,1.0819,-1,2
357,0.51018,1.0747,-1,2
358,0.51121,1.0665,-1,2
359,0.51223,1.0576,-1,2
360,0.51325,1.0492,-1,2
361,0.51426,1.0419,-1,2
362,0.51526,1.0344,-1,2
363,0.51625,1.0268,-1,2
364,0.51724,1.0192,-1,2
365,0.51822,1.0118,-1,2
366,0.5192,1.005,-1,2
367,0.52017,0.9983,-1,2
368,0.52113,0.9917,-1,2
369,0.52208,0.9849,-1,2
370,0.52302,0.9778,-1,2
371,0.52396,0.9704,-1,2
372,0.5249,0.9635,-1,2
373,0.52582,0.9566,-1,2
374,0.52674,0.9499,-1,2
375,0.52765,0.9431,-1,2
376,0.52856,0.9362,-1,2
377,0.52946,0.9293,-1,2
378,0.53035,0.922,-1,2
379,0.53123,0.915,-1,2
380,0.53211,0.9082,-1,2
381,0.53298,0.9014,-1,2
382,0.53385,0.8946,-1,2
383,0.5347,0.8875,-1,2
384,0.53554,0.8804,-1,2
385,0.53638,0.8732,-1,2
386,0.53722,0.8661,-1,2
387,0.53805,0.8592,-1,2
388,0.53887,0.8524,-1,2
389,0.53968,0.8452,-1,2
390,0.54049,0.8378,-1,2
391,0.54129,0.8305,-1,2
392,0.54208,0.8236,-1,2
393,0.54287,0.8171,-1,2
394,0.54364,0.81,-1,2
395,0.54441,0.8028,-1,2
396,0.54518,0.7955,-1,2
397,0.54594,0.7885,-1,2
398,0.54669,0.7819,-1,2
399,0.54744,0.7754,-1,2
400,0.54817,0.7683,-1,2
401,0.54889,0.7609,-1,2
402,0.54962,0.7536,-1,2
403,0.55034,0.7468,-1,2
404,0.55105,0.7406,-1,2
405,0.55175,0.734,-1,2
406,0.55245,0.7268,-1,2
407,0.55313,0.7193,-1,2
408,0.55381,0.7122,-1,2
409,0.55449,0.7056,-1,2
410,0.55516,0.6995,-1,2
411,0.55583,0.6932,-1,2
412,0.55648,0.6862,-1,2
413,0.55712,0.6786,-1,2
414,0.55776,0.6711,-1,2
415,0.5584,0.6642,-1,2
416,0.55902,0.6578,-1,2
417,0.55965,0.6514,-1,2
418,0.56026,0.6445,-1,2
419,0.56086,0.6372,-1,2
420,0.56146,0.6299,-1,2
421,0.56205,0.6228,-1,2
422,0.56264,0.616,-1,2
423,0.56322,0.6095,-1,2
424,0.56379,0.6027,-1,2
425,0.56435,0.5957,-1,2
426,0.56491,0.5885,-1,2
427,0.56546,0.5812,-1,2
428,0.566,0.5742,-1,2
429,0.56654,0.5673,-1,2
430,0.56707,0.5603,-1,2
431,0.56759,0.5532,-1,2
432,0.5681,0.5462,-1,2
433,0.56861,0.5393,-1,2
434,0.56911,0.5327,-1,2
435,0.56961,0.526,-1,2
436,0.5701,0.5191,-1,2
437,0.57058,0.5123,-1,2
438,0.57105,0.5053,-1,2
439,0.57152,0.4983,-1,2
440,0.57198,0.4914,-1,2
441,0.57243,0.4846,-1,2
442,0.57288,0.4777,-1,2
443,0.57332,0.4709,-1,2
444,0.57375,0.464,-1,2
445,0.57418,0.457,-1,2
446,0.5746,0.45,-1,2
447,0.57501,0.4431,-1,2
448,0.57541,0.4362,-1,2
449,0.57581,0.4296,-1,2
450,0.57621,0.4227,-1,2
451,0.57659,0.416,-1,2
452,0.57697,0.4092,-1,2
453,0.57734,0.4022,-1,2
454,0.57771,0.3951,-1,2
455,0.57806,0.3882,-1,2
456,0.57841,0.3814,-1,2
457,0.57876,0.3746,-1,2
458,0.57909,0.3679,-1,2
459,0.57942,0.361,-1,2
460,0.57975,0.3542,-1,2
461,0.58006,0.3472,-1,2
462,0.58037,0.3405,-1,2
463,0.58068,0.3337,-1,2
464,0.58097,0.327,-1,2
465,0.58127,0.3203,-1,2
466,0.58155,0.3137,-1,2
467,0.58183,0.307,-1,2
468,0.5821,0.3002,-1,2
469,0.58236,0.2934,-1,2
470,0.58262,0.2867,-1,2
471,0.58287,0.2801,-1,2
472,0.58311,0.2734,-1,2
473,0.58335,0.2668,-1,2
474,0.58358,0.2602,-1,2
475,0.5838,0.2533,-1,2
476,0.58402,0.2466,-1,2
477,0.58423,0.24,-1,2
478,0.58443,0.2336,-1,2
479,0.58463,0.2271,-1,2
480,0.58482,0.2206,-1,2
481,0.58501,0.214,-1,2
482,0.58519,0.2075,-1,2
483,0.58536,0.2009,-1,2
484,0.58552,0.1945,-1,2
485,0.58568,0.1881,-1,2
486,0.58583,0.1816,-1,2
487,0.58598,0.175,-1,2
488,0.58612,0.1684,-1,2
489,0.58625,0.1619,-1,2
490,0.58638,0.1555,-1,2
491,0.5865,0.1492,-1,2
492,0.58661,0.1427,-1,2
493,0.58672,0.1363,-1,2
494,0.58682,0.1292,-1,2
495,0.58701,0.1223,-1,2
496,0.58709,0.1154,-1,2
497,0.58717,0.1087,-1,2
498,0.58724,0.1019,-1,2
499,0.58731,0.0952,-1,2
500,0.58737,0.0885,-1,2
501,0.58742,0.0819,-1,2
502,0.58747,0.0753,-1,2
503,0.58751,0.0689,-1,2
504,0.58755,0.063,-1,2
505,0.58758,0.0574,-1,2
506,0.58761,0.0518,-1,2
507,0.58763,0.0461,-1,2
508,0.58765,0.0406,-1,2
509,0.58766,0.0345,-1,2
510,0.58766,0.0285,-1,2
511,0.58766,0.0225,-1,2
512,0.58765,0.0168,-1,2
513,0.58763,0.0111,-1,2
514,0.58761,0,-1,2
515,0.58759,0,-1,2
516,0.58757,0,-1,2
517,0.58753,-0.0107,-1,2
518,0.5875,-0.0157,-1,2
519,0.58746,-0.0201,-1,2
520,0.58742,-0.0244,-1,2
521,0.58737,-0.0286,-1,2
522,0.58732,-0.0327,-1,2
523,0.58727,-0.0368,-1,2
524,0.58721,-0.0406,-1,2
525,0.58715,-0.0443,-1,2
526,0.58709,-0.0481,-1,2
527,0.58702,-0.0518,-1,2
528,0.58694,-0.0556,-1,2
529,0.58687,-0.0592,-1,2
530,0.58679,-0.0629,-1,2
531,0.58671,-0.0665,-1,2
532,0.58662,-0.0701,-1,2
533,0.58653,-0.0736,-1,2
534,0.58644,-0.0773,-1,2
535,0.58634,-0.081,-1,2
536,0.58624,-0.0846,-1,2
537,0.58613,-0.0884,-1,2
538,0.58602,-0.0921,-1,2
539,0.58591,-0.0959,-1,2
540,0.58579,-0.0995,-1,2
541,0.58567,-0.1033,-1,2
542,0.58555,-0.1071,-1,2
543,0.58542,-0.1109,-1,2
544,0.58529,-0.1146,-1,2
545,0.58515,-0.1184,-1,2
546,0.58502,-0.1221,-1,2
547,0.58487,-0.1256,-1,2
548,0.58473,-0.1291,-1,2
549,0.58458,-0.1326,-1,2
550,0.58443,-0.1361,-1,2
551,0.58428,-0.1394,-1,2
552,0.58412,-0.1428,-1,2
553,0.58396,-0.1461,-1,2
554,0.58379,-0.1494,-1,2
555,0.58363,-0.1524,-1,2
556,0.58346,-0.1555,-1,2
557,0.58329,-0.1586,-1,2
558,0.58311,-0.1617,-1,2
559,0.58294,-0.1646,-1,2
560,0.58276,-0.1676,-1,2
561,0.58257,-0.1705,-1,2
562,0.58238,-0.1734,-1,2
563,0.5822,-0.1762,-1,2
564,0.582,-0.179,-1,2
565,0.58181,-0.182,-1,2
566,0.58161,-0.1848,-1,2
567,0.58141,-0.1876,-1,2
568,0.58121,-0.1904,-1,2
569,0.581,-0.1932,-1,2
570,0.5808,-0.1958,-1,2
571,0.58059,-0.1985,-1,2
572,0.58037,-0.201,-1,2
573,0.58016,-0.2035,-1,2
574,0.57994,-0.2059,-1,2
575,0.57973,-0.2081,-1,2
576,0.57951,-0.2106,-1,2
577,0.57928,-0.2129,-1,2
578,0.57906,-0.2151,-1,2
579,0.57883,-0.2173,-1,2
580,0.5786,-0.2193,-1,2
581,0.57837,-0.2214,-1,2
582,0.57814,-0.2234,-1,2
583,0.57791,-0.2254,-1,2
584,0.57767,-0.2274,-1,2
585,0.57743,-0.2294,-1,2
586,0.57719,-0.2311,-1,2
587,0.57695,-0.2326,-1,2
588,0.57671,-0.2342,-1,2
589,0.57647,-0.2355,-1,2
590,0.57623,-0.237,-1,2
591,0.57599,-0.238,-1,2
592,0.57575,-0.2389,-1,2
593,0.57551,-0.2395,-1,2
594,0.57527,-0.2398,-1,2
595,0.57503,-0.24,-1,2
596,0.57479,-0.24,-1,2
597,0.57455,-0.2401,-1,2
598,0.57431,-0.2397,-1,2
599,0.57408,-0.2392,-1,2
600,0.57384,-0.2384,-1,2
601,0.57361,-0.2375,-1,2
602,0.57338,-0.2367,-1,2
603,0.57315,-0.2359,-1,2
604,0.57292,-0.235,-1,2
605,0.57269,-0.2338,-1,2
606,0.57246,-0.2326,-1,2
607,0.57224,-0.2312,-1,2
608,0.57202,-0.2299,-1,2
609,0.57179,-0.2287,-1,2
610,0.57157,-0.2274,-1,2
611,0.57135,-0.2262,-1,2
612,0.57113,-0.2247,-1,2
613,0.57092,-0.2232,-1,2
614,0.5707,-0.2218,-1,2
615,0.57049,-0.2204,-1,2
616,0.57028,-0.2189,-1,2
617,0.57006,-0.2176,-1,2
618,0.56985,-0.2162,-1,2
619,0.56965,-0.2147,-1,2
620,0.56944,-0.2133,-1,2
621,0.56923,-0.2117,-1,2
622,0.56903,-0.2105,-1,2
623,0.56883,-0.209,-1,2
624,0.56862,-0.2076,-1,2
625,0.56842,-0.2064,-1,2
626,0.56822,-0.2052,-1,2
627,0.56803,-0.2038,-1,2
628,0.56783,-0.2024,-1,2
629,0.56763,-0.2012,-1,2
630,0.56744,-0.1999,-1,2
631,0.56725,-0.1988,-1,2
632,0.56706,-0.1973,-1,2
633,0.56687,-0.1961,-1,2
634,0.56668,-0.1948,-1,2
635,0.56649,-0.1934,-1,2
636,0.5663,-0.192,-1,2
637,0.56612,-0.1906,-1,2
638,0.56594,-0.1891,-1,2
639,0.56558,-0.1873,-1,2
640,0.5654,-0.1856,-1,2
641,0.56523,-0.1839,-1,2
642,0.56505,-0.1822,-1,2
643,0.56488,-0.1804,-1,2
644,0.56471,-0.1784,-1,2
645,0.56454,-0.1765,-1,2
646,0.56438,-0.1745,-1,2
647,0.56421,-0.1725,-1,2
648,0.56405,-0.1707,-1,2
649,0.56389,-0.1689,-1,2
650,0.56373,-0.1671,-1,2
651,0.56358,-0.1652,-1,2
652,0.56342,-0.1632,-1,2
653,0.56327,-0.1614,-1,2
654,0.56312,-0.1596,-1,2
655,0.56297,-0.1578,-1,2
656,0.56282,-0.1558,-1,2
657,0.56267,-0.1538,-1,2
658,0.56239,-0.1518,-1,2
659,0.56225,-0.1498,-1,2
660,0.56211,-0.1477,-1,2
661,0.56197,-0.1457,-1,2
662,0.56184,-0.1438,-1,2
663,0.56171,-0.1416,-1,2
664,0.56158,-0.1395,-1,2
665,0.56145,-0.1373,-1,2
666,0.56132,-0.1353,-1,2
667,0.5612,-0.1333,-1,2
668,0.56108,-0.1312,-1,2
669,0.56096,-0.1292,-1,2
670,0.56084,-0.1272,-1,2
671,0.56072,-0.1251,-1,2
672,0.56061,-0.1229,-1,2
673,0.5605,-0.1208,-1,2
674,0.56039,-0.1186,-1,2
675,0.56028,-0.1165,-1,2
676,0.56018,-0.1143,-1,2
677,0.56008,-0.1121,-1,2
678,0.55998,-0.11,-1,2
679,0.55988,-0.1078,-1,2
680,0.55978,-0.1056,-1,2
681,0.55969,-0.1035,-1,2
682,0.5596,-0.1015,-1,2
683,0.5595,-0.0994,-1,2
684,0.55942,-0.0974,-1,2
685,0.55933,-0.0954,-1,2
686,0.55924,-0.0935,-1,2
687,0.55916,-0.0916,-1,2
688,0.55908,-0.0897,-1,2
689,0.559,-0.0878,-1,2
690,0.55892,-0.086,-1,2
691,0.55885,-0.0841,-1,2
692,0.55877,-0.0822,-1,2
693,0.5587,-0.0805,-1,2
694,0.55863,-0.0788,-1,2
695,0.55856,-0.0771,-1,2
696,0.55849,-0.0753,-1,2
697,0.55843,-0.0735,-1,2
698,0.55836,-0.0716,-1,2
699,0.5583,-0.0698,-1,2
700,0.55824,-0.0679,-1,2
701,0.55819,-0.0659,-1,2
702,0.55813,-0.064,-1,2
703,0.55808,-0.0619,-1,2
704,0.55803,-0.0598,-1,2
705,0.55798,-0.0576,-1,2
706,0.55794,-0.0553,-1,2
707,0.5579,-0.0529,-1,2
708,0.55786,-0.0505,-1,2
709,0.55782,-0.048,-1,2
710,0.55779,-0.0454,-1,2
711,0.55776,-0.0428,-1,2
712,0.55773,-0.04,-1,2
713,0.55771,-0.0371,-1,2
714,0.55769,-0.034,-1,2
715,0.55767,-0.0308,-1,2
716,0.55766,-0.0277,-1,2
717,0.55765,-0.0246,-1,2
718,0.55764,-0.0213,-1,2
719,0.55764,-0.0179,-1,2
720,0.55764,-0.0145,-1,2
721,0.55765,-0.0111,-1,2
722,0.55765,0,-1,2
723,0.55766,0,-1,2
724,0.55768,0,-1,2
725,0.55769,0,-1,2
726,0.55771,0,-1,2
727,0.55773,0,-1,2
728,0.55775,0.0107,-1,2
729,0.55778,0.0133,-1,2
730,0.5578,0.0158,-1,2
731,0.55783,0.0182,-1,2
732,0.55786,0.0205,-1,2
733,0.55789,0.0227,-1,2
734,0.55792,0.0246,-1,2
735,0.55796,0.0266,-1,2
736,0.55799,0.0284,-1,2
737,0.55803,0.0302,-1,2
738,0.55807,0.0319,-1,2
739,0.55811,0.0335,-1,2
740,0.55815,0.0351,-1,2
741,0.5582,0.0366,-1,2
742,0.55824,0.038,-1,2
743,0.55828,0.0393,-1,2
744,0.55833,0.0408,-1,2
745,0.55838,0.0421,-1,2
746,0.55843,0.0436,-1,2
747,0.55848,0.0449,-1,2
748,0.55853,0.0462,-1,2
749,0.55859,0.0476,-1,2
750,0.55864,0.0489,-1,2
751,0.5587,0.0502,-1,2
752,0.55876,0.0517,-1,2
753,0.55882,0.0532,-1,2
754,0.55888,0.0546,-1,2
755,0.55894,0.056,-1,2
756,0.559,0.0575,-1,2
757,0.55907,0.059,-1,2
758,0.55914,0.0607,-1,2
759,0.55921,0.0623,-1,2
760,0.55928,0.064,-1,2
761,0.55935,0.0657,-1,2
762,0.55943,0.0674,-1,2
763,0.55951,0.0691,-1,2
764,0.55959,0.071,-1,2
765,0.55967,0.073,-1,2
766,0.55975,0.0749,-1,2
767,0.55984,0.0769,-1,2
768,0.55993,0.0787,-1,2
769,0.56002,0.0807,-1,2
770,0.56011,0.0828,-1,2
771,0.5602,0.0848,-1,2
772,0.5603,0.0869,-1,2
773,0.5604,0.0892,-1,2
774,0.5605,0.0912,-1,2
775,0.5606,0.0933,-1,2
776,0.56071,0.0954,-1,2
777,0.56082,0.0976,-1,2
778,0.56093,0.0999,-1,2
779,0.56104,0.1019,-1,2
780,0.56115,0.1039,-1,2
781,0.56126,0.106,-1,2
782,0.56138,0.108,-1,2
783,0.5615,0.11,-1,2
784,0.56162,0.1121,-1,2
785,0.56174,0.1142,-1,2
786,0.56187,0.1162,-1,2
787,0.562,0.1183,-1,2
788,0.56213,0.1205,-1,2
789,0.56239,0.1228,-1,2
790,0.56253,0.125,-1,2
791,0.56266,0.1272,-1,2
792,0.5628,0.1293,-1,2
793,0.56294,0.1314,-1,2
794,0.56308,0.1337,-1,2
795,0.56323,0.136,-1,2
796,0.56338,0.1384,-1,2
797,0.56353,0.1408,-1,2
798,0.56369,0.1433,-1,2
799,0.56385,0.146,-1,2
800,0.56401,0.1488,-1,2
801,0.56418,0.152,-1,2
802,0.56435,0.1552,-1,2
803,0.56453,0.1586,-1,2
804,0.56471,0.162,-1,2
805,0.56489,0.1658,-1,2
806,0.56507,0.1697,-1,2
807,0.56526,0.1735,-1,2
808,0.56565,0.1773,-1,2
809,0.56584,0.181,-1,2
810,0.56604,0.1848,-1,2
811,0.56625,0.1884,-1,2
812,0.56645,0.1921,-1,2
813,0.56666,0.1955,-1,2
814,0.56688,0.199,-1,2
815,0.56709,0.2021,-1,2
816,0.56731,0.2051,-1,2
817,0.56753,0.2082,-1,2
818,0.56775,0.2109,-1,2
819,0.56798,0.2138,-1,2
820,0.56821,0.2166,-1,2
821,0.56844,0.2194,-1,2
822,0.56868,0.2223,-1,2
823,0.56891,0.2251,-1,2
824,0.56915,0.2279,-1,2
825,0.5694,0.2307,-1,2
826,0.56964,0.2336,-1,2
827,0.56989,0.2364,-1,2
828,0.57015,0.2395,-1,2
829,0.5704,0.2425,-1,2
830,0.57066,0.2456,-1,2
831,0.57093,0.2486,-1,2
832,0.57119,0.2516,-1,2
