cnt,pos,speed,Dir,Force,
1,0,1.0105,-1,1
2,0.00108004,1.0229,-1,1
3,0.00217009,1.0351,-1,1
4,0.00326967,1.0476,-1,1
5,0.00326967,1.0604,-1,1
6,0.00437975,1.0719,-1,1
7,0.00550985,1.0832,-1,1
8,0.00664997,1.0944,-1,1
9,0.00779009,1.1045,-1,1
10,0.00894976,1.1143,-1,1
11,0.0113001,1.125,-1,1
12,0.0113001,1.1358,-1,1
13,0.01369,1.1468,-1,1
14,0.0148997,1.1577,-1,1
15,0.01612,1.168,-1,1
16,0.0173497,1.1794,-1,1
17,0.01858,1.1904,-1,1
18,0.0198298,1.2017,-1,1
19,0.02109,1.2126,-1,1
20,0.0223598,1.2237,-1,1
21,0.0236297,1.2335,-1,1
22,0.02492,1.2432,-1,1
23,0.0262098,1.2526,-1,1
24,0.0275097,1.2616,-1,1
25,0.02882,1.2709,-1,1
26,0.0301499,1.2801,-1,1
27,0.0314798,1.2895,-1,1
28,0.0328197,1.2983,-1,1
29,0.0341597,1.3068,-1,1
30,0.0355,1.3146,-1,1
31,0.03686,1.3226,-1,1
32,0.0382299,1.331,-1,1
33,0.0396099,1.3393,-1,1
34,0.0409899,1.3471,-1,1
35,0.0423698,1.3541,-1,1
36,0.0437498,1.3607,-1,1
37,0.0451498,1.3673,-1,1
38,0.0465598,1.3747,-1,1
39,0.0479798,1.3822,-1,1
40,0.0493898,1.3889,-1,1
41,0.0508099,1.3948,-1,1
42,0.0522299,1.4001,-1,1
43,0.0536599,1.4059,-1,1
44,0.05511,1.4125,-1,1
45,0.05656,1.419,-1,1
46,0.0580001,1.4247,-1,1
47,0.0594397,1.4294,-1,1
48,0.0608997,1.4336,-1,1
49,0.0623598,1.4385,-1,1
50,0.0638299,1.4443,-1,1
51,0.06531,1.4499,-1,1
52,0.0667701,1.4544,-1,1
53,0.0682397,1.4577,-1,1
54,0.0697198,1.461,-1,1
55,0.0712099,1.4652,-1,1
56,0.0727,1.47,-1,1
57,0.0741897,1.4744,-1,1
58,0.0756698,1.4775,-1,1
59,0.0771499,1.4792,-1,1
60,0.07865,1.4814,-1,1
61,0.0801497,1.4847,-1,1
62,0.0816598,1.4886,-1,1
63,0.0831599,1.492,-1,1
64,0.0846601,1.4938,-1,1
65,0.0861597,1.495,-1,1
66,0.0876698,1.4966,-1,1
67,0.08918,1.4995,-1,1
68,0.0906997,1.5029,-1,1
69,0.0922198,1.5061,-1,1
70,0.09372,1.5074,-1,1
71,0.0952296,1.5081,-1,1
72,0.0967498,1.5091,-1,1
73,0.0982699,1.5113,-1,1
74,0.0997996,1.5138,-1,1
75,0.10132,1.5161,-1,1
76,0.10284,1.5174,-1,1
77,0.10436,1.5179,-1,1
78,0.10588,1.5181,-1,1
79,0.10741,1.5192,-1,1
80,0.10893,1.5211,-1,1
81,0.11046,1.5229,-1,1
82,0.11199,1.5241,-1,1
83,0.11352,1.5245,-1,1
84,0.11504,1.5246,-1,1
85,0.11656,1.5245,-1,1
86,0.11809,1.5252,-1,1
87,0.11962,1.5262,-1,1
88,0.12116,1.5276,-1,1
89,0.12268,1.5278,-1,1
90,0.12421,1.5275,-1,1
91,0.12573,1.5266,-1,1
92,0.12726,1.5267,-1,1
93,0.12879,1.5272,-1,1
94,0.13032,1.5284,-1,1
95,0.13185,1.5288,-1,1
96,0.13337,1.5283,-1,1
97,0.1349,1.5274,-1,1
98,0.13643,1.5271,-1,1
99,0.13796,1.5274,-1,1
100,0.13948,1.5277,-1,1
101,0.14101,1.5278,-1,1
102,0.14253,1.5272,-1,1
103,0.14406,1.5264,-1,1
104,0.14558,1.5256,-1,1
105,0.1471,1.5254,-1,1
106,0.14863,1.5253,-1,1
107,0.15015,1.5251,-1,1
108,0.15167,1.5242,-1,1
109,0.15319,1.5232,-1,1
110,0.15471,1.5224,-1,1
111,0.15623,1.5219,-1,1
112,0.15774,1.5213,-1,1
113,0.15926,1.5209,-1,1
114,0.16078,1.52,-1,1
115,0.16229,1.5188,-1,1
116,0.1638,1.5175,-1,1
117,0.16683,1.5167,-1,1
118,0.16834,1.5158,-1,1
119,0.16985,1.5146,-1,1
120,0.17135,1.5131,-1,1
121,0.17286,1.5118,-1,1
122,0.17437,1.5109,-1,1
123,0.17588,1.5099,-1,1
124,0.17738,1.5085,-1,1
125,0.17888,1.5072,-1,1
126,0.18037,1.5059,-1,1
127,0.18187,1.5049,-1,1
128,0.18338,1.5036,-1,1
129,0.18637,1.5022,-1,1
130,0.18786,1.5006,-1,1
131,0.18786,1.4998,-1,1
132,0.18935,1.4985,-1,1
133,0.19234,1.497,-1,1
134,0.19234,1.4957,-1,1
135,0.19532,1.4941,-1,1
136,0.1968,1.4932,-1,1
137,0.19829,1.4917,-1,1
138,0.19978,1.4905,-1,1
139,0.20126,1.4889,-1,1
140,0.20422,1.4881,-1,1
141,0.20571,1.487,-1,1
142,0.20719,1.4857,-1,1
143,0.20867,1.484,-1,1
144,0.21014,1.482,-1,1
145,0.21161,1.4809,-1,1
146,0.21309,1.48,-1,1
147,0.21456,1.4789,-1,1
148,0.21604,1.4775,-1,1
149,0.21751,1.4766,-1,1
150,0.21897,1.4751,-1,1
151,0.22044,1.4733,-1,1
152,0.22191,1.4722,-1,1
153,0.22338,1.4715,-1,1
154,0.22484,1.4709,-1,1
155,0.22631,1.4699,-1,1
156,0.22777,1.4682,-1,1
157,0.22923,1.4667,-1,1
158,0.23069,1.4657,-1,1
159,0.23216,1.4651,-1,1
160,0.23362,1.4645,-1,1
161,0.23507,1.4637,-1,1
162,0.23653,1.4624,-1,1
163,0.23799,1.4611,-1,1
164,0.23945,1.4602,-1,1
165,0.2409,1.4595,-1,1
166,0.24235,1.4587,-1,1
167,0.24381,1.4579,-1,1
168,0.24526,1.4571,-1,1
169,0.24672,1.456,-1,1
170,0.24816,1.4549,-1,1
171,0.24961,1.4534,-1,1
172,0.25105,1.452,-1,1
173,0.2525,1.451,-1,1
174,0.25395,1.4505,-1,1
175,0.2554,1.4496,-1,1
176,0.25684,1.4482,-1,1
177,0.25827,1.4462,-1,1
178,0.25971,1.4447,-1,1
179,0.26116,1.4439,-1,1
180,0.2626,1.4436,-1,1
181,0.26404,1.4431,-1,1
182,0.26547,1.4419,-1,1
183,0.26691,1.4403,-1,1
184,0.26834,1.439,-1,1
185,0.26978,1.4382,-1,1
186,0.27122,1.438,-1,1
187,0.27265,1.4375,-1,1
188,0.27407,1.4361,-1,1
189,0.2755,1.4346,-1,1
190,0.27694,1.4335,-1,1
191,0.27837,1.4328,-1,1
192,0.27979,1.432,-1,1
193,0.28122,1.4313,-1,1
194,0.28264,1.4299,-1,1
195,0.28407,1.4287,-1,1
196,0.2855,1.4279,-1,1
197,0.28692,1.4275,-1,1
198,0.28834,1.427,-1,1
199,0.28976,1.426,-1,1
200,0.29118,1.4247,-1,1
201,0.29261,1.4238,-1,1
202,0.29403,1.4235,-1,1
203,0.29545,1.4231,-1,1
204,0.29687,1.4225,-1,1
205,0.29828,1.4215,-1,1
206,0.2997,1.4202,-1,1
207,0.30112,1.4195,-1,1
208,0.30254,1.4191,-1,1
209,0.30395,1.4186,-1,1
210,0.30536,1.418,-1,1
211,0.30678,1.417,-1,1
212,0.30819,1.4161,-1,1
213,0.3096,1.4151,-1,1
214,0.31101,1.4142,-1,1
215,0.31241,1.4134,-1,1
216,0.31383,1.4128,-1,1
217,0.31524,1.4121,-1,1
218,0.31665,1.4112,-1,1
219,0.31805,1.4103,-1,1
220,0.31945,1.4091,-1,1
221,0.32086,1.408,-1,1
222,0.32226,1.4071,-1,1
223,0.32367,1.4066,-1,1
224,0.32507,1.4059,-1,1
225,0.32647,1.4049,-1,1
226,0.32786,1.4035,-1,1
227,0.32926,1.4019,-1,1
228,0.33066,1.4009,-1,1
229,0.33205,1.4002,-1,1
230,0.33345,1.3995,-1,1
231,0.33484,1.3984,-1,1
232,0.33623,1.397,-1,1
233,0.33762,1.3954,-1,1
234,0.33901,1.3945,-1,1
235,0.3404,1.3936,-1,1
236,0.34179,1.3925,-1,1
237,0.34317,1.3914,-1,1
238,0.34456,1.3902,-1,1
239,0.34594,1.3888,-1,1
240,0.34732,1.3876,-1,1
241,0.34871,1.3867,-1,1
242,0.35009,1.3857,-1,1
243,0.35147,1.3847,-1,1
244,0.35285,1.3835,-1,1
245,0.35422,1.3825,-1,1
246,0.3556,1.3816,-1,1
247,0.35697,1.3805,-1,1
248,0.35835,1.3791,-1,1
249,0.35972,1.3781,-1,1
250,0.3611,1.3772,-1,1
251,0.36247,1.3763,-1,1
252,0.36384,1.3754,-1,1
253,0.36521,1.3743,-1,1
254,0.36658,1.3731,-1,1
255,0.36794,1.372,-1,1
256,0.36931,1.371,-1,1
257,0.37067,1.37,-1,1
258,0.37204,1.3691,-1,1
259,0.3734,1.3681,-1,1
260,0.37476,1.3669,-1,1
261,0.37613,1.3659,-1,1
262,0.37749,1.3648,-1,1
263,0.37884,1.3636,-1,1
264,0.3802,1.3622,-1,1
265,0.38155,1.3609,-1,1
266,0.38291,1.36,-1,1
267,0.38427,1.3593,-1,1
268,0.38562,1.3582,-1,1
269,0.38697,1.3565,-1,1
270,0.38831,1.3548,-1,1
271,0.38966,1.3532,-1,1
272,0.39101,1.3524,-1,1
273,0.39236,1.3519,-1,1
274,0.39371,1.3512,-1,1
275,0.39505,1.3495,-1,1
276,0.39639,1.3474,-1,1
277,0.39772,1.3459,-1,1
278,0.39906,1.3452,-1,1
279,0.40041,1.3451,-1,1
280,0.40308,1.3438,-1,1
281,0.40441,1.3418,-1,1
282,0.40574,1.3393,-1,1
283,0.40707,1.3375,-1,1
284,0.40841,1.3364,-1,1
285,0.40974,1.3361,-1,1
286,0.41107,1.3349,-1,1
287,0.41238,1.3326,-1,1
288,0.41371,1.3302,-1,1
289,0.41503,1.3282,-1,1
290,0.41636,1.3278,-1,1
291,0.41768,1.3274,-1,1
292,0.419,1.3266,-1,1
293,0.42032,1.3246,-1,1
294,0.42163,1.3224,-1,1
295,0.42295,1.3205,-1,1
296,0.42427,1.32,-1,1
297,0.42558,1.3195,-1,1
298,0.42689,1.3185,-1,1
299,0.4282,1.3165,-1,1
300,0.42951,1.3144,-1,1
301,0.43081,1.3129,-1,1
302,0.43212,1.3119,-1,1
303,0.43343,1.3112,-1,1
304,0.43473,1.31,-1,1
305,0.43603,1.3083,-1,1
306,0.43733,1.3064,-1,1
307,0.43863,1.3046,-1,1
308,0.43992,1.3028,-1,1
309,0.44251,1.3011,-1,1
310,0.44379,1.2991,-1,1
311,0.44508,1.2969,-1,1
312,0.44636,1.2945,-1,1
313,0.44765,1.2924,-1,1
314,0.44893,1.2907,-1,1
315,0.45021,1.2888,-1,1
316,0.45149,1.2864,-1,1
317,0.45276,1.2843,-1,1
318,0.45531,1.2822,-1,1
319,0.45658,1.2804,-1,1
320,0.45785,1.2787,-1,1
321,0.45912,1.2767,-1,1
322,0.46038,1.2744,-1,1
323,0.46164,1.2724,-1,1
324,0.46291,1.27,-1,1
325,0.46417,1.268,-1,1
326,0.46542,1.2662,-1,1
327,0.46668,1.2642,-1,1
328,0.46793,1.2621,-1,1
329,0.46918,1.26,-1,1
330,0.47043,1.2578,-1,1
331,0.47167,1.2558,-1,1
332,0.47292,1.2539,-1,1
333,0.47416,1.2513,-1,1
334,0.47539,1.2491,-1,1
335,0.47663,1.2467,-1,1
336,0.47787,1.2442,-1,1
337,0.4791,1.2419,-1,1
338,0.48156,1.2396,-1,1
339,0.48279,1.2372,-1,1
340,0.48401,1.2348,-1,1
341,0.48523,1.2323,-1,1
342,0.48645,1.2302,-1,1
343,0.48767,1.2281,-1,1
344,0.48889,1.2258,-1,1
345,0.4901,1.2236,-1,1
346,0.49131,1.2211,-1,1
347,0.49252,1.2185,-1,1
348,0.49493,1.216,-1,1
349,0.49613,1.2136,-1,1
350,0.49733,1.211,-1,1
351,0.49852,1.2083,-1,1
352,0.49972,1.2054,-1,1
353,0.50091,1.2026,-1,1
354,0.5021,1.2,-1,1
355,0.50328,1.1973,-1,1
356,0.50447,1.1949,-1,1
357,0.50565,1.1922,-1,1
358,0.50682,1.1895,-1,1
359,0.508,1.187,-1,1
360,0.50918,1.1847,-1,1
361,0.51035,1.1825,-1,1
362,0.51152,1.1801,-1,1
363,0.51268,1.1775,-1,1
364,0.51385,1.1748,-1,1
365,0.515,1.172,-1,1
366,0.51616,1.1696,-1,1
367,0.51732,1.1676,-1,1
368,0.51848,1.1655,-1,1
369,0.51963,1.163,-1,1
370,0.52077,1.1598,-1,1
371,0.52192,1.1569,-1,1
372,0.52306,1.1543,-1,1
373,0.5242,1.1521,-1,1
374,0.52534,1.15,-1,1
375,0.52648,1.148,-1,1
376,0.52762,1.1453,-1,1
377,0.52874,1.1421,-1,1
378,0.52987,1.1389,-1,1
379,0.53099,1.1361,-1,1
380,0.53212,1.1345,-1,1
381,0.53324,1.1327,-1,1
382,0.53436,1.1304,-1,1
383,0.53547,1.1273,-1,1
384,0.53658,1.124,-1,1
385,0.53769,1.1208,-1,1
386,0.5388,1.1182,-1,1
387,0.53991,1.1163,-1,1
388,0.54101,1.1146,-1,1
389,0.54211,1.1122,-1,1
390,0.54321,1.1088,-1,1
391,0.54429,1.1053,-1,1
392,0.54539,1.1023,-1,1
393,0.54647,1.1001,-1,1
394,0.54756,1.0981,-1,1
395,0.54865,1.0958,-1,1
396,0.54973,1.093,-1,1
397,0.5508,1.0896,-1,1
398,0.55187,1.0863,-1,1
399,0.55295,1.0835,-1,1
400,0.55402,1.0811,-1,1
401,0.55508,1.0789,-1,1
402,0.55615,1.0765,-1,1
403,0.55721,1.0736,-1,1
404,0.55827,1.0703,-1,1
405,0.55932,1.0675,-1,1
406,0.56038,1.0651,-1,1
407,0.56143,1.0628,-1,1
408,0.56248,1.0603,-1,1
409,0.56352,1.0578,-1,1
410,0.56457,1.0552,-1,1
411,0.56561,1.0526,-1,1
412,0.56665,1.0498,-1,1
413,0.56768,1.0472,-1,1
414,0.56871,1.0448,-1,1
415,0.56975,1.0425,-1,1
416,0.57078,1.0402,-1,1
417,0.57181,1.038,-1,1
418,0.57283,1.0355,-1,1
419,0.57385,1.0328,-1,1
420,0.57487,1.0302,-1,1
421,0.57588,1.0272,-1,1
422,0.57689,1.0247,-1,1
423,0.57791,1.0229,-1,1
424,0.57893,1.0213,-1,1
425,0.57993,1.0188,-1,1
426,0.58094,1.016,-1,1
427,0.58193,1.0127,-1,1
428,0.58293,1.0099,-1,1
429,0.58393,1.0077,-1,1
430,0.58493,1.0062,-1,1
431,0.58593,1.0051,-1,1
432,0.58693,1.0033,-1,1
433,0.58791,1.0002,-1,1
434,0.58889,0.9967,-1,1
435,0.58987,0.9937,-1,1
436,0.59085,0.9916,-1,1
437,0.59184,0.9903,-1,1
438,0.59282,0.9894,-1,1
439,0.59381,0.9879,-1,1
440,0.59478,0.9852,-1,1
441,0.59575,0.9818,-1,1
442,0.59671,0.9788,-1,1
443,0.59768,0.977,-1,1
444,0.59865,0.976,-1,1
445,0.59962,0.9751,-1,1
446,0.60059,0.9734,-1,1
447,0.60155,0.9714,-1,1
448,0.60251,0.9688,-1,1
449,0.60347,0.9662,-1,1
450,0.60442,0.9641,-1,1
451,0.60538,0.9627,-1,1
452,0.60633,0.9616,-1,1
453,0.60728,0.96,-1,1
454,0.60824,0.9582,-1,1
455,0.60919,0.9564,-1,1
456,0.61013,0.9545,-1,1
457,0.61108,0.9528,-1,1
458,0.61202,0.951,-1,1
459,0.61296,0.9495,-1,1
460,0.6139,0.9477,-1,1
461,0.61484,0.9464,-1,1
462,0.61672,0.945,-1,1
463,0.61766,0.9438,-1,1
464,0.61859,0.942,-1,1
465,0.61953,0.9401,-1,1
466,0.62045,0.9381,-1,1
467,0.62138,0.9362,-1,1
468,0.62231,0.9347,-1,1
469,0.62324,0.9334,-1,1
470,0.62417,0.9328,-1,1
471,0.6251,0.9317,-1,1
472,0.62695,0.9302,-1,1
473,0.62787,0.9284,-1,1
474,0.62879,0.9266,-1,1
475,0.62971,0.9253,-1,1
476,0.63063,0.9247,-1,1
477,0.63063,0.9239,-1,1
478,0.63155,0.923,-1,1
479,0.63247,0.9221,-1,1
480,0.63339,0.921,-1,1
481,0.6343,0.9198,-1,1
482,0.63522,0.9188,-1,1
483,0.63705,0.9177,-1,1
484,0.63796,0.9171,-1,1
485,0.63887,0.9163,-1,1
486,0.63978,0.9155,-1,1
487,0.64069,0.9149,-1,1
488,0.64069,0.9142,-1,1
489,0.64161,0.9134,-1,1
490,0.64252,0.9124,-1,1
491,0.64342,0.9115,-1,1
492,0.64433,0.9108,-1,1
493,0.64524,0.9103,-1,1
494,0.64705,0.9097,-1,1
495,0.64795,0.9091,-1,1
496,0.64886,0.9084,-1,1
497,0.64977,0.9077,-1,1
498,0.64977,0.907,-1,1
499,0.65067,0.9063,-1,1
500,0.65157,0.9057,-1,1
501,0.65248,0.905,-1,1
502,0.65338,0.9044,-1,1
503,0.65428,0.9041,-1,1
504,0.65518,0.9038,-1,1
505,0.65608,0.9033,-1,1
506,0.65698,0.9028,-1,1
507,0.65789,0.9024,-1,1
508,0.65879,0.9022,-1,1
509,0.65969,0.9017,-1,1
510,0.66059,0.9013,-1,1
511,0.66148,0.9009,-1,1
512,0.66238,0.9004,-1,1
513,0.66328,0.9,-1,1
514,0.66418,0.8998,-1,1
515,0.66508,0.8998,-1,1
516,0.66598,0.8995,-1,1
517,0.66688,0.899,-1,1
518,0.66778,0.8986,-1,1
519,0.66868,0.8986,-1,1
520,0.66957,0.8985,-1,1
521,0.67047,0.8983,-1,1
522,0.67136,0.898,-1,1
523,0.67226,0.898,-1,1
524,0.67316,0.8982,-1,1
525,0.67406,0.8983,-1,1
526,0.67496,0.8983,-1,1
527,0.67586,0.8984,-1,1
528,0.67676,0.8983,-1,1
529,0.67766,0.8982,-1,1
530,0.67856,0.8982,-1,1
531,0.67946,0.8986,-1,1
532,0.68035,0.8992,-1,1
533,0.68126,0.8993,-1,1
534,0.68216,0.8994,-1,1
535,0.68306,0.8997,-1,1
536,0.68396,0.9002,-1,1
537,0.68487,0.9006,-1,1
538,0.68577,0.9008,-1,1
539,0.68667,0.9011,-1,1
540,0.68757,0.9016,-1,1
541,0.68848,0.9021,-1,1
542,0.68938,0.9027,-1,1
543,0.69029,0.9033,-1,1
544,0.69119,0.9035,-1,1
545,0.6921,0.9039,-1,1
546,0.69301,0.9045,-1,1
547,0.69392,0.905,-1,1
548,0.69482,0.9057,-1,1
549,0.69573,0.9063,-1,1
550,0.69664,0.9069,-1,1
551,0.69755,0.9074,-1,1
552,0.69846,0.9079,-1,1
553,0.69937,0.9086,-1,1
554,0.70029,0.9094,-1,1
555,0.7012,0.91,-1,1
556,0.70212,0.9106,-1,1
557,0.70303,0.9113,-1,1
558,0.70394,0.9118,-1,1
559,0.70486,0.9125,-1,1
560,0.70578,0.9133,-1,1
561,0.70669,0.9143,-1,1
562,0.70762,0.9152,-1,1
563,0.70853,0.9159,-1,1
564,0.70945,0.9163,-1,1
565,0.71037,0.9169,-1,1
566,0.71129,0.9176,-1,1
567,0.71222,0.9184,-1,1
568,0.71314,0.9195,-1,1
569,0.71406,0.9204,-1,1
570,0.71499,0.9212,-1,1
571,0.71591,0.9219,-1,1
572,0.71684,0.9225,-1,1
573,0.71777,0.9233,-1,1
574,0.7187,0.9243,-1,1
575,0.71963,0.9252,-1,1
576,0.72055,0.9259,-1,1
577,0.72149,0.9268,-1,1
578,0.72242,0.9275,-1,1
579,0.72335,0.9286,-1,1
580,0.72428,0.9295,-1,1
581,0.72522,0.9306,-1,1
582,0.72616,0.9316,-1,1
583,0.72709,0.9322,-1,1
584,0.72803,0.933,-1,1
585,0.72896,0.9339,-1,1
586,0.7299,0.9351,-1,1
587,0.73085,0.9363,-1,1
588,0.73179,0.9374,-1,1
589,0.73273,0.938,-1,1
590,0.73367,0.9388,-1,1
591,0.73462,0.9397,-1,1
592,0.73556,0.9408,-1,1
593,0.73651,0.9419,-1,1
594,0.73746,0.9433,-1,1
595,0.73841,0.9445,-1,1
596,0.73936,0.9455,-1,1
597,0.74031,0.9464,-1,1
598,0.74126,0.9476,-1,1
599,0.74222,0.9489,-1,1
600,0.74317,0.9502,-1,1
601,0.74413,0.9514,-1,1
602,0.74509,0.9525,-1,1
603,0.74605,0.954,-1,1
604,0.74701,0.955,-1,1
605,0.74797,0.9564,-1,1
606,0.74894,0.9577,-1,1
607,0.7499,0.9591,-1,1
608,0.75087,0.9601,-1,1
609,0.75183,0.9615,-1,1
610,0.7528,0.9628,-1,1
611,0.75378,0.9642,-1,1
612,0.75475,0.9655,-1,1
613,0.75572,0.9668,-1,1
614,0.75669,0.9681,-1,1
615,0.75767,0.9692,-1,1
616,0.75864,0.9704,-1,1
617,0.75962,0.9716,-1,1
618,0.7606,0.9733,-1,1
619,0.76256,0.9747,-1,1
620,0.76354,0.9762,-1,1
621,0.76453,0.9775,-1,1
622,0.76551,0.9788,-1,1
623,0.7665,0.9801,-1,1
624,0.76749,0.9816,-1,1
625,0.76848,0.9832,-1,1
626,0.76947,0.9848,-1,1
627,0.77046,0.9862,-1,1
628,0.77146,0.9878,-1,1
629,0.77245,0.989,-1,1
630,0.77345,0.9904,-1,1
631,0.77444,0.9918,-1,1
632,0.77645,0.9936,-1,1
633,0.77745,0.9953,-1,1
634,0.77745,0.997,-1,1
635,0.77845,0.9985,-1,1
636,0.77946,0.9999,-1,1
637,0.78046,1.0013,-1,1
638,0.78147,1.0025,-1,1
639,0.78248,1.004,-1,1
640,0.78349,1.005,-1,1
641,0.7845,1.0067,-1,1
642,0.78552,1.0082,-1,1
643,0.78755,1.0097,-1,1
644,0.78857,1.0111,-1,1
645,0.78857,1.0121,-1,1
646,0.78958,1.0131,-1,1
647,0.7906,1.0144,-1,1
648,0.79163,1.0158,-1,1
649,0.79265,1.0173,-1,1
650,0.79368,1.0191,-1,1
651,0.7947,1.0203,-1,1
652,0.79573,1.0216,-1,1
653,0.79676,1.0228,-1,1
654,0.79883,1.0242,-1,1
655,0.79986,1.0259,-1,1
656,0.79986,1.0278,-1,1
657,0.80089,1.0296,-1,1
658,0.80193,1.0311,-1,1
659,0.80297,1.0328,-1,1
660,0.80401,1.0344,-1,1
661,0.80505,1.0357,-1,1
662,0.80609,1.037,-1,1
663,0.80818,1.0384,-1,1
664,0.80923,1.0398,-1,1
665,0.81028,1.0414,-1,1
666,0.81133,1.0428,-1,1
667,0.81238,1.0441,-1,1
668,0.81343,1.0455,-1,1
669,0.81448,1.0465,-1,1
670,0.81553,1.0477,-1,1
671,0.81658,1.049,-1,1
672,0.81764,1.0504,-1,1
673,0.8187,1.0517,-1,1
674,0.81976,1.0528,-1,1
675,0.82081,1.0536,-1,1
676,0.82187,1.0545,-1,1
677,0.82293,1.0555,-1,1
678,0.824,1.0568,-1,1
679,0.82506,1.0581,-1,1
680,0.82612,1.0591,-1,1
681,0.82718,1.0597,-1,1
682,0.82825,1.0602,-1,1
683,0.82931,1.0611,-1,1
684,0.83038,1.0621,-1,1
685,0.83145,1.0634,-1,1
686,0.83252,1.0645,-1,1
687,0.83359,1.0654,-1,1
688,0.83465,1.0655,-1,1
689,0.83572,1.0656,-1,1
690,0.83679,1.0662,-1,1
691,0.83786,1.0673,-1,1
692,0.83893,1.0686,-1,1
693,0.84001,1.0694,-1,1
694,0.84108,1.0697,-1,1
695,0.84215,1.0697,-1,1
696,0.84322,1.0697,-1,1
697,0.84429,1.0701,-1,1
698,0.84536,1.0712,-1,1
699,0.84644,1.0724,-1,1
700,0.84752,1.073,-1,1
701,0.84859,1.0733,-1,1
702,0.84966,1.0729,-1,1
703,0.85073,1.0727,-1,1
704,0.85181,1.0735,-1,1
705,0.85289,1.0743,-1,1
706,0.85397,1.0751,-1,1
707,0.85504,1.0753,-1,1
708,0.85611,1.0751,-1,1
709,0.85719,1.0749,-1,1
710,0.85827,1.0752,-1,1
711,0.85934,1.0755,-1,1
712,0.86042,1.076,-1,1
713,0.8615,1.0764,-1,1
714,0.86257,1.0764,-1,1
715,0.86365,1.0762,-1,1
716,0.86473,1.0762,-1,1
717,0.8658,1.0764,-1,1
718,0.86688,1.0765,-1,1
719,0.86795,1.0764,-1,1
720,0.86903,1.076,-1,1
721,0.8701,1.0761,-1,1
722,0.87118,1.0764,-1,1
723,0.87226,1.0767,-1,1
724,0.87334,1.0764,-1,1
725,0.87441,1.0759,-1,1
726,0.87548,1.0754,-1,1
727,0.87656,1.0753,-1,1
728,0.87763,1.0754,-1,1
729,0.87871,1.0758,-1,1
730,0.87979,1.0761,-1,1
731,0.88086,1.0757,-1,1
732,0.88193,1.0749,-1,1
733,0.883,1.0741,-1,1
734,0.88407,1.0742,-1,1
735,0.88515,1.0747,-1,1
736,0.88622,1.0748,-1,1
737,0.8873,1.0741,-1,1
738,0.88944,1.0735,-1,1
739,0.89051,1.0727,-1,1
740,0.89158,1.0722,-1,1
741,0.89265,1.0719,-1,1
742,0.89372,1.0718,-1,1
743,0.89479,1.0718,-1,1
744,0.89586,1.0712,-1,1
745,0.89693,1.0702,-1,1
746,0.89799,1.0695,-1,1
747,0.89906,1.0691,-1,1
748,0.90013,1.0687,-1,1
749,0.90226,1.0684,-1,1
750,0.90333,1.0679,-1,1
751,0.90439,1.0672,-1,1
752,0.90546,1.0666,-1,1
753,0.90652,1.0656,-1,1
754,0.90758,1.065,-1,1
755,0.90864,1.0647,-1,1
756,0.90971,1.0647,-1,1
757,0.91077,1.0647,-1,1
758,0.91183,1.0641,-1,1
759,0.91396,1.0635,-1,1
760,0.91502,1.0627,-1,1
761,0.91607,1.0621,-1,1
762,0.91713,1.0617,-1,1
763,0.9182,1.0617,-1,1
764,0.91926,1.0615,-1,1
765,0.92032,1.061,-1,1
766,0.92137,1.06,-1,1
767,0.92243,1.0588,-1,1
768,0.92348,1.0582,-1,1
769,0.92453,1.0575,-1,1
770,0.92559,1.0574,-1,1
771,0.92665,1.0574,-1,1
772,0.9277,1.057,-1,1
773,0.92876,1.0561,-1,1
774,0.9298,1.0548,-1,1
775,0.93085,1.0537,-1,1
776,0.9319,1.0532,-1,1
777,0.93295,1.0531,-1,1
778,0.934,1.0528,-1,1
779,0.9361,1.0521,-1,1
780,0.93715,1.0507,-1,1
781,0.93819,1.0491,-1,1
782,0.93923,1.0478,-1,1
783,0.94027,1.047,-1,1
784,0.94132,1.0468,-1,1
785,0.94237,1.0468,-1,1
786,0.94341,1.0459,-1,1
787,0.94445,1.0445,-1,1
788,0.94548,1.043,-1,1
789,0.94652,1.042,-1,1
790,0.9486,1.0416,-1,1
791,0.94964,1.0413,-1,1
792,0.95068,1.0407,-1,1
793,0.95171,1.0396,-1,1
794,0.95274,1.0379,-1,1
795,0.95377,1.0361,-1,1
796,0.9548,1.035,-1,1
797,0.95583,1.0344,-1,1
798,0.95686,1.0341,-1,1
799,0.95789,1.0334,-1,1
800,0.95892,1.0322,-1,1
801,0.95995,1.0308,-1,1
802,0.96097,1.0294,-1,1
803,0.96199,1.0284,-1,1
804,0.96302,1.0277,-1,1
805,0.96404,1.0272,-1,1
806,0.96507,1.0265,-1,1
807,0.96609,1.0257,-1,1
808,0.96711,1.0246,-1,1
809,0.96813,1.0235,-1,1
810,0.96915,1.0224,-1,1
811,0.97016,1.0213,-1,1
812,0.97118,1.0206,-1,1
813,0.97219,1.02,-1,1
814,0.97321,1.0195,-1,1
815,0.97423,1.0189,-1,1
816,0.97525,1.0184,-1,1
817,0.97626,1.0172,-1,1
818,0.97727,1.0157,-1,1
819,0.97828,1.0145,-1,1
820,0.97928,1.0137,-1,1
821,0.9803,1.0134,-1,1
822,0.98131,1.0133,-1,1
823,0.98232,1.0128,-1,1
824,0.98333,1.0119,-1,1
825,0.98434,1.0108,-1,1
826,0.98534,1.009,-1,1
827,0.98634,1.0078,-1,1
828,0.98734,1.0072,-1,1
829,0.98834,1.007,-1,1
830,0.98935,1.0069,-1,1
831,0.99036,1.0064,-1,1
832,0.99136,1.005,-1,1
833,0.99236,1.0035,-1,1
834,0.99335,1.0019,-1,1
835,0.99435,1.0008,-1,1
836,0.99534,1.0004,-1,1
837,0.99634,1.0004,-1,1
838,0.99734,1.0004,-1,1
