cnt,pos,speed,Dir,Force,
1,0,1.7783,-1,2
2,0.00176001,1.7763,-1,2
3,0.00353003,1.7742,-1,2
4,0.00529003,1.7724,-1,2
5,0.00706005,1.7705,-1,2
6,0.00880003,1.7673,-1,2
7,0.01053,1.7619,-1,2
8,0.0122399,1.7558,-1,2
9,0.0139601,1.7502,-1,2
10,0.0156901,1.7458,-1,2
11,0.0174201,1.7417,-1,2
12,0.01913,1.7363,-1,2
13,0.0208199,1.729,-1,2
14,0.02249,1.7199,-1,2
15,0.0241599,1.7103,-1,2
16,0.02583,1.7022,-1,2
17,0.0274899,1.6963,-1,2
18,0.02915,1.6905,-1,2
19,0.0307901,1.683,-1,2
20,0.0324199,1.6729,-1,2
21,0.03403,1.6612,-1,2
22,0.03563,1.6505,-1,2
23,0.03724,1.6422,-1,2
24,0.0388501,1.6352,-1,2
25,0.0404301,1.6275,-1,2
26,0.0420001,1.6176,-1,2
27,0.04356,1.6066,-1,2
28,0.04511,1.5966,-1,2
29,0.04667,1.5883,-1,2
30,0.0482199,1.5808,-1,2
31,0.0497501,1.5728,-1,2
32,0.05127,1.5633,-1,2
33,0.0527699,1.5529,-1,2
34,0.05428,1.5432,-1,2
35,0.0557799,1.535,-1,2
36,0.0572801,1.5277,-1,2
37,0.0587499,1.5192,-1,2
38,0.06021,1.5095,-1,2
39,0.0616701,1.4993,-1,2
40,0.0631199,1.49,-1,2
41,0.06457,1.482,-1,2
42,0.06601,1.4745,-1,2
43,0.06743,1.4657,-1,2
44,0.06883,1.4557,-1,2
45,0.07024,1.4458,-1,2
46,0.07165,1.4368,-1,2
47,0.07304,1.4293,-1,2
48,0.07442,1.4213,-1,2
49,0.0757799,1.412,-1,2
50,0.0771401,1.4021,-1,2
51,0.0785,1.3927,-1,2
52,0.07985,1.3843,-1,2
53,0.0811901,1.3766,-1,2
54,0.08251,1.3681,-1,2
55,0.0838301,1.3586,-1,2
56,0.08514,1.3493,-1,2
57,0.0864401,1.3402,-1,2
58,0.0877399,1.3321,-1,2
59,0.08903,1.3244,-1,2
60,0.0902901,1.3152,-1,2
61,0.0915501,1.3055,-1,2
62,0.0928099,1.2962,-1,2
63,0.09407,1.288,-1,2
64,0.09532,1.2803,-1,2
65,0.09655,1.2721,-1,2
66,0.09776,1.2627,-1,2
67,0.0989699,1.2531,-1,2
68,0.10018,1.2437,-1,2
69,0.10138,1.2353,-1,2
70,0.10258,1.2281,-1,2
71,0.10376,1.2201,-1,2
72,0.10492,1.2108,-1,2
73,0.10608,1.2008,-1,2
74,0.10723,1.1918,-1,2
75,0.10838,1.1834,-1,2
76,0.10952,1.1756,-1,2
77,0.11065,1.1676,-1,2
78,0.11177,1.159,-1,2
79,0.11288,1.1498,-1,2
80,0.11398,1.1406,-1,2
81,0.11508,1.1321,-1,2
82,0.11616,1.1241,-1,2
83,0.11724,1.1162,-1,2
84,0.11831,1.1075,-1,2
85,0.11937,1.0989,-1,2
86,0.12043,1.0904,-1,2
87,0.12147,1.0821,-1,2
88,0.1225,1.0736,-1,2
89,0.12353,1.0648,-1,2
90,0.12454,1.0561,-1,2
91,0.12555,1.0477,-1,2
92,0.12656,1.0396,-1,2
93,0.12755,1.031,-1,2
94,0.12853,1.0224,-1,2
95,0.12951,1.0136,-1,2
96,0.13047,1.005,-1,2
97,0.13143,0.9964,-1,2
98,0.13239,0.9881,-1,2
99,0.13332,0.9797,-1,2
100,0.13426,0.9715,-1,2
101,0.13518,0.9629,-1,2
102,0.1361,0.9541,-1,2
103,0.13701,0.9455,-1,2
104,0.1379,0.937,-1,2
105,0.13879,0.9286,-1,2
106,0.13967,0.92,-1,2
107,0.14055,0.9116,-1,2
108,0.14141,0.9029,-1,2
109,0.14227,0.8945,-1,2
110,0.14312,0.8859,-1,2
111,0.14396,0.8774,-1,2
112,0.14479,0.869,-1,2
113,0.14561,0.8606,-1,2
114,0.14642,0.8519,-1,2
115,0.14722,0.8432,-1,2
116,0.14802,0.8347,-1,2
117,0.14881,0.8263,-1,2
118,0.14959,0.8181,-1,2
119,0.15036,0.8097,-1,2
120,0.15112,0.8008,-1,2
121,0.15187,0.7918,-1,2
122,0.15262,0.7831,-1,2
123,0.15336,0.774,-1,2
124,0.15409,0.7661,-1,2
125,0.15481,0.7565,-1,2
126,0.15552,0.7474,-1,2
127,0.15622,0.7381,-1,2
128,0.15692,0.7298,-1,2
129,0.15761,0.721,-1,2
130,0.15896,0.712,-1,2
131,0.15896,0.7028,-1,2
132,0.15962,0.6939,-1,2
133,0.16027,0.6859,-1,2
134,0.16091,0.6774,-1,2
135,0.16156,0.6711,-1,2
136,0.16219,0.6639,-1,2
137,0.16281,0.6559,-1,2
138,0.16402,0.6461,-1,2
139,0.16462,0.6374,-1,2
140,0.16521,0.6298,-1,2
141,0.16579,0.6224,-1,2
142,0.16636,0.6138,-1,2
143,0.16693,0.6049,-1,2
144,0.16748,0.5955,-1,2
145,0.16802,0.5858,-1,2
146,0.16856,0.5764,-1,2
147,0.1691,0.5678,-1,2
148,0.16962,0.5599,-1,2
149,0.17013,0.5515,-1,2
150,0.17064,0.5428,-1,2
151,0.17113,0.5341,-1,2
152,0.17162,0.526,-1,2
153,0.17211,0.5181,-1,2
154,0.17258,0.5102,-1,2
155,0.17304,0.502,-1,2
156,0.1735,0.4936,-1,2
157,0.17395,0.4849,-1,2
158,0.17439,0.4766,-1,2
159,0.17482,0.4686,-1,2
160,0.17524,0.4604,-1,2
161,0.17565,0.4521,-1,2
162,0.17606,0.4436,-1,2
163,0.17646,0.4351,-1,2
164,0.17685,0.4268,-1,2
165,0.17723,0.4185,-1,2
166,0.1776,0.4102,-1,2
167,0.17797,0.4021,-1,2
168,0.17833,0.393,-1,2
169,0.17867,0.3846,-1,2
170,0.17902,0.3755,-1,2
171,0.17935,0.3673,-1,2
172,0.17999,0.3584,-1,2
173,0.1803,0.3494,-1,2
174,0.1806,0.3404,-1,2
175,0.18089,0.3315,-1,2
176,0.18117,0.3226,-1,2
177,0.18145,0.3137,-1,2
178,0.18172,0.3058,-1,2
179,0.18198,0.297,-1,2
180,0.18223,0.2889,-1,2
181,0.18247,0.2799,-1,2
182,0.1827,0.2716,-1,2
183,0.18293,0.2635,-1,2
184,0.18315,0.2554,-1,2
185,0.18336,0.2473,-1,2
186,0.18356,0.2392,-1,2
187,0.18376,0.231,-1,2
188,0.18394,0.2227,-1,2
189,0.18412,0.2144,-1,2
190,0.18429,0.2063,-1,2
191,0.18445,0.1982,-1,2
192,0.1846,0.1902,-1,2
193,0.18475,0.182,-1,2
194,0.18489,0.1738,-1,2
195,0.18501,0.1656,-1,2
196,0.18514,0.1575,-1,2
197,0.18525,0.1494,-1,2
198,0.18536,0.1413,-1,2
199,0.18545,0.1333,-1,2
200,0.18554,0.1254,-1,2
201,0.18563,0.1175,-1,2
202,0.1857,0.1096,-1,2
203,0.18577,0.1017,-1,2
204,0.18583,0.0939,-1,2
205,0.18588,0.0861,-1,2
206,0.18592,0.0782,-1,2
207,0.18596,0.0705,-1,2
208,0.18598,0.0628,-1,2
209,0.186,0.0551,-1,2
210,0.18602,0.0472,-1,2
211,0.18602,0.0395,-1,2
212,0.18602,0.0317,-1,2
213,0.18601,0.0241,-1,2
214,0.18599,0.0165,-1,2
215,0.18597,0.009,-1,2
216,0.18594,0,-1,2
217,0.1859,0,-1,2
218,0.18586,-0.0127,-1,2
219,0.18581,-0.0197,-1,2
220,0.18575,-0.0266,-1,2
221,0.18569,-0.0334,-1,2
222,0.18562,-0.04,-1,2
223,0.18554,-0.0465,-1,2
224,0.18546,-0.0529,-1,2
225,0.18538,-0.0591,-1,2
226,0.18528,-0.0655,-1,2
227,0.18518,-0.0718,-1,2
228,0.18508,-0.0781,-1,2
229,0.18497,-0.0842,-1,2
230,0.18485,-0.0903,-1,2
231,0.18472,-0.0964,-1,2
232,0.18459,-0.1025,-1,2
233,0.18446,-0.1086,-1,2
234,0.18431,-0.1148,-1,2
235,0.18417,-0.121,-1,2
236,0.18401,-0.127,-1,2
237,0.18385,-0.1331,-1,2
238,0.18368,-0.1392,-1,2
239,0.18351,-0.1454,-1,2
240,0.18333,-0.1516,-1,2
241,0.18315,-0.1577,-1,2
242,0.18295,-0.1639,-1,2
243,0.18275,-0.1701,-1,2
244,0.18255,-0.1762,-1,2
245,0.18234,-0.1823,-1,2
246,0.18212,-0.1886,-1,2
247,0.1819,-0.1947,-1,2
248,0.18167,-0.2008,-1,2
249,0.18144,-0.207,-1,2
250,0.1812,-0.213,-1,2
251,0.18095,-0.2191,-1,2
252,0.1807,-0.2251,-1,2
253,0.18044,-0.2311,-1,2
254,0.18018,-0.2369,-1,2
255,0.17991,-0.243,-1,2
256,0.17964,-0.2488,-1,2
257,0.17936,-0.2548,-1,2
258,0.17907,-0.2606,-1,2
259,0.17878,-0.2664,-1,2
260,0.17848,-0.2721,-1,2
261,0.17818,-0.278,-1,2
262,0.17786,-0.2839,-1,2
263,0.17755,-0.2897,-1,2
264,0.17723,-0.2956,-1,2
265,0.1769,-0.3012,-1,2
266,0.17657,-0.307,-1,2
267,0.17623,-0.3127,-1,2
268,0.17589,-0.3186,-1,2
269,0.17554,-0.3244,-1,2
270,0.17518,-0.3301,-1,2
271,0.17482,-0.3358,-1,2
272,0.17445,-0.3416,-1,2
273,0.17408,-0.3473,-1,2
274,0.1737,-0.3533,-1,2
275,0.17331,-0.3592,-1,2
276,0.17292,-0.365,-1,2
277,0.17252,-0.3708,-1,2
278,0.17212,-0.3765,-1,2
279,0.17171,-0.3823,-1,2
280,0.1713,-0.3882,-1,2
281,0.17088,-0.3946,-1,2
282,0.17045,-0.4009,-1,2
283,0.17002,-0.4071,-1,2
284,0.16914,-0.4131,-1,2
285,0.16869,-0.4194,-1,2
286,0.16824,-0.4256,-1,2
287,0.16778,-0.4318,-1,2
288,0.16732,-0.4379,-1,2
289,0.16685,-0.4438,-1,2
290,0.16638,-0.45,-1,2
291,0.1659,-0.4555,-1,2
292,0.16541,-0.461,-1,2
293,0.16492,-0.4666,-1,2
294,0.16442,-0.4722,-1,2
295,0.16392,-0.4777,-1,2
296,0.16341,-0.4832,-1,2
297,0.1629,-0.4885,-1,2
298,0.16238,-0.4941,-1,2
299,0.16186,-0.4996,-1,2
300,0.16133,-0.5049,-1,2
301,0.16079,-0.5102,-1,2
302,0.16025,-0.5155,-1,2
303,0.15971,-0.5209,-1,2
304,0.15916,-0.5267,-1,2
305,0.15804,-0.5324,-1,2
306,0.15748,-0.538,-1,2
307,0.15691,-0.5438,-1,2
308,0.15633,-0.5496,-1,2
309,0.15575,-0.5555,-1,2
310,0.15517,-0.5613,-1,2
311,0.15457,-0.5669,-1,2
312,0.15398,-0.5722,-1,2
313,0.15338,-0.5775,-1,2
314,0.15278,-0.5823,-1,2
315,0.15217,-0.5873,-1,2
316,0.15156,-0.5923,-1,2
317,0.15094,-0.5972,-1,2
318,0.15031,-0.6019,-1,2
319,0.14968,-0.6066,-1,2
320,0.14905,-0.6113,-1,2
321,0.14841,-0.6161,-1,2
322,0.14777,-0.6209,-1,2
323,0.14713,-0.6258,-1,2
324,0.14647,-0.6307,-1,2
325,0.14582,-0.6353,-1,2
326,0.14516,-0.6398,-1,2
327,0.1445,-0.6439,-1,2
328,0.14383,-0.6481,-1,2
329,0.14316,-0.6522,-1,2
330,0.14248,-0.6567,-1,2
331,0.1418,-0.6611,-1,2
332,0.14111,-0.6657,-1,2
333,0.14042,-0.67,-1,2
334,0.13973,-0.6747,-1,2
335,0.13832,-0.6797,-1,2
336,0.13761,-0.6849,-1,2
337,0.1369,-0.6906,-1,2
338,0.13617,-0.696,-1,2
339,0.13545,-0.7015,-1,2
340,0.13472,-0.7068,-1,2
341,0.13398,-0.7121,-1,2
342,0.13324,-0.7178,-1,2
343,0.13249,-0.7239,-1,2
344,0.13173,-0.7294,-1,2
345,0.13098,-0.7345,-1,2
346,0.13022,-0.7396,-1,2
347,0.12945,-0.7445,-1,2
348,0.12868,-0.7498,-1,2
349,0.1279,-0.7553,-1,2
350,0.12711,-0.7608,-1,2
351,0.12632,-0.7663,-1,2
352,0.12553,-0.7712,-1,2
353,0.12473,-0.7758,-1,2
354,0.12393,-0.7807,-1,2
355,0.12312,-0.7858,-1,2
356,0.12231,-0.7908,-1,2
357,0.12149,-0.7956,-1,2
358,0.12067,-0.8002,-1,2
359,0.11985,-0.8045,-1,2
360,0.11902,-0.8088,-1,2
361,0.11818,-0.8135,-1,2
362,0.1165,-0.8188,-1,2
363,0.11565,-0.8238,-1,2
364,0.1148,-0.8285,-1,2
365,0.11394,-0.8331,-1,2
366,0.11308,-0.838,-1,2
367,0.11222,-0.843,-1,2
368,0.11135,-0.8479,-1,2
369,0.11048,-0.8527,-1,2
370,0.10961,-0.8573,-1,2
371,0.10872,-0.8619,-1,2
372,0.10784,-0.8661,-1,2
373,0.10694,-0.8705,-1,2
374,0.10605,-0.8746,-1,2
375,0.10516,-0.8785,-1,2
376,0.10426,-0.8822,-1,2
377,0.10336,-0.8863,-1,2
378,0.10245,-0.8906,-1,2
379,0.10153,-0.8948,-1,2
380,0.10062,-0.8985,-1,2
381,0.0997,-0.9021,-1,2
382,0.0987799,-0.9057,-1,2
383,0.0978601,-0.9087,-1,2
384,0.09693,-0.9121,-1,2
385,0.09601,-0.915,-1,2
386,0.0950899,-0.9171,-1,2
387,0.0941701,-0.9187,-1,2
388,0.09325,-0.9195,-1,2
389,0.09234,-0.9195,-1,2
390,0.0914299,-0.9191,-1,2
391,0.0905299,-0.9172,-1,2
392,0.0896399,-0.9141,-1,2
393,0.0887501,-0.9111,-1,2
394,0.0878601,-0.9076,-1,2
395,0.0869701,-0.904,-1,2
396,0.0860901,-0.9001,-1,2
397,0.0852101,-0.8957,-1,2
398,0.0843401,-0.8915,-1,2
399,0.0834601,-0.8877,-1,2
400,0.0825901,-0.8837,-1,2
401,0.0817299,-0.8796,-1,2
402,0.0808799,-0.8756,-1,2
403,0.08003,-0.8717,-1,2
404,0.07918,-0.8675,-1,2
405,0.0783401,-0.8629,-1,2
406,0.0775101,-0.858,-1,2
407,0.07669,-0.8527,-1,2
408,0.07587,-0.8467,-1,2
409,0.0750599,-0.8402,-1,2
410,0.07426,-0.8335,-1,2
411,0.0734701,-0.8265,-1,2
412,0.07268,-0.8196,-1,2
413,0.0718999,-0.8125,-1,2
414,0.07112,-0.8058,-1,2
415,0.0703499,-0.7996,-1,2
416,0.0695701,-0.7939,-1,2
417,0.0688,-0.7886,-1,2
418,0.0680301,-0.7836,-1,2
419,0.06727,-0.7793,-1,2
420,0.0664999,-0.7757,-1,2
421,0.0657401,-0.7729,-1,2
422,0.06498,-0.7704,-1,2
423,0.06422,-0.7679,-1,2
424,0.0634699,-0.7651,-1,2
425,0.0627201,-0.762,-1,2
426,0.06198,-0.7591,-1,2
427,0.06124,-0.756,-1,2
428,0.0605099,-0.7525,-1,2
429,0.0597801,-0.7482,-1,2
430,0.0590701,-0.7434,-1,2
431,0.0583501,-0.7386,-1,2
432,0.0576401,-0.7338,-1,2
433,0.0569301,-0.729,-1,2
434,0.0562301,-0.7242,-1,2
435,0.0555301,-0.7194,-1,2
436,0.0548301,-0.7145,-1,2
437,0.0541401,-0.7101,-1,2
438,0.0534401,-0.7066,-1,2
439,0.0527501,-0.7037,-1,2
440,0.0520501,-0.7013,-1,2
441,0.0513599,-0.6992,-1,2
442,0.0506699,-0.6971,-1,2
443,0.0499799,-0.695,-1,2
444,0.0493,-0.6928,-1,2
445,0.04862,-0.6909,-1,2
446,0.04795,-0.6888,-1,2
447,0.0472801,-0.6862,-1,2
448,0.0466101,-0.6829,-1,2
449,0.0459499,-0.6792,-1,2
450,0.0453,-0.6754,-1,2
451,0.0446501,-0.6712,-1,2
452,0.0439999,-0.667,-1,2
453,0.04335,-0.6633,-1,2
454,0.0427001,-0.6598,-1,2
455,0.0420599,-0.6562,-1,2
456,0.04142,-0.653,-1,2
457,0.0407801,-0.65,-1,2
458,0.0401399,-0.6474,-1,2
459,0.0395,-0.6455,-1,2
460,0.0388601,-0.6437,-1,2
461,0.0382299,-0.6419,-1,2
462,0.0376,-0.6402,-1,2
463,0.0369699,-0.6381,-1,2
464,0.03634,-0.636,-1,2
465,0.0357201,-0.634,-1,2
466,0.0351,-0.6318,-1,2
467,0.0344801,-0.6293,-1,2
468,0.03387,-0.6264,-1,2
469,0.0332701,-0.6228,-1,2
470,0.03267,-0.6189,-1,2
471,0.0320799,-0.6151,-1,2
472,0.0314901,-0.6111,-1,2
473,0.0309,-0.6071,-1,2
474,0.0303099,-0.6032,-1,2
475,0.0297301,-0.5992,-1,2
476,0.02915,-0.5954,-1,2
477,0.0285599,-0.592,-1,2
478,0.0279801,-0.5892,-1,2
479,0.0274,-0.5869,-1,2
480,0.02683,-0.5848,-1,2
481,0.0262501,-0.5829,-1,2
482,0.0256801,-0.581,-1,2
483,0.02511,-0.579,-1,2
484,0.0245399,-0.5769,-1,2
485,0.0234201,-0.5748,-1,2
486,0.0234201,-0.5722,-1,2
487,0.02231,-0.5693,-1,2
488,0.02176,-0.5659,-1,2
489,0.02122,-0.5622,-1,2
490,0.02068,-0.5586,-1,2
491,0.0201299,-0.5552,-1,2
492,0.0195899,-0.552,-1,2
493,0.0190599,-0.5489,-1,2
494,0.0185201,-0.5458,-1,2
495,0.0179801,-0.543,-1,2
496,0.0174501,-0.5407,-1,2
497,0.0169201,-0.5388,-1,2
498,0.0163901,-0.5372,-1,2
499,0.0158601,-0.5358,-1,2
500,0.0153301,-0.5346,-1,2
501,0.0148001,-0.5332,-1,2
502,0.0142701,-0.5318,-1,2
503,0.0137501,-0.5302,-1,2
504,0.0132301,-0.5285,-1,2
505,0.0127201,-0.5268,-1,2
506,0.0122001,-0.525,-1,2
507,0.0116899,-0.5229,-1,2
508,0.0111799,-0.5203,-1,2
509,0.0106699,-0.5174,-1,2
510,0.01017,-0.5145,-1,2
511,0.00919008,-0.5111,-1,2
512,0.00869012,-0.5078,-1,2
513,0.00819993,-0.5047,-1,2
514,0.00819993,-0.5017,-1,2
515,0.00722003,-0.4987,-1,2
516,0.00674009,-0.4959,-1,2
517,0.0062499,-0.4936,-1,2
518,0.00575995,-0.492,-1,2
519,0.00527,-0.4908,-1,2
520,0.00478005,-0.4895,-1,2
521,0.00430012,-0.4889,-1,2
522,0.00380993,-0.4882,-1,2
523,0.00332999,-0.4877,-1,2
524,0.00284004,-0.4873,-1,2
525,0.00236011,-0.4869,-1,2
526,0.00186992,-0.4864,-1,2
527,0.00138998,-0.4856,-1,2
528,0.000910044,-0.4845,-1,2
529,0.000440121,-0.4834,-1,2
530,-4.00543e-05,-0.4822,-1,2
531,-0.000509977,-0.4807,-1,2
532,-0.0009799,-0.479,-1,2
533,-0.00145006,-0.4773,-1,2
534,-0.00190997,-0.4754,-1,2
535,-0.00237989,-0.4736,-1,2
536,-0.00285006,-0.4722,-1,2
537,-0.00331998,-0.471,-1,2
538,-0.0037899,-0.4702,-1,2
539,-0.00426006,-0.4695,-1,2
540,-0.00472999,-0.4689,-1,2
541,-0.00519991,-0.4687,-1,2
542,-0.00567007,-0.4688,-1,2
543,-0.00613999,-0.4689,-1,2
544,-0.0065999,-0.4691,-1,2
545,-0.00707006,-0.4692,-1,2
546,-0.00753999,-0.4691,-1,2
547,-0.00800991,-0.469,-1,2
548,-0.00848007,-0.4688,-1,2
549,-0.00893998,-0.4687,-1,2
550,-0.0094099,-0.4686,-1,2
551,-0.00988007,-0.4683,-1,2
552,-0.01035,-0.468,-1,2
553,-0.0108099,-0.4676,-1,2
554,-0.0112801,-0.4672,-1,2
555,-0.01174,-0.4669,-1,2
556,-0.0122099,-0.4665,-1,2
557,-0.01267,-0.466,-1,2
558,-0.0131299,-0.4656,-1,2
559,-0.0136001,-0.4653,-1,2
560,-0.01406,-0.465,-1,2
561,-0.0145299,-0.4649,-1,2
562,-0.0150001,-0.4653,-1,2
563,-0.01547,-0.4658,-1,2
564,-0.01594,-0.4666,-1,2
565,-0.0164101,-0.4674,-1,2
566,-0.01689,-0.4684,-1,2
567,-0.01736,-0.4696,-1,2
568,-0.0178399,-0.471,-1,2
569,-0.0183201,-0.4724,-1,2
570,-0.0188,-0.474,-1,2
571,-0.01929,-0.4757,-1,2
572,-0.0197699,-0.477,-1,0
573,-0.0202601,-0.4786,-1,0
574,-0.02074,-0.4801,-1,0
575,-0.02123,-0.4813,-1,0
576,-0.0216899,-0.4802,-1,0
577,-0.02214,-0.478,-1,0
578,-0.0225899,-0.475,-1,0
579,-0.0230401,-0.4715,-1,0
580,-0.0234799,-0.4678,-1,0
581,-0.0239201,-0.464,-1,0
582,-0.02438,-0.4608,-1,0
583,-0.0248301,-0.4577,-1,0
584,-0.02529,-0.4545,-1,0
585,-0.0257399,-0.4514,-1,0
586,-0.02619,-0.4497,-1,0
587,-0.0266299,-0.4487,-1,0
588,-0.02707,-0.4476,-1,0
589,-0.0274999,-0.4462,-1,0
590,-0.02792,-0.4445,-1,0
591,-0.0283401,-0.442,-1,0
592,-0.02876,-0.4384,-1,0
593,-0.02917,-0.4337,-1,0
594,-0.0295799,-0.4289,-1,0
595,-0.0299799,-0.4238,-1,0
596,-0.03038,-0.4192,-1,0
597,-0.0307701,-0.4145,-1,0
598,-0.0311699,-0.4101,-1,0
599,-0.0315599,-0.4061,-1,0
600,-0.03194,-0.4021,-1,0
601,-0.03233,-0.3987,-1,0
602,-0.0327101,-0.3954,-1,0
603,-0.0330999,-0.3928,-1,0
604,-0.0334799,-0.3907,-1,0
605,-0.03387,-0.389,-1,0
606,-0.03425,-0.3877,-1,0
607,-0.0346401,-0.3866,-1,0
608,-0.0350201,-0.3856,-1,0
609,-0.0353999,-0.3844,-1,0
610,-0.03578,-0.3832,-1,0
611,-0.03615,-0.3819,-1,0
612,-0.03652,-0.3806,-1,0
613,-0.03688,-0.3787,-1,0
614,-0.03725,-0.3764,-1,0
615,-0.0376,-0.3738,-1,0
616,-0.0379601,-0.3706,-1,0
617,-0.0383101,-0.3675,-1,0
618,-0.0386701,-0.3644,-1,0
619,-0.0390201,-0.3617,-1,0
620,-0.0393701,-0.3593,-1,0
621,-0.0397201,-0.3572,-1,0
622,-0.0400701,-0.3553,-1,0
623,-0.0404201,-0.3539,-1,0
624,-0.0407701,-0.3523,-1,0
625,-0.0411201,-0.351,-1,0
626,-0.04146,-0.3499,-1,0
627,-0.0418,-0.3485,-1,0
628,-0.04214,-0.347,-1,0
629,-0.04247,-0.3455,-1,0
630,-0.04281,-0.3439,-1,0
631,-0.0431399,-0.3421,-1,0
632,-0.0434699,-0.3401,-1,0
633,-0.0438099,-0.3383,-1,0
634,-0.0441401,-0.3367,-1,0
635,-0.0444601,-0.3349,-1,0
636,-0.04479,-0.3332,-1,0
637,-0.04511,-0.3315,-1,0
638,-0.04544,-0.33,-1,0
639,-0.0457599,-0.3282,-1,0
640,-0.0460701,-0.3264,-1,0
641,-0.0463901,-0.3245,-1,0
642,-0.0467,-0.3227,-1,0
643,-0.0470099,-0.3208,-1,0
644,-0.0473199,-0.3187,-1,0
645,-0.0476401,-0.317,-1,0
646,-0.04794,-0.3152,-1,0
647,-0.04825,-0.3138,-1,0
648,-0.0485599,-0.3124,-1,0
649,-0.0488701,-0.3112,-1,0
650,-0.04917,-0.31,-1,0
651,-0.04948,-0.3088,-1,0
652,-0.0497799,-0.3077,-1,0
653,-0.0500801,-0.3063,-1,0
654,-0.05038,-0.3052,-1,0
655,-0.0506699,-0.3036,-1,0
656,-0.05126,-0.302,-1,0
657,-0.05126,-0.3005,-1,0
658,-0.0518401,-0.2989,-1,0
659,-0.05214,-0.2973,-1,0
660,-0.0524299,-0.2957,-1,0
661,-0.0527101,-0.2942,-1,0
662,-0.053,-0.2926,-1,0
663,-0.0532799,-0.2911,-1,0
664,-0.05357,-0.2895,-1,0
665,-0.0538499,-0.2881,-1,0
666,-0.0541301,-0.2868,-1,0
667,-0.05441,-0.2852,-1,0
668,-0.0546801,-0.2837,-1,0
669,-0.05496,-0.2821,-1,0
670,-0.0552299,-0.2805,-1,0
671,-0.0555,-0.2788,-1,0
672,-0.0557699,-0.2772,-1,0
673,-0.05604,-0.2756,-1,0
674,-0.0563099,-0.2741,-1,0
675,-0.0565701,-0.2726,-1,0
676,-0.0568399,-0.2712,-1,0
677,-0.0571101,-0.2699,-1,0
678,-0.0573699,-0.2685,-1,0
679,-0.0576301,-0.2672,-1,0
680,-0.0578899,-0.2659,-1,0
681,-0.0581501,-0.2644,-1,0
682,-0.05866,-0.2629,-1,0
683,-0.05866,-0.2613,-1,0
684,-0.05917,-0.2598,-1,0
685,-0.05917,-0.2583,-1,0
686,-0.05967,-0.2568,-1,0
687,-0.05967,-0.2553,-1,0
688,-0.0599201,-0.2539,-1,0
689,-0.0601699,-0.2524,-1,0
690,-0.0606599,-0.2509,-1,0
691,-0.0609,-0.2496,-1,0
692,-0.0611401,-0.2482,-1,0
693,-0.0611401,-0.247,-1,0
694,-0.0613799,-0.2457,-1,0
695,-0.06162,-0.2444,-1,0
696,-0.0618601,-0.243,-1,0
697,-0.0620899,-0.2416,-1,0
698,-0.06233,-0.2402,-1,0
699,-0.0625601,-0.239,-1,0
700,-0.0627999,-0.2378,-1,0
701,-0.06303,-0.2367,-1,0
702,-0.0632601,-0.2355,-1,0
703,-0.0634899,-0.2343,-1,0
704,-0.06371,-0.233,-1,0
705,-0.06394,-0.2317,-1,0
706,-0.0641601,-0.2306,-1,0
707,-0.0643899,-0.2294,-1,0
708,-0.06461,-0.2282,-1,0
709,-0.0648301,-0.2269,-1,0
710,-0.0650499,-0.2256,-1,0
711,-0.0652699,-0.2243,-1,0
712,-0.06549,-0.2231,-1,0
713,-0.0657001,-0.2219,-1,0
714,-0.0659199,-0.2207,-1,0
715,-0.0661299,-0.2195,-1,0
716,-0.06634,-0.2182,-1,0
717,-0.06655,-0.2168,-1,0
718,-0.0667601,-0.2154,-1,0
719,-0.0669701,-0.2139,-1,0
720,-0.0671799,-0.2126,-1,0
721,-0.06738,-0.2112,-1,0
722,-0.06759,-0.21,-1,0
723,-0.06779,-0.2086,-1,0
724,-0.0679901,-0.2074,-1,0
725,-0.0681901,-0.206,-1,0
726,-0.0683899,-0.2045,-1,0
727,-0.0685899,-0.2033,-1,0
728,-0.06879,-0.2021,-1,0
729,-0.06898,-0.201,-1,0
730,-0.06918,-0.1997,-1,0
731,-0.06937,-0.1986,-1,0
732,-0.0695601,-0.1972,-1,0
733,-0.0697501,-0.1959,-1,0
734,-0.0699401,-0.1945,-1,0
735,-0.0701301,-0.1933,-1,0
736,-0.0703099,-0.1921,-1,0
737,-0.0704999,-0.1907,-1,0
738,-0.0706799,-0.1893,-1,0
739,-0.0708599,-0.1879,-1,0
740,-0.0710399,-0.1866,-1,0
741,-0.0712199,-0.1852,-1,0
742,-0.0713999,-0.1839,-1,0
743,-0.0715799,-0.1828,-1,0
744,-0.0717599,-0.1816,-1,0
745,-0.0719299,-0.1805,-1,0
746,-0.0720999,-0.1793,-1,0
747,-0.0722799,-0.1782,-1,0
748,-0.0724499,-0.1771,-1,0
749,-0.0726199,-0.1759,-1,0
750,-0.0727899,-0.1747,-1,0
751,-0.0729599,-0.1738,-1,0
752,-0.0731299,-0.1727,-1,0
753,-0.0732901,-0.1716,-1,0
754,-0.0734601,-0.1705,-1,0
755,-0.0736201,-0.1693,-1,0
756,-0.0737901,-0.1683,-1,0
757,-0.0739501,-0.1671,-1,0
758,-0.07411,-0.1659,-1,0
759,-0.07427,-0.1647,-1,0
760,-0.07442,-0.1635,-1,0
761,-0.07458,-0.1622,-1,0
762,-0.0747399,-0.1611,-1,0
763,-0.0748899,-0.16,-1,0
764,-0.0750499,-0.1587,-1,0
765,-0.0752001,-0.1576,-1,0
766,-0.07535,-0.1563,-1,0
767,-0.0755,-0.1551,-1,0
768,-0.07565,-0.154,-1,0
769,-0.0757899,-0.1529,-1,0
770,-0.0759399,-0.1518,-1,0
771,-0.0760901,-0.1505,-1,0
772,-0.07623,-0.1494,-1,0
773,-0.07637,-0.148,-1,0
774,-0.07652,-0.1471,-1,0
775,-0.0766599,-0.1458,-1,0
776,-0.0768001,-0.1447,-1,0
777,-0.07693,-0.1435,-1,0
778,-0.07707,-0.1423,-1,0
779,-0.0772099,-0.1412,-1,0
780,-0.0773399,-0.1401,-1,0
781,-0.0774701,-0.1389,-1,0
782,-0.07761,-0.1378,-1,0
