cnt,pos,speed,Dir,Force,
1,0,1.0087,-1,1
2,0.00106001,1.0174,-1,1
3,0.00212002,1.0262,-1,1
4,0.00319004,1.0353,-1,1
5,0.00427008,1.0446,-1,1
6,0.00535965,1.053,-1,1
7,0.00645971,1.0616,-1,1
8,0.00756979,1.0706,-1,1
9,0.00869989,1.08,-1,1
10,0.00983,1.0891,-1,1
11,0.0109601,1.0979,-1,1
12,0.0121098,1.1066,-1,1
13,0.0132599,1.1155,-1,1
14,0.01443,1.1242,-1,1
15,0.0155997,1.133,-1,1
16,0.0167899,1.1431,-1,1
17,0.0179901,1.1531,-1,1
18,0.0191898,1.1622,-1,1
19,0.0204101,1.171,-1,1
20,0.0216298,1.1801,-1,1
21,0.0228601,1.1901,-1,1
22,0.0241098,1.2006,-1,1
23,0.0253696,1.2111,-1,1
24,0.0266299,1.2207,-1,1
25,0.0278997,1.2301,-1,1
26,0.02918,1.239,-1,1
27,0.0304799,1.2485,-1,1
28,0.0317898,1.2592,-1,1
29,0.0330997,1.2698,-1,1
30,0.03442,1.2797,-1,1
31,0.0357499,1.2888,-1,1
32,0.0370898,1.2978,-1,1
33,0.0384398,1.3074,-1,1
34,0.0398097,1.318,-1,1
35,0.0411897,1.3286,-1,1
36,0.0425701,1.3386,-1,1
37,0.0439501,1.3474,-1,1
38,0.0453501,1.356,-1,1
39,0.0467601,1.3655,-1,1
40,0.0481901,1.3762,-1,1
41,0.0496197,1.3869,-1,1
42,0.0510597,1.3965,-1,1
43,0.0524898,1.4047,-1,1
44,0.0539398,1.4126,-1,1
45,0.0554099,1.4216,-1,1
46,0.05689,1.4322,-1,1
47,0.0598598,1.4426,-1,1
48,0.0613499,1.4518,-1,1
49,0.06285,1.4604,-1,1
50,0.0643697,1.4698,-1,1
51,0.0658998,1.4797,-1,1
52,0.06744,1.4897,-1,1
53,0.0689697,1.4992,-1,1
54,0.0704999,1.508,-1,1
55,0.0720501,1.5164,-1,1
56,0.0736198,1.5249,-1,1
57,0.0752001,1.5342,-1,1
58,0.0767798,1.5429,-1,1
59,0.0783501,1.5514,-1,1
60,0.0799298,1.5594,-1,1
61,0.0815301,1.5663,-1,1
62,0.0831399,1.5739,-1,1
63,0.0847597,1.5817,-1,1
64,0.08636,1.589,-1,1
65,0.0896101,1.5969,-1,1
66,0.0912499,1.6039,-1,1
67,0.0928898,1.6101,-1,1
68,0.0945301,1.6168,-1,1
69,0.09618,1.6232,-1,1
70,0.0978398,1.6287,-1,1
71,0.0994997,1.635,-1,1
72,0.10117,1.6405,-1,1
73,0.10284,1.6465,-1,1
74,0.10451,1.6532,-1,1
75,0.1062,1.6586,-1,1
76,0.10788,1.6634,-1,1
77,0.11126,1.6687,-1,1
78,0.11297,1.6749,-1,1
79,0.11467,1.6809,-1,1
80,0.11638,1.6861,-1,1
81,0.11809,1.6905,-1,1
82,0.11981,1.6955,-1,1
83,0.12153,1.7011,-1,1
84,0.12326,1.7061,-1,1
85,0.12498,1.7102,-1,1
86,0.12671,1.7142,-1,1
87,0.12845,1.7184,-1,1
88,0.13018,1.722,-1,1
89,0.13193,1.7253,-1,1
90,0.13367,1.7286,-1,1
91,0.13541,1.7323,-1,1
92,0.13716,1.7357,-1,1
93,0.13891,1.7384,-1,1
94,0.14066,1.7408,-1,1
95,0.14242,1.7438,-1,1
96,0.14418,1.7472,-1,1
97,0.14594,1.7499,-1,1
98,0.14947,1.752,-1,1
99,0.15123,1.7546,-1,1
100,0.153,1.7575,-1,1
101,0.15477,1.7599,-1,1
102,0.15654,1.7617,-1,1
103,0.15831,1.7635,-1,1
104,0.16009,1.766,-1,1
105,0.16186,1.7681,-1,1
106,0.16364,1.7692,-1,1
107,0.16541,1.7705,-1,1
108,0.16719,1.7721,-1,1
109,0.16897,1.7735,-1,1
110,0.17075,1.7744,-1,1
111,0.17253,1.7754,-1,1
112,0.17431,1.7768,-1,1
113,0.17609,1.778,-1,1
114,0.17788,1.7788,-1,1
115,0.17966,1.7792,-1,1
116,0.18144,1.7802,-1,1
117,0.18322,1.781,-1,1
118,0.18501,1.7819,-1,1
119,0.18679,1.7821,-1,1
120,0.18857,1.7822,-1,1
121,0.19035,1.7826,-1,1
122,0.19214,1.783,-1,1
123,0.19392,1.7831,-1,1
124,0.1957,1.7826,-1,1
125,0.19748,1.7826,-1,1
126,0.19926,1.7825,-1,1
127,0.20105,1.7826,-1,1
128,0.20283,1.7819,-1,1
129,0.2046,1.7812,-1,1
130,0.20638,1.7805,-1,1
131,0.20815,1.7799,-1,1
132,0.20993,1.7789,-1,1
133,0.2117,1.7778,-1,1
134,0.21347,1.7772,-1,1
135,0.21524,1.7762,-1,1
136,0.21701,1.7752,-1,1
137,0.21878,1.7734,-1,1
138,0.22055,1.7721,-1,1
139,0.22231,1.7711,-1,1
140,0.22408,1.7701,-1,1
141,0.22584,1.7686,-1,1
142,0.2276,1.7672,-1,1
143,0.22936,1.7657,-1,1
144,0.23111,1.7642,-1,1
145,0.23287,1.7624,-1,1
146,0.23462,1.7604,-1,1
147,0.23637,1.7589,-1,1
148,0.23812,1.7572,-1,1
149,0.23987,1.7554,-1,1
150,0.24161,1.7534,-1,1
151,0.24335,1.7511,-1,1
152,0.24509,1.749,-1,1
153,0.24683,1.7471,-1,1
154,0.24856,1.7449,-1,1
155,0.25029,1.7428,-1,1
156,0.25202,1.7405,-1,1
157,0.25375,1.7383,-1,1
158,0.25548,1.7362,-1,1
159,0.2572,1.7338,-1,1
160,0.25892,1.7311,-1,1
161,0.26064,1.7289,-1,1
162,0.26235,1.7262,-1,1
163,0.26406,1.7235,-1,1
164,0.26577,1.7207,-1,1
165,0.26747,1.718,-1,1
166,0.26917,1.7152,-1,1
167,0.27087,1.7121,-1,1
168,0.27257,1.7087,-1,1
169,0.27426,1.7054,-1,1
170,0.27595,1.7025,-1,1
171,0.27763,1.6992,-1,1
172,0.27931,1.6956,-1,1
173,0.28098,1.6918,-1,1
174,0.28266,1.6885,-1,1
175,0.28433,1.6852,-1,1
176,0.28599,1.6816,-1,1
177,0.28765,1.6777,-1,1
178,0.28931,1.674,-1,1
179,0.29096,1.6703,-1,1
180,0.29261,1.6664,-1,1
181,0.29425,1.6623,-1,1
182,0.29589,1.6586,-1,1
183,0.29753,1.6549,-1,1
184,0.29916,1.6507,-1,1
185,0.30079,1.6463,-1,1
186,0.30241,1.6422,-1,1
187,0.30403,1.6381,-1,1
188,0.30565,1.6341,-1,1
189,0.30726,1.6297,-1,1
190,0.30886,1.625,-1,1
191,0.31046,1.6206,-1,1
192,0.31206,1.6162,-1,1
193,0.31365,1.6119,-1,1
194,0.31524,1.6075,-1,1
195,0.31682,1.6029,-1,1
196,0.31839,1.5979,-1,1
197,0.31996,1.5929,-1,1
198,0.32153,1.588,-1,1
199,0.32309,1.5837,-1,1
200,0.32465,1.5795,-1,1
201,0.3262,1.5745,-1,1
202,0.32775,1.5692,-1,1
203,0.32929,1.5641,-1,1
204,0.33083,1.5596,-1,1
205,0.33237,1.555,-1,1
206,0.3339,1.5505,-1,1
207,0.33542,1.5456,-1,1
208,0.33693,1.5405,-1,1
209,0.33844,1.5352,-1,1
210,0.33996,1.5303,-1,1
211,0.34146,1.5257,-1,1
212,0.34296,1.5212,-1,1
213,0.34445,1.5163,-1,1
214,0.34594,1.5108,-1,1
215,0.34743,1.506,-1,1
216,0.34891,1.501,-1,1
217,0.35038,1.4967,-1,1
218,0.35185,1.4922,-1,1
219,0.35332,1.4874,-1,1
220,0.35478,1.4823,-1,1
221,0.35623,1.4772,-1,1
222,0.35768,1.472,-1,1
223,0.35912,1.4669,-1,1
224,0.36056,1.462,-1,1
225,0.36199,1.4568,-1,1
226,0.36342,1.4519,-1,1
227,0.36484,1.4463,-1,1
228,0.36626,1.4409,-1,1
229,0.36767,1.4355,-1,1
230,0.36908,1.4306,-1,1
231,0.37049,1.4258,-1,1
232,0.37189,1.4203,-1,1
233,0.37328,1.4153,-1,1
234,0.37605,1.4096,-1,1
235,0.37605,1.4041,-1,1
236,0.37881,1.3987,-1,1
237,0.38017,1.3935,-1,1
238,0.38153,1.3878,-1,1
239,0.38289,1.3822,-1,1
240,0.38424,1.3765,-1,1
241,0.3856,1.3713,-1,1
242,0.38695,1.3661,-1,1
243,0.38829,1.3609,-1,1
244,0.38961,1.3552,-1,1
245,0.39094,1.3496,-1,1
246,0.39226,1.3443,-1,1
247,0.39491,1.3395,-1,1
248,0.39622,1.3346,-1,1
249,0.39752,1.3294,-1,1
250,0.39882,1.3239,-1,1
251,0.40012,1.3182,-1,1
252,0.40141,1.3135,-1,1
253,0.4027,1.3085,-1,1
254,0.40398,1.3044,-1,1
255,0.40526,1.2996,-1,1
256,0.40653,1.2944,-1,1
257,0.4078,1.2891,-1,1
258,0.40907,1.2846,-1,1
259,0.41033,1.2806,-1,1
260,0.41158,1.2761,-1,1
261,0.41283,1.2715,-1,1
262,0.41408,1.2665,-1,1
263,0.41532,1.2618,-1,1
264,0.41656,1.2573,-1,1
265,0.4178,1.2535,-1,1
266,0.41903,1.2493,-1,1
267,0.42025,1.2449,-1,1
268,0.42147,1.2399,-1,1
269,0.42268,1.235,-1,1
270,0.4239,1.2312,-1,1
271,0.42511,1.2274,-1,1
272,0.42632,1.2239,-1,1
273,0.42752,1.2196,-1,1
274,0.42871,1.2151,-1,1
275,0.4299,1.2103,-1,1
276,0.43109,1.2064,-1,1
277,0.43228,1.2028,-1,1
278,0.43347,1.1999,-1,1
279,0.43465,1.1964,-1,1
280,0.43582,1.192,-1,1
281,0.43699,1.1876,-1,1
282,0.43815,1.1837,-1,1
283,0.43932,1.1804,-1,1
284,0.44049,1.1775,-1,1
285,0.44164,1.1744,-1,1
286,0.4428,1.1707,-1,1
287,0.44395,1.1669,-1,1
288,0.4451,1.1632,-1,1
289,0.44625,1.1605,-1,1
290,0.4474,1.1582,-1,1
291,0.44854,1.1558,-1,1
292,0.44968,1.1526,-1,1
293,0.45081,1.1494,-1,1
294,0.45195,1.1465,-1,1
295,0.45309,1.1442,-1,1
296,0.45422,1.1424,-1,1
297,0.45536,1.1409,-1,1
298,0.45649,1.1389,-1,1
299,0.45761,1.1361,-1,1
300,0.45873,1.1333,-1,1
301,0.45985,1.1311,-1,1
302,0.46098,1.1298,-1,1
303,0.4621,1.1288,-1,1
304,0.46322,1.1275,-1,1
305,0.46434,1.126,-1,1
306,0.46546,1.124,-1,1
307,0.46657,1.1218,-1,1
308,0.46768,1.1199,-1,1
309,0.4688,1.1188,-1,1
310,0.46991,1.1183,-1,1
311,0.47103,1.1177,-1,1
312,0.47214,1.1163,-1,1
313,0.47325,1.1144,-1,1
314,0.47435,1.1124,-1,1
315,0.47545,1.1108,-1,1
316,0.47656,1.1098,-1,1
317,0.47767,1.1091,-1,1
318,0.47877,1.1086,-1,1
319,0.47987,1.1076,-1,1
320,0.48097,1.1059,-1,1
321,0.48207,1.104,-1,1
322,0.48317,1.1028,-1,1
323,0.48426,1.102,-1,1
324,0.48536,1.1015,-1,1
325,0.48646,1.1006,-1,1
326,0.48755,1.0996,-1,1
327,0.48865,1.0983,-1,1
328,0.48974,1.097,-1,1
329,0.49083,1.0958,-1,1
330,0.49192,1.095,-1,1
331,0.49301,1.0945,-1,1
332,0.49411,1.094,-1,1
333,0.4952,1.0932,-1,1
334,0.49628,1.0922,-1,1
335,0.49737,1.0913,-1,1
336,0.49846,1.0908,-1,1
337,0.49955,1.0903,-1,1
338,0.50064,1.0898,-1,1
339,0.50172,1.0893,-1,1
340,0.50281,1.0887,-1,1
341,0.50389,1.0879,-1,1
342,0.50497,1.0869,-1,1
343,0.50606,1.0861,-1,1
344,0.50714,1.0856,-1,1
345,0.50823,1.0854,-1,1
346,0.50931,1.0851,-1,1
347,0.5104,1.0846,-1,1
348,0.51147,1.0837,-1,1
349,0.51255,1.083,-1,1
350,0.51363,1.0824,-1,1
351,0.51471,1.0819,-1,1
352,0.51579,1.0819,-1,1
353,0.51688,1.0822,-1,1
354,0.51796,1.0822,-1,1
355,0.51904,1.0815,-1,1
356,0.52011,1.0801,-1,1
357,0.52119,1.0793,-1,1
358,0.52227,1.0793,-1,1
359,0.52335,1.0797,-1,1
360,0.52444,1.0802,-1,1
361,0.52552,1.0805,-1,1
362,0.52659,1.0797,-1,1
363,0.52766,1.0783,-1,1
364,0.52873,1.077,-1,1
365,0.52981,1.0766,-1,1
366,0.53089,1.0772,-1,1
367,0.53304,1.0775,-1,1
368,0.53412,1.0766,-1,1
369,0.53518,1.075,-1,1
370,0.53625,1.0732,-1,1
371,0.53732,1.0719,-1,1
372,0.53839,1.0714,-1,1
373,0.53946,1.0715,-1,1
374,0.54053,1.0712,-1,1
375,0.5416,1.0698,-1,1
376,0.54371,1.0676,-1,1
377,0.54477,1.0655,-1,1
378,0.54583,1.0645,-1,1
379,0.54689,1.0639,-1,1
380,0.54795,1.0634,-1,1
381,0.54901,1.0621,-1,1
382,0.55006,1.0603,-1,1
383,0.5511,1.0576,-1,1
384,0.55215,1.0554,-1,1
385,0.55319,1.0539,-1,1
386,0.55424,1.0527,-1,1
387,0.55529,1.0516,-1,1
388,0.55633,1.0501,-1,1
389,0.55737,1.0478,-1,1
390,0.5584,1.0451,-1,1
391,0.55943,1.0424,-1,1
392,0.56046,1.0399,-1,1
393,0.56149,1.0382,-1,1
394,0.56251,1.0366,-1,1
395,0.56354,1.035,-1,1
396,0.56457,1.033,-1,1
397,0.56559,1.0305,-1,1
398,0.5666,1.0274,-1,1
399,0.56762,1.0246,-1,1
400,0.56862,1.0221,-1,1
401,0.56963,1.0203,-1,1
402,0.57064,1.0186,-1,1
403,0.57165,1.0166,-1,1
404,0.57266,1.0143,-1,1
405,0.57366,1.0115,-1,1
406,0.57466,1.0087,-1,1
407,0.57565,1.0057,-1,1
408,0.57664,1.0033,-1,1
409,0.57763,1.0013,-1,1
410,0.57862,0.9993,-1,1
411,0.57961,0.9972,-1,1
412,0.58059,0.9946,-1,1
413,0.58157,0.9919,-1,1
414,0.58255,0.9889,-1,1
415,0.58352,0.9864,-1,1
416,0.5845,0.984,-1,1
417,0.58547,0.9818,-1,1
418,0.58643,0.9795,-1,1
419,0.5874,0.9773,-1,1
420,0.58837,0.9752,-1,1
421,0.58933,0.9726,-1,1
422,0.59029,0.9701,-1,1
423,0.59125,0.9676,-1,1
424,0.5922,0.9654,-1,1
425,0.59316,0.9632,-1,1
426,0.59411,0.9609,-1,1
427,0.59506,0.9591,-1,1
428,0.59601,0.9573,-1,1
429,0.59695,0.9551,-1,1
430,0.5979,0.9528,-1,1
431,0.59884,0.9507,-1,1
432,0.59978,0.9488,-1,1
433,0.60071,0.9467,-1,1
434,0.60165,0.9451,-1,1
435,0.60259,0.9433,-1,1
436,0.60352,0.9417,-1,1
437,0.60445,0.9397,-1,1
438,0.60538,0.9379,-1,1
439,0.60631,0.9361,-1,1
440,0.60724,0.9344,-1,1
441,0.60816,0.9324,-1,1
442,0.60908,0.9303,-1,1
443,0.61,0.9288,-1,1
444,0.61092,0.927,-1,1
445,0.61184,0.9255,-1,1
446,0.61276,0.9239,-1,1
447,0.61367,0.9221,-1,1
448,0.61458,0.9201,-1,1
449,0.61549,0.9183,-1,1
450,0.6164,0.9163,-1,1
451,0.61731,0.9144,-1,1
452,0.61821,0.9129,-1,1
453,0.61911,0.9112,-1,1
454,0.62001,0.9093,-1,1
455,0.62092,0.9073,-1,1
456,0.62181,0.9054,-1,1
457,0.62271,0.9037,-1,1
458,0.6236,0.9017,-1,1
459,0.62449,0.8994,-1,1
460,0.62538,0.8975,-1,1
461,0.62627,0.8959,-1,1
462,0.62715,0.894,-1,1
463,0.62803,0.892,-1,1
464,0.62891,0.89,-1,1
465,0.62979,0.888,-1,1
466,0.63067,0.886,-1,1
467,0.63155,0.8839,-1,1
468,0.63242,0.882,-1,1
469,0.63329,0.8801,-1,1
470,0.63416,0.8779,-1,1
471,0.63502,0.8758,-1,1
472,0.63589,0.8738,-1,1
473,0.63675,0.8718,-1,1
474,0.63761,0.8698,-1,1
475,0.63847,0.8676,-1,1
476,0.63933,0.8654,-1,1
477,0.64018,0.8635,-1,1
478,0.64103,0.8613,-1,1
479,0.64188,0.8591,-1,1
480,0.64273,0.857,-1,1
481,0.64357,0.8549,-1,1
482,0.64442,0.8529,-1,1
483,0.64526,0.8509,-1,1
484,0.6461,0.8485,-1,1
485,0.64777,0.846,-1,1
486,0.64777,0.8436,-1,1
487,0.6486,0.8412,-1,1
488,0.65027,0.8393,-1,1
489,0.65109,0.8375,-1,1
490,0.65192,0.8354,-1,1
491,0.65274,0.8333,-1,1
492,0.65357,0.8312,-1,1
493,0.65439,0.829,-1,1
494,0.65521,0.827,-1,1
495,0.65603,0.8253,-1,1
496,0.65684,0.8235,-1,1
497,0.65766,0.8217,-1,1
498,0.65847,0.82,-1,1
499,0.66009,0.8183,-1,1
500,0.6609,0.8167,-1,1
501,0.66171,0.8151,-1,1
502,0.66252,0.8135,-1,1
503,0.66333,0.8121,-1,1
504,0.66413,0.811,-1,1
505,0.66494,0.8096,-1,1
506,0.66574,0.8081,-1,1
507,0.66654,0.8068,-1,1
508,0.66734,0.8057,-1,1
509,0.66814,0.8049,-1,1
510,0.66894,0.8039,-1,1
511,0.67054,0.8028,-1,1
512,0.67134,0.8019,-1,1
513,0.67214,0.8014,-1,1
514,0.67294,0.8009,-1,1
515,0.67374,0.8005,-1,1
516,0.67454,0.8001,-1,1
517,0.67534,0.7998,-1,1
518,0.67614,0.7996,-1,1
519,0.67694,0.7996,-1,1
520,0.67775,0.8,-1,1
521,0.67855,0.8003,-1,1
522,0.67935,0.8004,-1,1
523,0.68015,0.8003,-1,1
524,0.68095,0.8007,-1,1
525,0.68176,0.8014,-1,1
526,0.68256,0.8024,-1,1
527,0.68337,0.8031,-1,1
528,0.68418,0.8036,-1,1
529,0.68498,0.8041,-1,1
530,0.68661,0.805,-1,1
531,0.68742,0.8061,-1,1
532,0.68823,0.8072,-1,1
533,0.68904,0.8083,-1,1
534,0.68986,0.8095,-1,1
535,0.69068,0.8107,-1,1
536,0.6915,0.8122,-1,1
537,0.69232,0.8137,-1,1
538,0.69314,0.8152,-1,1
539,0.69396,0.8166,-1,1
540,0.69478,0.8178,-1,1
541,0.69561,0.8192,-1,1
542,0.69644,0.8209,-1,1
543,0.69727,0.8226,-1,1
544,0.69809,0.8238,-1,1
545,0.69892,0.825,-1,1
546,0.69976,0.8262,-1,1
547,0.70059,0.8279,-1,1
548,0.70143,0.8296,-1,1
549,0.70227,0.8312,-1,1
550,0.70311,0.8325,-1,1
551,0.70394,0.8336,-1,1
552,0.70479,0.8351,-1,1
553,0.70563,0.8367,-1,1
554,0.70648,0.8387,-1,1
555,0.70733,0.8405,-1,1
556,0.70818,0.8421,-1,1
557,0.70903,0.8434,-1,1
558,0.70988,0.845,-1,1
559,0.71074,0.8468,-1,1
560,0.7116,0.8488,-1,1
561,0.71245,0.8508,-1,1
562,0.71331,0.8522,-1,1
563,0.71417,0.8539,-1,1
564,0.71503,0.8554,-1,1
565,0.7159,0.8575,-1,1
566,0.71677,0.8594,-1,1
567,0.71764,0.8612,-1,1
568,0.71851,0.8627,-1,1
569,0.71938,0.8642,-1,1
570,0.72025,0.8658,-1,1
571,0.72113,0.8675,-1,1
572,0.722,0.8696,-1,1
573,0.72288,0.8714,-1,1
574,0.72377,0.8734,-1,1
575,0.72465,0.875,-1,1
576,0.72554,0.8767,-1,1
577,0.72642,0.8785,-1,1
578,0.72731,0.8803,-1,1
579,0.7282,0.8822,-1,1
580,0.72909,0.8842,-1,1
581,0.72999,0.8864,-1,1
582,0.73089,0.8884,-1,1
583,0.73179,0.8904,-1,1
584,0.73269,0.892,-1,1
585,0.7336,0.8941,-1,1
586,0.7345,0.8965,-1,1
587,0.73541,0.8988,-1,1
588,0.73632,0.901,-1,1
589,0.73723,0.9031,-1,1
590,0.73815,0.9052,-1,1
591,0.73907,0.9075,-1,1
592,0.73999,0.9099,-1,1
593,0.74091,0.9123,-1,1
594,0.74184,0.9149,-1,1
595,0.74277,0.9171,-1,1
596,0.74369,0.9191,-1,1
597,0.74463,0.9214,-1,1
598,0.74556,0.9239,-1,1
599,0.7465,0.9264,-1,1
600,0.74744,0.9293,-1,1
601,0.74838,0.9319,-1,1
602,0.74933,0.9344,-1,1
603,0.75028,0.9369,-1,1
604,0.75123,0.9393,-1,1
605,0.75218,0.9419,-1,1
606,0.75314,0.9448,-1,1
607,0.7541,0.9478,-1,1
608,0.75507,0.9508,-1,1
609,0.75604,0.954,-1,1
610,0.75701,0.9567,-1,1
611,0.75798,0.9596,-1,1
612,0.75895,0.9624,-1,1
613,0.75993,0.9655,-1,1
614,0.76092,0.9686,-1,1
615,0.7619,0.972,-1,1
616,0.76289,0.9753,-1,1
617,0.76389,0.9783,-1,1
618,0.76488,0.9814,-1,1
619,0.76588,0.9842,-1,1
620,0.76688,0.9874,-1,1
621,0.76789,0.9907,-1,1
622,0.76889,0.9941,-1,1
623,0.76991,0.9973,-1,1
624,0.77092,1.0007,-1,1
625,0.77194,1.0037,-1,1
626,0.77296,1.0066,-1,1
627,0.77398,1.0097,-1,1
628,0.77501,1.0129,-1,1
629,0.77604,1.0165,-1,1
630,0.77708,1.02,-1,1
631,0.77812,1.0231,-1,1
632,0.77915,1.026,-1,1
633,0.78019,1.0289,-1,1
634,0.78124,1.0321,-1,1
635,0.78229,1.0356,-1,1
636,0.78335,1.0391,-1,1
637,0.78441,1.0427,-1,1
638,0.78547,1.0461,-1,1
639,0.78653,1.0493,-1,1
640,0.7876,1.0521,-1,1
641,0.78867,1.0557,-1,1
642,0.78974,1.0593,-1,1
643,0.7919,1.0634,-1,1
644,0.7919,1.0669,-1,1
645,0.79298,1.0698,-1,1
646,0.79407,1.0732,-1,1
647,0.79516,1.0767,-1,1
648,0.79735,1.0802,-1,1
649,0.79845,1.0837,-1,1
650,0.79955,1.0875,-1,1
651,0.80065,1.0907,-1,1
652,0.80176,1.0942,-1,1
653,0.80288,1.0972,-1,1
654,0.80399,1.1006,-1,1
655,0.80511,1.104,-1,1
656,0.80623,1.107,-1,1
657,0.80735,1.1099,-1,1
658,0.80848,1.1137,-1,1
659,0.80961,1.1171,-1,1
660,0.81074,1.1201,-1,1
661,0.81301,1.123,-1,1
662,0.81415,1.1261,-1,1
663,0.81415,1.1293,-1,1
664,0.81644,1.1325,-1,1
665,0.8176,1.1359,-1,1
666,0.81875,1.1393,-1,1
667,0.8199,1.1421,-1,1
668,0.82105,1.144,-1,1
669,0.82221,1.1464,-1,1
670,0.82337,1.1493,-1,1
671,0.82571,1.1525,-1,1
672,0.82571,1.1551,-1,1
673,0.82804,1.1573,-1,1
674,0.82921,1.1594,-1,1
675,0.83038,1.1618,-1,1
676,0.83156,1.1643,-1,1
677,0.83274,1.1672,-1,1
678,0.83392,1.17,-1,1
679,0.8351,1.172,-1,1
680,0.83628,1.1736,-1,1
681,0.83746,1.1752,-1,1
682,0.83865,1.1775,-1,1
683,0.83984,1.1797,-1,1
684,0.84103,1.1819,-1,1
685,0.84222,1.1835,-1,1
686,0.8434,1.1845,-1,1
687,0.84459,1.1854,-1,1
688,0.84579,1.1866,-1,1
689,0.84698,1.1884,-1,1
690,0.84818,1.1905,-1,1
691,0.84938,1.1922,-1,1
692,0.85058,1.193,-1,1
693,0.85178,1.1939,-1,1
694,0.85297,1.1945,-1,1
695,0.85417,1.1952,-1,1
696,0.85537,1.1966,-1,1
697,0.85658,1.1984,-1,1
698,0.85778,1.1996,-1,1
699,0.85899,1.2006,-1,1
700,0.86019,1.2007,-1,1
701,0.86139,1.2004,-1,1
702,0.86259,1.2008,-1,1
703,0.86379,1.2018,-1,1
704,0.865,1.2031,-1,1
705,0.86621,1.2044,-1,1
706,0.86742,1.2046,-1,1
707,0.86862,1.2038,-1,1
708,0.86982,1.2033,-1,1
709,0.87223,1.2039,-1,1
710,0.87344,1.2051,-1,1
711,0.87465,1.2062,-1,1
712,0.87585,1.2063,-1,1
713,0.87705,1.2054,-1,1
714,0.87825,1.2044,-1,1
715,0.87946,1.2039,-1,1
716,0.88067,1.2046,-1,1
717,0.88188,1.2056,-1,1
718,0.88308,1.2059,-1,1
719,0.88427,1.2043,-1,1
720,0.88547,1.2031,-1,1
721,0.88667,1.2028,-1,1
722,0.88908,1.2035,-1,1
723,0.89029,1.2039,-1,1
724,0.89148,1.2033,-1,1
725,0.89148,1.2017,-1,1
726,0.89386,1.1999,-1,1
727,0.89506,1.1989,-1,1
728,0.89627,1.1992,-1,1
729,0.89747,1.1998,-1,1
730,0.89866,1.1992,-1,1
731,0.89985,1.1972,-1,1
732,0.90103,1.1947,-1,1
733,0.90222,1.1932,-1,1
734,0.90342,1.1936,-1,1
735,0.90462,1.1941,-1,1
736,0.90581,1.1942,-1,1
737,0.907,1.1929,-1,1
738,0.90818,1.1901,-1,1
739,0.90935,1.1877,-1,1
740,0.91054,1.1875,-1,1
741,0.91292,1.1886,-1,1
742,0.91411,1.189,-1,1
743,0.91529,1.1881,-1,1
744,0.91646,1.1854,-1,1
745,0.91763,1.1831,-1,1
746,0.91881,1.1815,-1,1
747,0.92,1.1815,-1,1
748,0.92118,1.1825,-1,1
749,0.92236,1.1828,-1,1
750,0.92354,1.1808,-1,1
751,0.9247,1.1776,-1,1
752,0.92587,1.1753,-1,1
753,0.92704,1.1745,-1,1
754,0.92822,1.1754,-1,1
755,0.9294,1.1763,-1,1
756,0.93057,1.1759,-1,1
757,0.93173,1.1735,-1,1
758,0.93289,1.1705,-1,1
759,0.93405,1.1682,-1,1
760,0.93521,1.1678,-1,1
761,0.93639,1.1689,-1,1
762,0.93756,1.1695,-1,1
763,0.93872,1.1677,-1,1
764,0.94102,1.1645,-1,1
765,0.94218,1.1622,-1,1
766,0.94335,1.1614,-1,1
767,0.94451,1.1621,-1,1
768,0.94568,1.1623,-1,1
769,0.94682,1.1614,-1,1
770,0.94797,1.1589,-1,1
771,0.94911,1.1557,-1,1
772,0.95026,1.155,-1,1
773,0.95143,1.1559,-1,1
774,0.95374,1.156,-1,1
775,0.95488,1.1542,-1,1
776,0.95601,1.1511,-1,1
777,0.95601,1.1484,-1,1
778,0.95715,1.1466,-1,1
779,0.95831,1.147,-1,1
780,0.95946,1.1485,-1,1
781,0.96062,1.1495,-1,1
782,0.96176,1.1473,-1,1
783,0.96289,1.1441,-1,1
784,0.96402,1.1431,-1,1
785,0.9663,1.1441,-1,1
786,0.96746,1.1458,-1,1
787,0.9686,1.146,-1,1
788,0.9686,1.145,-1,1
789,0.96973,1.143,-1,1
790,0.97086,1.1396,-1,1
791,0.97198,1.1368,-1,1
792,0.97312,1.136,-1,1
793,0.97426,1.1377,-1,1
794,0.97654,1.1375,-1,1
795,0.97767,1.1351,-1,1
796,0.97878,1.1316,-1,1
797,0.9799,1.129,-1,1
798,0.98103,1.1287,-1,1
799,0.98217,1.1293,-1,1
800,0.98331,1.1309,-1,1
801,0.98444,1.1313,-1,1
802,0.98556,1.1296,-1,1
803,0.98666,1.1259,-1,1
804,0.98778,1.1234,-1,1
805,0.9889,1.1232,-1,1
806,0.99003,1.1248,-1,1
807,0.99116,1.1261,-1,1
808,0.99229,1.1255,-1,1
809,0.9934,1.1227,-1,1
810,0.9945,1.1189,-1,1
811,0.9956,1.1164,-1,1
812,0.99672,1.1164,-1,1
813,0.99785,1.1181,-1,1
814,0.99897,1.1195,-1,1
815,1.00009,1.1187,-1,1
816,1.00119,1.1156,-1,1
817,1.00228,1.1119,-1,1
818,1.00338,1.1093,-1,1
819,1.00449,1.1091,-1,1
820,1.0056,1.1106,-1,1
821,1.00672,1.112,-1,1
822,1.00783,1.1112,-1,1
823,1.00893,1.1082,-1,1
824,1.01001,1.1042,-1,1
825,1.0111,1.1015,-1,1
826,1.0122,1.1012,-1,1
827,1.01331,1.1027,-1,1
828,1.01442,1.104,-1,1
829,1.01552,1.1035,-1,1
830,1.01661,1.1009,-1,1
831,1.01769,1.0974,-1,1
832,1.01878,1.0945,-1,1
833,1.01986,1.0937,-1,1
834,1.02096,1.0949,-1,1
835,1.02206,1.0964,-1,1
836,1.02316,1.0963,-1,1
837,1.02425,1.094,-1,1
838,1.02533,1.0907,-1,1
