cnt,pos,speed,Dir,Force,
1,0,1.0018,-1,1
2,0.00101995,1.0045,-1,1
3,0.00203991,1.0077,-1,1
4,0.00306988,1.0111,-1,1
5,0.00409985,1.0145,-1,1
6,0.00512981,1.0173,-1,1
7,0.00615978,1.0193,-1,1
8,0.00718975,1.0215,-1,1
9,0.00821972,1.0242,-1,1
10,0.0092597,1.0274,-1,1
11,0.0103097,1.0311,-1,1
12,0.0113697,1.0346,-1,1
13,0.0124197,1.0374,-1,1
14,0.0134697,1.0398,-1,1
15,0.0145197,1.0421,-1,1
16,0.0155797,1.045,-1,1
17,0.0166397,1.0483,-1,1
18,0.0177097,1.0523,-1,1
19,0.0187898,1.0563,-1,1
20,0.0209398,1.06,-1,1
21,0.0220199,1.063,-1,1
22,0.0230999,1.0661,-1,1
23,0.0241899,1.0699,-1,1
24,0.02529,1.0744,-1,1
25,0.0263896,1.0796,-1,1
26,0.0274997,1.0848,-1,1
27,0.0286098,1.0895,-1,1
28,0.0297198,1.0935,-1,1
29,0.0308399,1.0972,-1,1
30,0.0330896,1.1026,-1,1
31,0.0342298,1.1087,-1,1
32,0.0353699,1.1148,-1,1
33,0.03652,1.1202,-1,1
34,0.0376596,1.1248,-1,1
35,0.0388098,1.1293,-1,1
36,0.0399599,1.134,-1,1
37,0.0411301,1.1399,-1,1
38,0.0423098,1.1468,-1,1
39,0.0434899,1.1537,-1,1
40,0.0458498,1.1584,-1,1
41,0.04704,1.1631,-1,1
42,0.0482397,1.1686,-1,1
43,0.0482397,1.1755,-1,1
44,0.0494499,1.1824,-1,1
45,0.0506697,1.1893,-1,1
46,0.0518899,1.1957,-1,1
47,0.0531096,1.2004,-1,1
48,0.0543199,1.2053,-1,1
49,0.0567899,1.2114,-1,1
50,0.0580497,1.219,-1,1
51,0.05931,1.2261,-1,1
52,0.0605597,1.2319,-1,1
53,0.0605597,1.2361,-1,1
54,0.06182,1.2404,-1,1
55,0.0630698,1.2441,-1,1
56,0.0643396,1.2488,-1,1
57,0.0656199,1.2556,-1,1
58,0.0669198,1.2624,-1,1
59,0.0682197,1.2672,-1,1
60,0.0707898,1.2703,-1,1
61,0.0720797,1.2738,-1,1
62,0.07339,1.2787,-1,1
63,0.0747099,1.2855,-1,1
64,0.0760398,1.2931,-1,1
65,0.0773697,1.3006,-1,1
66,0.0786901,1.3058,-1,1
67,0.0800099,1.3093,-1,1
68,0.0813398,1.3125,-1,1
69,0.0826898,1.3179,-1,1
70,0.0840497,1.3254,-1,1
71,0.08676,1.3319,-1,1
72,0.08811,1.3364,-1,1
73,0.0894699,1.3397,-1,1
74,0.0908399,1.3432,-1,1
75,0.0922098,1.3481,-1,1
76,0.0935998,1.3546,-1,1
77,0.0949898,1.3613,-1,1
78,0.0963697,1.3668,-1,1
79,0.0977497,1.3709,-1,1
80,0.0991397,1.3738,-1,1
81,0.10054,1.3779,-1,1
82,0.10194,1.383,-1,1
83,0.10335,1.388,-1,1
84,0.10476,1.3922,-1,1
85,0.10617,1.3953,-1,1
86,0.10758,1.398,-1,1
87,0.10899,1.4008,-1,1
88,0.11041,1.4041,-1,1
89,0.11183,1.4078,-1,1
90,0.11326,1.4117,-1,1
91,0.11469,1.4148,-1,1
92,0.11612,1.4173,-1,1
93,0.11897,1.4195,-1,1
94,0.1204,1.4219,-1,1
95,0.12185,1.4251,-1,1
96,0.12329,1.4286,-1,1
97,0.12474,1.4317,-1,1
98,0.12618,1.4339,-1,1
99,0.12761,1.4351,-1,1
100,0.12905,1.4358,-1,1
101,0.13049,1.4375,-1,1
102,0.13195,1.4405,-1,1
103,0.13485,1.4424,-1,1
104,0.13629,1.4432,-1,1
105,0.13774,1.4434,-1,1
106,0.13919,1.4438,-1,1
107,0.14065,1.445,-1,1
108,0.1421,1.447,-1,1
109,0.14356,1.4491,-1,1
110,0.14501,1.4504,-1,1
111,0.14645,1.4504,-1,1
112,0.1479,1.4497,-1,1
113,0.14936,1.4505,-1,1
114,0.15082,1.4522,-1,1
115,0.15227,1.4535,-1,1
116,0.15373,1.4539,-1,1
117,0.15518,1.4535,-1,1
118,0.15663,1.4526,-1,1
119,0.15808,1.4521,-1,1
120,0.15953,1.4524,-1,1
121,0.16099,1.4535,-1,1
122,0.16245,1.4543,-1,1
123,0.1639,1.4541,-1,1
124,0.16535,1.4532,-1,1
125,0.16679,1.4521,-1,1
126,0.16824,1.4516,-1,1
127,0.1697,1.4518,-1,1
128,0.17116,1.4526,-1,1
129,0.17261,1.4528,-1,1
130,0.17406,1.4524,-1,1
131,0.1755,1.4512,-1,1
132,0.17695,1.4502,-1,1
133,0.1784,1.4501,-1,1
134,0.17985,1.4505,-1,1
135,0.1813,1.4509,-1,1
136,0.18275,1.4507,-1,1
137,0.1842,1.4499,-1,1
138,0.18565,1.4489,-1,1
139,0.18709,1.4483,-1,1
140,0.18854,1.4484,-1,1
141,0.18999,1.4487,-1,1
142,0.19144,1.4489,-1,1
143,0.19289,1.4487,-1,1
144,0.19434,1.4483,-1,1
145,0.19578,1.4479,-1,1
146,0.19723,1.448,-1,1
147,0.19868,1.4484,-1,1
148,0.20014,1.4491,-1,1
149,0.20159,1.4496,-1,1
150,0.20304,1.4496,-1,1
151,0.20449,1.4497,-1,1
152,0.20594,1.4501,-1,1
153,0.2074,1.4509,-1,1
154,0.20885,1.4517,-1,1
155,0.21031,1.4524,-1,1
156,0.21176,1.4529,-1,1
157,0.21322,1.4534,-1,1
158,0.21467,1.4536,-1,1
159,0.21613,1.4545,-1,1
160,0.21759,1.4556,-1,1
161,0.21905,1.4564,-1,1
162,0.22051,1.4568,-1,1
163,0.22197,1.4573,-1,1
164,0.22343,1.458,-1,1
165,0.22489,1.4588,-1,1
166,0.22636,1.4596,-1,1
167,0.22782,1.4604,-1,1
168,0.22929,1.4613,-1,1
169,0.23075,1.4619,-1,1
170,0.23222,1.4624,-1,1
171,0.23368,1.4629,-1,1
172,0.23514,1.4634,-1,1
173,0.23661,1.464,-1,1
174,0.23808,1.4646,-1,1
175,0.23955,1.4653,-1,1
176,0.24102,1.4658,-1,1
177,0.24248,1.4658,-1,1
178,0.24394,1.4656,-1,1
179,0.24541,1.466,-1,1
180,0.24688,1.4668,-1,1
181,0.24835,1.4672,-1,1
182,0.24981,1.4671,-1,1
183,0.25127,1.4663,-1,1
184,0.25274,1.4656,-1,1
185,0.2542,1.4656,-1,1
186,0.25568,1.466,-1,1
187,0.25714,1.4659,-1,1
188,0.2586,1.4654,-1,1
189,0.26005,1.4641,-1,1
190,0.26152,1.463,-1,1
191,0.26298,1.4628,-1,1
192,0.26445,1.4631,-1,1
193,0.26591,1.4631,-1,1
194,0.26736,1.4624,-1,1
195,0.26882,1.461,-1,1
196,0.27027,1.4595,-1,1
197,0.27173,1.4589,-1,1
198,0.27318,1.4587,-1,1
199,0.27464,1.4584,-1,1
200,0.27609,1.4574,-1,1
201,0.27754,1.4559,-1,1
202,0.27899,1.454,-1,1
203,0.28043,1.4521,-1,1
204,0.28187,1.4506,-1,1
205,0.28331,1.449,-1,1
206,0.28474,1.4471,-1,1
207,0.28618,1.4452,-1,1
208,0.28762,1.4431,-1,1
209,0.28905,1.4408,-1,1
210,0.29047,1.4383,-1,1
211,0.2919,1.4359,-1,1
212,0.29332,1.4337,-1,1
213,0.29475,1.4319,-1,1
214,0.29616,1.4298,-1,1
215,0.29758,1.4276,-1,1
216,0.29899,1.4252,-1,1
217,0.30041,1.4227,-1,1
218,0.30182,1.4204,-1,1
219,0.30323,1.4185,-1,1
220,0.30464,1.4163,-1,1
221,0.30604,1.414,-1,1
222,0.30744,1.4116,-1,1
223,0.30884,1.4094,-1,1
224,0.31024,1.4076,-1,1
225,0.31164,1.406,-1,1
226,0.31303,1.4041,-1,1
227,0.31442,1.4018,-1,1
228,0.31581,1.3996,-1,1
229,0.3172,1.3973,-1,1
230,0.31859,1.3956,-1,1
231,0.31998,1.394,-1,1
232,0.32136,1.3922,-1,1
233,0.32274,1.39,-1,1
234,0.32412,1.3878,-1,1
235,0.3255,1.3856,-1,1
236,0.32687,1.3837,-1,1
237,0.32824,1.3819,-1,1
238,0.32961,1.3799,-1,1
239,0.33098,1.3778,-1,1
240,0.33235,1.3758,-1,1
241,0.33372,1.3737,-1,1
242,0.33508,1.372,-1,1
243,0.33644,1.3701,-1,1
244,0.3378,1.3679,-1,1
245,0.33916,1.3658,-1,1
246,0.34051,1.364,-1,1
247,0.34187,1.3623,-1,1
248,0.34322,1.3605,-1,1
249,0.34457,1.3584,-1,1
250,0.34591,1.3561,-1,1
251,0.34725,1.3537,-1,1
252,0.3486,1.3517,-1,1
253,0.34994,1.35,-1,1
254,0.35128,1.3481,-1,1
255,0.35261,1.3457,-1,1
256,0.35394,1.3431,-1,1
257,0.35527,1.3406,-1,1
258,0.3566,1.3385,-1,1
259,0.35793,1.3369,-1,1
260,0.35926,1.3348,-1,1
261,0.36057,1.3323,-1,1
262,0.36189,1.3293,-1,1
263,0.36321,1.3267,-1,1
264,0.36453,1.3248,-1,1
265,0.36584,1.323,-1,1
266,0.36715,1.3208,-1,1
267,0.36846,1.3183,-1,1
268,0.36976,1.3154,-1,1
269,0.37106,1.3126,-1,1
270,0.37237,1.3108,-1,1
271,0.37367,1.3094,-1,1
272,0.37625,1.3068,-1,1
273,0.37754,1.3039,-1,1
274,0.37884,1.3013,-1,1
275,0.38013,1.299,-1,1
276,0.38142,1.297,-1,1
277,0.3827,1.295,-1,1
278,0.38398,1.2923,-1,1
279,0.38525,1.2895,-1,1
280,0.38653,1.2866,-1,1
281,0.38781,1.2844,-1,1
282,0.39036,1.2826,-1,1
283,0.39162,1.2801,-1,1
284,0.39288,1.2769,-1,1
285,0.39415,1.2741,-1,1
286,0.39542,1.272,-1,1
287,0.39668,1.27,-1,1
288,0.39794,1.2684,-1,1
289,0.39919,1.2659,-1,1
290,0.40044,1.2633,-1,1
291,0.40169,1.2604,-1,1
292,0.40295,1.2587,-1,1
293,0.4042,1.2569,-1,1
294,0.40668,1.2546,-1,1
295,0.40792,1.252,-1,1
296,0.40916,1.2493,-1,1
297,0.4104,1.2471,-1,1
298,0.41164,1.245,-1,1
299,0.41287,1.243,-1,1
300,0.4141,1.2407,-1,1
301,0.41533,1.2386,-1,1
302,0.41779,1.2362,-1,1
303,0.41901,1.2341,-1,1
304,0.42023,1.2325,-1,1
305,0.42145,1.2303,-1,1
306,0.42267,1.2277,-1,1
307,0.42389,1.2254,-1,1
308,0.4251,1.2235,-1,1
309,0.42632,1.2222,-1,1
310,0.42753,1.2204,-1,1
311,0.42874,1.2178,-1,1
312,0.42994,1.215,-1,1
313,0.43114,1.213,-1,1
314,0.43235,1.2116,-1,1
315,0.43356,1.211,-1,1
316,0.43476,1.2097,-1,1
317,0.43596,1.2074,-1,1
318,0.43715,1.2045,-1,1
319,0.43834,1.2016,-1,1
320,0.43953,1.2002,-1,1
321,0.44193,1.1991,-1,1
322,0.44312,1.1978,-1,1
323,0.4443,1.1955,-1,1
324,0.44547,1.1922,-1,1
325,0.44665,1.189,-1,1
326,0.44783,1.1872,-1,1
327,0.44902,1.1863,-1,1
328,0.4502,1.1853,-1,1
329,0.45137,1.1837,-1,1
330,0.45254,1.1806,-1,1
331,0.4537,1.1778,-1,1
332,0.45487,1.1763,-1,1
333,0.45722,1.1755,-1,1
334,0.45838,1.1747,-1,1
335,0.45838,1.1722,-1,1
336,0.45954,1.1691,-1,1
337,0.46068,1.1651,-1,1
338,0.46183,1.1621,-1,1
339,0.46299,1.1607,-1,1
340,0.46415,1.1603,-1,1
341,0.46531,1.1594,-1,1
342,0.46645,1.1557,-1,1
343,0.46759,1.1517,-1,1
344,0.46986,1.1487,-1,1
345,0.47101,1.1479,-1,1
346,0.47215,1.1472,-1,1
347,0.47329,1.1464,-1,1
348,0.47442,1.1443,-1,1
349,0.47554,1.1404,-1,1
350,0.47666,1.136,-1,1
351,0.47778,1.1326,-1,1
352,0.47891,1.1317,-1,1
353,0.48004,1.1313,-1,1
354,0.48116,1.1298,-1,1
355,0.48227,1.1266,-1,1
356,0.48338,1.1225,-1,1
357,0.48448,1.1188,-1,1
358,0.48559,1.1166,-1,1
359,0.4867,1.1158,-1,1
360,0.48781,1.115,-1,1
361,0.48891,1.1131,-1,1
362,0.49001,1.1099,-1,1
363,0.4911,1.1061,-1,1
364,0.49219,1.1028,-1,1
365,0.49328,1.1005,-1,1
366,0.49437,1.0991,-1,1
367,0.49546,1.0976,-1,1
368,0.49654,1.0952,-1,1
369,0.49762,1.092,-1,1
370,0.4987,1.0886,-1,1
371,0.49977,1.0855,-1,1
372,0.50084,1.083,-1,1
373,0.50191,1.0805,-1,1
374,0.50297,1.078,-1,1
375,0.50403,1.0754,-1,1
376,0.50509,1.0723,-1,1
377,0.50615,1.0693,-1,1
378,0.5072,1.0663,-1,1
379,0.50825,1.0633,-1,1
380,0.5093,1.0603,-1,1
381,0.51034,1.0573,-1,1
382,0.51138,1.0544,-1,1
383,0.51242,1.0517,-1,1
384,0.51346,1.0489,-1,1
385,0.51449,1.0458,-1,1
386,0.51552,1.0425,-1,1
387,0.51654,1.0388,-1,1
388,0.51756,1.0356,-1,1
389,0.51858,1.0327,-1,1
390,0.5196,1.0298,-1,1
391,0.52061,1.0266,-1,1
392,0.52161,1.0232,-1,1
393,0.52262,1.0198,-1,1
394,0.52362,1.0164,-1,1
395,0.52462,1.0127,-1,1
396,0.52561,1.0091,-1,1
397,0.5266,1.0061,-1,1
398,0.52759,1.0028,-1,1
399,0.52857,0.9993,-1,1
400,0.52955,0.9957,-1,1
401,0.53053,0.9922,-1,1
402,0.5315,0.9887,-1,1
403,0.53247,0.985,-1,1
404,0.53343,0.9811,-1,1
405,0.53439,0.9775,-1,1
406,0.53535,0.9742,-1,1
407,0.53631,0.9707,-1,1
408,0.53726,0.9672,-1,1
409,0.53821,0.9636,-1,1
410,0.53915,0.9599,-1,1
411,0.54009,0.9561,-1,1
412,0.54102,0.9521,-1,1
413,0.54195,0.9484,-1,1
414,0.54288,0.9451,-1,1
415,0.54381,0.9414,-1,1
416,0.54473,0.9377,-1,1
417,0.54565,0.934,-1,1
418,0.54656,0.9301,-1,1
419,0.54747,0.9263,-1,1
420,0.54838,0.9225,-1,1
421,0.54928,0.9187,-1,1
422,0.55017,0.9151,-1,1
423,0.55107,0.9114,-1,1
424,0.55196,0.9074,-1,1
425,0.55284,0.9038,-1,1
426,0.55373,0.9,-1,1
427,0.55461,0.8961,-1,1
428,0.55549,0.8925,-1,1
429,0.55636,0.8886,-1,1
430,0.55723,0.8848,-1,1
431,0.55809,0.8808,-1,1
432,0.55894,0.8769,-1,1
433,0.5598,0.8731,-1,1
434,0.56065,0.8696,-1,1
435,0.5615,0.8659,-1,1
436,0.56235,0.8622,-1,1
437,0.56319,0.8583,-1,1
438,0.56403,0.8542,-1,1
439,0.56486,0.8502,-1,1
440,0.56652,0.8463,-1,1
441,0.56735,0.8426,-1,1
442,0.56817,0.8388,-1,1
443,0.56898,0.835,-1,1
444,0.5698,0.8311,-1,1
445,0.57061,0.8275,-1,1
446,0.57142,0.8239,-1,1
447,0.57223,0.8203,-1,1
448,0.57303,0.8167,-1,1
449,0.57463,0.8134,-1,1
450,0.57543,0.8102,-1,1
451,0.57622,0.8072,-1,1
452,0.57701,0.8042,-1,1
453,0.5778,0.8012,-1,1
454,0.57858,0.7983,-1,1
455,0.57937,0.7955,-1,1
456,0.58015,0.7928,-1,1
457,0.58093,0.7901,-1,1
458,0.58171,0.7875,-1,1
459,0.58248,0.785,-1,1
460,0.58325,0.7829,-1,1
461,0.58403,0.7811,-1,1
462,0.5848,0.7792,-1,1
463,0.58557,0.7772,-1,1
464,0.58634,0.7751,-1,1
465,0.5871,0.7732,-1,1
466,0.58787,0.7716,-1,1
467,0.58864,0.7704,-1,1
468,0.5894,0.7694,-1,1
469,0.59016,0.7681,-1,1
470,0.59092,0.7666,-1,1
471,0.59168,0.7651,-1,1
472,0.59245,0.7643,-1,1
473,0.59321,0.764,-1,1
474,0.59397,0.7637,-1,1
475,0.59473,0.7629,-1,1
476,0.59549,0.762,-1,1
477,0.59625,0.7614,-1,1
478,0.59702,0.7613,-1,1
479,0.59778,0.7615,-1,1
480,0.59854,0.7617,-1,1
481,0.5993,0.7617,-1,1
482,0.60006,0.7615,-1,1
483,0.60083,0.7614,-1,1
484,0.6016,0.7619,-1,1
485,0.60236,0.7627,-1,1
486,0.60313,0.7637,-1,1
487,0.6039,0.7644,-1,1
488,0.60466,0.7646,-1,1
489,0.60543,0.7653,-1,1
490,0.60621,0.7665,-1,1
491,0.60698,0.7681,-1,1
492,0.60776,0.7695,-1,1
493,0.60853,0.7706,-1,1
494,0.60931,0.7714,-1,1
495,0.61009,0.7725,-1,1
496,0.61087,0.774,-1,1
497,0.61165,0.7758,-1,1
498,0.61244,0.7777,-1,1
499,0.61322,0.7793,-1,1
500,0.61401,0.7805,-1,1
501,0.6148,0.7817,-1,1
502,0.61559,0.7834,-1,1
503,0.61639,0.7856,-1,1
504,0.61718,0.7877,-1,1
505,0.61798,0.7897,-1,1
506,0.61878,0.791,-1,1
507,0.61958,0.7923,-1,1
508,0.62038,0.794,-1,1
509,0.62118,0.796,-1,1
510,0.62199,0.7982,-1,1
511,0.6228,0.8002,-1,1
512,0.62361,0.802,-1,1
513,0.62442,0.8035,-1,1
514,0.62524,0.8054,-1,1
515,0.62606,0.8074,-1,1
516,0.62688,0.8099,-1,1
517,0.6277,0.812,-1,1
518,0.62852,0.8139,-1,1
519,0.62934,0.8155,-1,1
520,0.63017,0.8175,-1,1
521,0.631,0.8196,-1,1
522,0.63183,0.8219,-1,1
523,0.63266,0.8239,-1,1
524,0.6335,0.8257,-1,1
525,0.63433,0.8274,-1,1
526,0.63517,0.8292,-1,1
527,0.63601,0.8313,-1,1
528,0.63685,0.8335,-1,1
529,0.6377,0.8356,-1,1
530,0.63854,0.8375,-1,1
531,0.63939,0.8395,-1,1
532,0.64025,0.8415,-1,1
533,0.6411,0.8437,-1,1
534,0.64196,0.8459,-1,1
535,0.64281,0.848,-1,1
536,0.64367,0.8498,-1,1
537,0.64453,0.8519,-1,1
538,0.64539,0.8539,-1,1
539,0.64626,0.8562,-1,1
540,0.64713,0.8582,-1,1
541,0.648,0.8603,-1,1
542,0.64887,0.8621,-1,1
543,0.64974,0.8643,-1,1
544,0.65062,0.8665,-1,1
545,0.6515,0.8687,-1,1
546,0.65238,0.8709,-1,1
547,0.65326,0.8729,-1,1
548,0.65414,0.875,-1,1
549,0.65503,0.8771,-1,1
550,0.65592,0.8794,-1,1
551,0.65681,0.8817,-1,1
552,0.65771,0.884,-1,1
553,0.6586,0.886,-1,1
554,0.6595,0.8879,-1,1
555,0.6604,0.89,-1,1
556,0.6613,0.8921,-1,1
557,0.6622,0.8944,-1,1
558,0.66311,0.8967,-1,1
559,0.66402,0.8991,-1,1
560,0.66493,0.9014,-1,1
561,0.66584,0.9032,-1,1
562,0.66676,0.9051,-1,1
563,0.66767,0.9072,-1,1
564,0.66859,0.9096,-1,1
565,0.66952,0.912,-1,1
566,0.67044,0.9146,-1,1
567,0.67137,0.9167,-1,1
568,0.6723,0.9189,-1,1
569,0.67323,0.9212,-1,1
570,0.67416,0.9232,-1,1
571,0.6751,0.9258,-1,1
572,0.67604,0.9283,-1,1
573,0.67698,0.9307,-1,1
574,0.67793,0.9332,-1,1
575,0.67888,0.9358,-1,1
576,0.67983,0.9384,-1,1
577,0.68078,0.9415,-1,1
578,0.68269,0.9444,-1,1
579,0.68365,0.9471,-1,1
580,0.68462,0.9501,-1,1
581,0.68558,0.9531,-1,1
582,0.68655,0.9562,-1,1
583,0.68753,0.9594,-1,1
584,0.6885,0.9625,-1,1
585,0.68948,0.9656,-1,1
586,0.69046,0.9689,-1,1
587,0.69243,0.9719,-1,1
588,0.69342,0.9753,-1,1
589,0.69442,0.9787,-1,1
590,0.69542,0.982,-1,1
591,0.69542,0.9855,-1,1
592,0.69642,0.9888,-1,1
593,0.69742,0.9918,-1,1
594,0.69843,0.9948,-1,1
595,0.69944,0.9979,-1,1
596,0.70045,1.0012,-1,1
597,0.70249,1.0049,-1,1
598,0.70351,1.008,-1,1
599,0.70454,1.011,-1,1
600,0.70557,1.0143,-1,1
601,0.7066,1.0177,-1,1
602,0.70764,1.0212,-1,1
603,0.70868,1.0249,-1,1
604,0.70973,1.0287,-1,1
605,0.71077,1.0325,-1,1
606,0.71182,1.0358,-1,1
607,0.71288,1.0388,-1,1
608,0.71394,1.0422,-1,1
609,0.715,1.0461,-1,1
610,0.71607,1.0499,-1,1
611,0.71714,1.0533,-1,1
612,0.71821,1.0569,-1,1
613,0.71928,1.0604,-1,1
614,0.72036,1.0639,-1,1
615,0.72145,1.0673,-1,1
616,0.72253,1.0708,-1,1
617,0.72362,1.0745,-1,1
618,0.72472,1.0783,-1,1
619,0.72582,1.0818,-1,1
620,0.72692,1.0852,-1,1
621,0.72802,1.0884,-1,1
622,0.72912,1.0915,-1,1
623,0.73023,1.095,-1,1
624,0.73135,1.0985,-1,1
625,0.73247,1.1021,-1,1
626,0.73359,1.1057,-1,1
627,0.73471,1.1092,-1,1
628,0.73584,1.1122,-1,1
629,0.73697,1.1148,-1,1
630,0.7381,1.1177,-1,1
631,0.73923,1.1211,-1,1
632,0.74037,1.125,-1,1
633,0.74152,1.1286,-1,1
634,0.74266,1.1315,-1,1
635,0.74381,1.1342,-1,1
636,0.74496,1.1367,-1,1
637,0.74611,1.1396,-1,1
638,0.74727,1.1428,-1,1
639,0.74843,1.1467,-1,1
640,0.7496,1.1502,-1,1
641,0.75076,1.1529,-1,1
642,0.75192,1.1549,-1,1
643,0.75309,1.1569,-1,1
644,0.75426,1.16,-1,1
645,0.75544,1.1633,-1,1
646,0.75663,1.1667,-1,1
647,0.7578,1.1692,-1,1
648,0.75898,1.1715,-1,1
649,0.76016,1.1732,-1,1
650,0.76135,1.1752,-1,1
651,0.76254,1.1781,-1,1
652,0.76374,1.1815,-1,1
653,0.76494,1.1847,-1,1
654,0.76613,1.1868,-1,1
655,0.76733,1.1884,-1,1
656,0.76853,1.1901,-1,1
657,0.76973,1.1925,-1,1
658,0.77094,1.1953,-1,1
659,0.77215,1.1982,-1,1
660,0.77336,1.201,-1,1
661,0.77457,1.2029,-1,1
662,0.77578,1.2041,-1,1
663,0.77699,1.2055,-1,1
664,0.77821,1.2076,-1,1
665,0.77943,1.2101,-1,1
666,0.78065,1.2127,-1,1
667,0.78188,1.215,-1,1
668,0.7831,1.2166,-1,1
669,0.78432,1.2175,-1,1
670,0.78554,1.2185,-1,1
671,0.78677,1.2201,-1,1
672,0.788,1.2226,-1,1
673,0.78924,1.2251,-1,1
674,0.79048,1.2269,-1,1
675,0.79171,1.228,-1,1
676,0.79294,1.2285,-1,1
677,0.79417,1.2291,-1,1
678,0.79541,1.2304,-1,1
679,0.79665,1.2331,-1,1
680,0.7979,1.2352,-1,1
681,0.79913,1.2365,-1,1
682,0.80037,1.2364,-1,1
683,0.8016,1.2362,-1,1
684,0.80284,1.2368,-1,1
685,0.80409,1.2388,-1,1
686,0.80535,1.241,-1,1
687,0.80659,1.2425,-1,1
688,0.80783,1.2426,-1,1
689,0.80907,1.2417,-1,1
690,0.81031,1.2426,-1,1
691,0.81282,1.2441,-1,1
692,0.81407,1.246,-1,1
693,0.81531,1.2469,-1,1
694,0.81655,1.2467,-1,1
695,0.81779,1.2455,-1,1
696,0.81904,1.2454,-1,1
697,0.8203,1.2465,-1,1
698,0.82156,1.2485,-1,1
699,0.82405,1.2491,-1,1
700,0.82529,1.2477,-1,1
701,0.82653,1.2466,-1,1
702,0.82779,1.247,-1,1
703,0.82905,1.2487,-1,1
704,0.83031,1.2506,-1,1
705,0.83156,1.2514,-1,1
706,0.8328,1.2505,-1,1
707,0.83404,1.2487,-1,1
708,0.83529,1.2481,-1,1
709,0.83655,1.2497,-1,1
710,0.83781,1.2511,-1,1
711,0.84031,1.2512,-1,1
712,0.84155,1.2494,-1,1
713,0.84279,1.2476,-1,1
714,0.84404,1.2472,-1,1
715,0.8453,1.2486,-1,1
716,0.84656,1.2504,-1,1
717,0.84781,1.2513,-1,1
718,0.84905,1.2501,-1,1
719,0.85029,1.2479,-1,1
720,0.85153,1.2483,-1,1
721,0.85279,1.2498,-1,1
722,0.8553,1.2509,-1,1
723,0.85654,1.2508,-1,1
724,0.85654,1.2487,-1,1
725,0.85777,1.2459,-1,1
726,0.85901,1.2439,-1,1
727,0.86026,1.2439,-1,1
728,0.86152,1.245,-1,1
729,0.86401,1.2455,-1,1
730,0.86524,1.2429,-1,1
731,0.86648,1.2404,-1,1
732,0.86772,1.2397,-1,1
733,0.86897,1.2407,-1,1
734,0.87022,1.2422,-1,1
735,0.87146,1.2432,-1,1
736,0.87269,1.2424,-1,1
737,0.87392,1.2404,-1,1
738,0.87516,1.2387,-1,1
739,0.8764,1.2391,-1,1
740,0.87889,1.2401,-1,1
741,0.88012,1.2396,-1,1
742,0.88135,1.2381,-1,1
743,0.88257,1.2356,-1,1
744,0.88381,1.2344,-1,1
745,0.88505,1.2342,-1,1
746,0.88629,1.2351,-1,1
747,0.88752,1.2353,-1,1
748,0.88874,1.2341,-1,1
749,0.88996,1.2317,-1,1
750,0.89119,1.2302,-1,1
751,0.89243,1.2309,-1,1
752,0.89366,1.2316,-1,1
753,0.89489,1.2317,-1,1
754,0.89611,1.2299,-1,1
755,0.89732,1.2273,-1,1
756,0.89855,1.2255,-1,1
757,0.89978,1.2254,-1,1
758,0.90101,1.2264,-1,1
759,0.90223,1.2264,-1,1
760,0.90344,1.2252,-1,1
761,0.90465,1.2224,-1,1
762,0.90587,1.2205,-1,1
763,0.90709,1.2203,-1,1
764,0.90832,1.2211,-1,1
765,0.90954,1.2218,-1,1
766,0.91075,1.2206,-1,1
767,0.91195,1.2177,-1,1
768,0.91316,1.2152,-1,1
769,0.91437,1.2146,-1,1
770,0.9156,1.2156,-1,1
771,0.91682,1.2165,-1,1
772,0.91802,1.2156,-1,1
773,0.91922,1.2127,-1,1
774,0.92042,1.2096,-1,1
775,0.92162,1.2078,-1,1
776,0.92284,1.2084,-1,1
777,0.92405,1.2098,-1,1
778,0.92526,1.2099,-1,1
779,0.92645,1.2078,-1,1
780,0.92764,1.2041,-1,1
781,0.92883,1.2013,-1,1
782,0.93003,1.2007,-1,1
783,0.93124,1.2018,-1,1
784,0.93245,1.2031,-1,1
785,0.93365,1.2027,-1,1
786,0.93484,1.2,-1,1
787,0.93602,1.1965,-1,1
788,0.9372,1.1941,-1,1
789,0.93839,1.1938,-1,1
790,0.93959,1.1952,-1,1
791,0.94079,1.1961,-1,1
792,0.94198,1.1952,-1,1
793,0.94317,1.1927,-1,1
794,0.94434,1.1896,-1,1
795,0.94552,1.1876,-1,1
796,0.94671,1.1874,-1,1
797,0.9479,1.1885,-1,1
798,0.94909,1.1888,-1,1
799,0.95027,1.1875,-1,1
800,0.95144,1.1847,-1,1
801,0.95261,1.1822,-1,1
802,0.95379,1.181,-1,1
803,0.95498,1.1812,-1,1
804,0.95616,1.1817,-1,1
805,0.95734,1.1813,-1,1
806,0.9585,1.1792,-1,1
807,0.95966,1.1765,-1,1
808,0.96083,1.1746,-1,1
809,0.96201,1.1745,-1,1
810,0.96319,1.1752,-1,1
811,0.96437,1.1752,-1,1
812,0.96553,1.1737,-1,1
813,0.96669,1.1709,-1,1
814,0.96784,1.1683,-1,1
815,0.96901,1.1671,-1,1
816,0.97018,1.1678,-1,1
817,0.97135,1.1689,-1,1
818,0.97252,1.1687,-1,1
819,0.97367,1.1663,-1,1
820,0.97482,1.1631,-1,1
821,0.97598,1.161,-1,1
822,0.97714,1.1608,-1,1
823,0.9783,1.1618,-1,1
824,0.97947,1.1629,-1,1
825,0.98063,1.1623,-1,1
826,0.98178,1.1599,-1,1
827,0.98292,1.1568,-1,1
828,0.98407,1.1551,-1,1
829,0.98523,1.1557,-1,1
830,0.98639,1.1572,-1,1
831,0.98755,1.1579,-1,1
832,0.98871,1.157,-1,1
833,0.98985,1.1547,-1,1
834,0.99099,1.1523,-1,1
835,0.99214,1.1514,-1,1
836,0.9933,1.1524,-1,1
837,0.99446,1.1535,-1,1
838,0.99676,1.1534,-1,1
