cnt,pos,speed,Dir,Force,
1,0,1.0016,-1,1
2,0.00102997,1.0063,-1,1
3,0.00205994,1.0117,-1,1
4,0.00310993,1.0177,-1,1
5,0.00415993,1.0233,-1,1
6,0.00520992,1.0281,-1,1
7,0.00626993,1.0323,-1,1
8,0.00731993,1.0362,-1,1
9,0.00837994,1.0405,-1,1
10,0.00943995,1.0457,-1,1
11,0.01052,1.0516,-1,1
12,0.01161,1.0578,-1,1
13,0.0127001,1.0636,-1,1
14,0.0137897,1.0683,-1,1
15,0.0148897,1.0724,-1,1
16,0.0159798,1.0765,-1,1
17,0.0170798,1.0815,-1,1
18,0.0181899,1.0874,-1,1
19,0.01931,1.0937,-1,1
20,0.0204496,1.1002,-1,1
21,0.0215797,1.1062,-1,1
22,0.0227199,1.1109,-1,1
23,0.02385,1.1151,-1,1
24,0.0249901,1.1194,-1,1
25,0.0261397,1.1249,-1,1
26,0.0272899,1.1314,-1,1
27,0.02846,1.1384,-1,1
28,0.0296397,1.1449,-1,1
29,0.0308199,1.1507,-1,1
30,0.0320001,1.1552,-1,1
31,0.0331798,1.1593,-1,1
32,0.0343599,1.1642,-1,1
33,0.0355597,1.1707,-1,1
34,0.0367699,1.1783,-1,1
35,0.0379896,1.1855,-1,1
36,0.0392098,1.1914,-1,1
37,0.0404301,1.1963,-1,1
38,0.0416498,1.2006,-1,1
39,0.0428801,1.2059,-1,1
40,0.0441298,1.2129,-1,1
41,0.0453796,1.2209,-1,1
42,0.0466399,1.2281,-1,1
43,0.0478997,1.2336,-1,1
44,0.04915,1.2382,-1,1
45,0.0504298,1.2437,-1,1
46,0.0517197,1.2515,-1,1
47,0.0543098,1.2589,-1,1
48,0.0555997,1.2659,-1,1
49,0.05689,1.272,-1,1
50,0.0581999,1.2784,-1,1
51,0.0595298,1.2856,-1,1
52,0.0595298,1.2936,-1,1
53,0.0622001,1.3017,-1,1
54,0.06353,1.3089,-1,1
55,0.0648599,1.315,-1,1
56,0.0662098,1.3203,-1,1
57,0.0675797,1.3288,-1,1
58,0.0689597,1.3377,-1,1
59,0.0703397,1.3462,-1,1
60,0.0717096,1.3525,-1,1
61,0.0730801,1.3569,-1,1
62,0.07447,1.3618,-1,1
63,0.07587,1.3686,-1,1
64,0.0772901,1.3776,-1,1
65,0.0801296,1.386,-1,1
66,0.0815496,1.3927,-1,1
67,0.0829697,1.3972,-1,1
68,0.0844197,1.4037,-1,1
69,0.0858698,1.4115,-1,1
70,0.0873399,1.4203,-1,1
71,0.0888,1.429,-1,1
72,0.09025,1.4363,-1,1
73,0.0917196,1.4427,-1,1
74,0.0931997,1.4488,-1,1
75,0.0946999,1.4563,-1,1
76,0.0962,1.4646,-1,1
77,0.0976996,1.4721,-1,1
78,0.10071,1.4786,-1,1
79,0.10222,1.4846,-1,1
80,0.10375,1.4911,-1,1
81,0.10528,1.4983,-1,1
82,0.10682,1.5064,-1,1
83,0.10836,1.5139,-1,1
84,0.1099,1.5201,-1,1
85,0.11145,1.5254,-1,1
86,0.11301,1.5309,-1,1
87,0.11457,1.5374,-1,1
88,0.11614,1.5439,-1,1
89,0.11772,1.5498,-1,1
90,0.11929,1.5545,-1,1
91,0.12087,1.559,-1,1
92,0.12245,1.5633,-1,1
93,0.12405,1.5685,-1,1
94,0.12565,1.5741,-1,1
95,0.12725,1.5796,-1,1
96,0.12885,1.5843,-1,1
97,0.13045,1.5883,-1,1
98,0.13206,1.5919,-1,1
99,0.13368,1.5957,-1,1
100,0.1353,1.6003,-1,1
101,0.13692,1.6052,-1,1
102,0.13855,1.6096,-1,1
103,0.14018,1.613,-1,1
104,0.1418,1.616,-1,1
105,0.14344,1.6194,-1,1
106,0.14508,1.6235,-1,1
107,0.14673,1.6276,-1,1
108,0.14837,1.631,-1,1
109,0.15002,1.6342,-1,1
110,0.15167,1.637,-1,1
111,0.15332,1.6398,-1,1
112,0.15498,1.6431,-1,1
113,0.15664,1.6463,-1,1
114,0.1583,1.6493,-1,1
115,0.15996,1.6519,-1,1
116,0.16162,1.6541,-1,1
117,0.16329,1.6564,-1,1
118,0.16496,1.659,-1,1
119,0.16663,1.6616,-1,1
120,0.16831,1.664,-1,1
121,0.16998,1.6658,-1,1
122,0.17165,1.6674,-1,1
123,0.17333,1.6693,-1,1
124,0.17501,1.6715,-1,1
125,0.17669,1.6735,-1,1
126,0.17837,1.6752,-1,1
127,0.18005,1.6762,-1,1
128,0.18173,1.6773,-1,1
129,0.18342,1.6787,-1,1
130,0.18511,1.6806,-1,1
131,0.1868,1.6823,-1,1
132,0.18849,1.6833,-1,1
133,0.19017,1.6837,-1,1
134,0.19186,1.6846,-1,1
135,0.19355,1.6857,-1,1
136,0.19525,1.6871,-1,1
137,0.19694,1.6883,-1,1
138,0.19863,1.6891,-1,1
139,0.20032,1.6896,-1,1
140,0.20201,1.6901,-1,1
141,0.20371,1.6908,-1,1
142,0.2054,1.6918,-1,1
143,0.2071,1.6929,-1,1
144,0.20879,1.6934,-1,1
145,0.21049,1.6937,-1,1
146,0.21219,1.6938,-1,1
147,0.21388,1.6946,-1,1
148,0.21558,1.6956,-1,1
149,0.21728,1.6966,-1,1
150,0.21898,1.6969,-1,1
151,0.22068,1.6972,-1,1
152,0.22238,1.6977,-1,1
153,0.22408,1.6985,-1,1
154,0.22578,1.6993,-1,1
155,0.22749,1.7,-1,1
156,0.22919,1.7006,-1,1
157,0.23089,1.7011,-1,1
158,0.2326,1.7015,-1,1
159,0.2343,1.7015,-1,1
160,0.23599,1.7013,-1,1
161,0.23769,1.701,-1,1
162,0.23939,1.7007,-1,1
163,0.24109,1.7004,-1,1
164,0.24279,1.7,-1,1
165,0.24448,1.6996,-1,1
166,0.24618,1.6993,-1,1
167,0.24788,1.6991,-1,1
168,0.24959,1.699,-1,1
169,0.25129,1.6988,-1,1
170,0.25298,1.699,-1,1
171,0.25468,1.6995,-1,1
172,0.25638,1.6998,-1,1
173,0.25809,1.7,-1,1
174,0.25979,1.7002,-1,1
175,0.26149,1.7003,-1,1
176,0.26319,1.7008,-1,1
177,0.2649,1.7012,-1,1
178,0.2666,1.7013,-1,1
179,0.2683,1.7015,-1,1
180,0.27,1.7017,-1,1
181,0.2717,1.7016,-1,1
182,0.2734,1.7017,-1,1
183,0.2751,1.7015,-1,1
184,0.2768,1.7014,-1,1
185,0.2785,1.7013,-1,1
186,0.2802,1.7008,-1,1
187,0.2819,1.7004,-1,1
188,0.2836,1.6998,-1,1
189,0.28529,1.6995,-1,1
190,0.28699,1.6993,-1,1
191,0.28869,1.6991,-1,1
192,0.29039,1.6987,-1,1
193,0.29208,1.6982,-1,1
194,0.29378,1.6974,-1,1
195,0.29547,1.6968,-1,1
196,0.29716,1.6962,-1,1
197,0.29885,1.6953,-1,1
198,0.30054,1.6946,-1,1
199,0.30223,1.6938,-1,1
200,0.30392,1.6928,-1,1
201,0.30561,1.6917,-1,1
202,0.30729,1.6904,-1,1
203,0.30897,1.6891,-1,1
204,0.31066,1.6881,-1,1
205,0.31234,1.6871,-1,1
206,0.31402,1.6858,-1,1
207,0.3157,1.6841,-1,1
208,0.31737,1.6827,-1,1
209,0.32072,1.681,-1,1
210,0.32239,1.6791,-1,1
211,0.32406,1.6771,-1,1
212,0.32572,1.6754,-1,1
213,0.32739,1.674,-1,1
214,0.32906,1.6722,-1,1
215,0.33071,1.6698,-1,1
216,0.33237,1.6674,-1,1
217,0.33403,1.6656,-1,1
218,0.33568,1.6636,-1,1
219,0.33734,1.6617,-1,1
220,0.33899,1.6594,-1,1
221,0.34227,1.657,-1,1
222,0.34227,1.6547,-1,1
223,0.34392,1.6524,-1,1
224,0.34556,1.6501,-1,1
225,0.34719,1.6477,-1,1
226,0.34882,1.6452,-1,1
227,0.35045,1.6424,-1,1
228,0.35208,1.6397,-1,1
229,0.35371,1.6366,-1,1
230,0.35533,1.6339,-1,1
231,0.35857,1.6312,-1,1
232,0.36018,1.6281,-1,1
233,0.36018,1.6248,-1,1
234,0.36179,1.6218,-1,1
235,0.3634,1.6191,-1,1
236,0.36661,1.6162,-1,1
237,0.36661,1.613,-1,1
238,0.3698,1.6097,-1,1
239,0.37139,1.6068,-1,1
240,0.37299,1.6042,-1,1
241,0.37458,1.6017,-1,1
242,0.37616,1.5989,-1,1
243,0.37774,1.5955,-1,1
244,0.3809,1.5922,-1,1
245,0.3809,1.589,-1,1
246,0.38247,1.5861,-1,1
247,0.38561,1.5831,-1,1
248,0.38718,1.5799,-1,1
249,0.38874,1.5767,-1,1
250,0.3903,1.5734,-1,1
251,0.39185,1.5698,-1,1
252,0.39341,1.5666,-1,1
253,0.39496,1.564,-1,1
254,0.39651,1.5612,-1,1
255,0.39806,1.5583,-1,1
256,0.3996,1.5552,-1,1
257,0.40113,1.5521,-1,1
258,0.40267,1.5493,-1,1
259,0.40421,1.5467,-1,1
260,0.40574,1.5437,-1,1
261,0.40726,1.5407,-1,1
262,0.40878,1.5376,-1,1
263,0.4103,1.5344,-1,1
264,0.41182,1.5315,-1,1
265,0.41334,1.5286,-1,1
266,0.41485,1.5255,-1,1
267,0.41635,1.5223,-1,1
268,0.41786,1.5189,-1,1
269,0.41936,1.5158,-1,1
270,0.42086,1.513,-1,1
271,0.42236,1.5103,-1,1
272,0.42385,1.5066,-1,1
273,0.42533,1.5033,-1,1
274,0.42682,1.4999,-1,1
275,0.42831,1.4972,-1,1
276,0.4298,1.4946,-1,1
277,0.43127,1.4918,-1,1
278,0.43274,1.4883,-1,1
279,0.43421,1.4846,-1,1
280,0.43568,1.4816,-1,1
281,0.43716,1.4792,-1,1
282,0.43862,1.4772,-1,1
283,0.44007,1.474,-1,1
284,0.44152,1.4702,-1,1
285,0.44298,1.4666,-1,1
286,0.44444,1.4639,-1,1
287,0.44589,1.4617,-1,1
288,0.44734,1.4595,-1,1
289,0.44877,1.4563,-1,1
290,0.4502,1.4524,-1,1
291,0.45164,1.4489,-1,1
292,0.45308,1.4463,-1,1
293,0.45452,1.4443,-1,1
294,0.45594,1.4419,-1,1
295,0.45736,1.4382,-1,1
296,0.45878,1.4343,-1,1
297,0.4602,1.4312,-1,1
298,0.46162,1.4289,-1,1
299,0.46304,1.4265,-1,1
300,0.46444,1.4235,-1,1
301,0.46584,1.4199,-1,1
302,0.46725,1.4165,-1,1
303,0.46866,1.4137,-1,1
304,0.47006,1.4104,-1,1
305,0.47283,1.4071,-1,1
306,0.47422,1.4039,-1,1
307,0.47561,1.4006,-1,1
308,0.477,1.3974,-1,1
309,0.47838,1.3945,-1,1
310,0.47976,1.3914,-1,1
311,0.48112,1.3878,-1,1
312,0.48249,1.3843,-1,1
313,0.48387,1.3812,-1,1
314,0.48661,1.3784,-1,1
315,0.48796,1.3755,-1,1
316,0.48931,1.3719,-1,1
317,0.49066,1.368,-1,1
318,0.49202,1.3645,-1,1
319,0.49337,1.3617,-1,1
320,0.49472,1.3593,-1,1
321,0.49606,1.3567,-1,1
322,0.4974,1.3531,-1,1
323,0.49873,1.349,-1,1
324,0.50007,1.346,-1,1
325,0.5014,1.3441,-1,1
326,0.50274,1.3422,-1,1
327,0.50406,1.3397,-1,1
328,0.50538,1.3359,-1,1
329,0.50669,1.3317,-1,1
330,0.50801,1.3284,-1,1
331,0.50932,1.326,-1,1
332,0.51064,1.3233,-1,1
333,0.51325,1.3201,-1,1
334,0.51455,1.3165,-1,1
335,0.51584,1.3123,-1,1
336,0.51714,1.3087,-1,1
337,0.51843,1.3057,-1,1
338,0.51972,1.3029,-1,1
339,0.521,1.2999,-1,1
340,0.52228,1.2962,-1,1
341,0.52356,1.2922,-1,1
342,0.52484,1.2892,-1,1
343,0.52612,1.2868,-1,1
344,0.52739,1.2841,-1,1
345,0.52865,1.2811,-1,1
346,0.52991,1.2774,-1,1
347,0.53117,1.2738,-1,1
348,0.53243,1.2706,-1,1
349,0.53368,1.268,-1,1
350,0.53494,1.2654,-1,1
351,0.53618,1.2624,-1,1
352,0.53743,1.2588,-1,1
353,0.53866,1.255,-1,1
354,0.53991,1.252,-1,1
355,0.54114,1.2494,-1,1
356,0.54238,1.2467,-1,1
357,0.5436,1.2434,-1,1
358,0.54483,1.2401,-1,1
359,0.54605,1.2366,-1,1
360,0.54727,1.2332,-1,1
361,0.54849,1.2304,-1,1
362,0.5497,1.2277,-1,1
363,0.55091,1.2245,-1,1
364,0.55212,1.2209,-1,1
365,0.55332,1.2172,-1,1
366,0.55452,1.2142,-1,1
367,0.55572,1.2115,-1,1
368,0.55691,1.2084,-1,1
369,0.5581,1.2052,-1,1
370,0.55929,1.2018,-1,1
371,0.56047,1.1982,-1,1
372,0.56165,1.1948,-1,1
373,0.56283,1.1918,-1,1
374,0.56401,1.189,-1,1
375,0.56518,1.1857,-1,1
376,0.56634,1.182,-1,1
377,0.5675,1.1781,-1,1
378,0.56866,1.1747,-1,1
379,0.56982,1.1716,-1,1
380,0.57097,1.1685,-1,1
381,0.57212,1.1654,-1,1
382,0.57327,1.162,-1,1
383,0.57441,1.1584,-1,1
384,0.57555,1.1543,-1,1
385,0.57668,1.1508,-1,1
386,0.57782,1.1477,-1,1
387,0.57895,1.1447,-1,1
388,0.58007,1.1415,-1,1
389,0.5812,1.1379,-1,1
390,0.58231,1.1342,-1,1
391,0.58343,1.1302,-1,1
392,0.58453,1.1264,-1,1
393,0.58564,1.123,-1,1
394,0.58675,1.1201,-1,1
395,0.58785,1.1172,-1,1
396,0.58895,1.1137,-1,1
397,0.59004,1.1098,-1,1
398,0.59113,1.1057,-1,1
399,0.59221,1.1018,-1,1
400,0.5933,1.0983,-1,1
401,0.59438,1.0953,-1,1
402,0.59546,1.0924,-1,1
403,0.59653,1.0893,-1,1
404,0.5976,1.0855,-1,1
405,0.59867,1.0813,-1,1
406,0.59972,1.0772,-1,1
407,0.60078,1.0738,-1,1
408,0.60184,1.0709,-1,1
409,0.60289,1.0679,-1,1
410,0.60394,1.0648,-1,1
411,0.60499,1.0611,-1,1
412,0.60603,1.0574,-1,1
413,0.60707,1.0533,-1,1
414,0.6081,1.0495,-1,1
415,0.60913,1.0462,-1,1
416,0.61016,1.0436,-1,1
417,0.61119,1.0406,-1,1
418,0.61221,1.0371,-1,1
419,0.61322,1.0333,-1,1
420,0.61423,1.0292,-1,1
421,0.61524,1.0254,-1,1
422,0.61625,1.022,-1,1
423,0.61725,1.0188,-1,1
424,0.61825,1.0159,-1,1
425,0.61925,1.0127,-1,1
426,0.62024,1.0086,-1,1
427,0.62123,1.0044,-1,1
428,0.62221,1.0004,-1,1
429,0.62319,0.9968,-1,1
430,0.62417,0.994,-1,1
431,0.62515,0.9912,-1,1
432,0.62613,0.9879,-1,1
433,0.62709,0.984,-1,1
434,0.62805,0.9799,-1,1
435,0.62901,0.9759,-1,1
436,0.62997,0.9726,-1,1
437,0.63092,0.9696,-1,1
438,0.63188,0.9667,-1,1
439,0.63282,0.9634,-1,1
440,0.63377,0.9594,-1,1
441,0.6347,0.9553,-1,1
442,0.63564,0.9511,-1,1
443,0.63657,0.948,-1,1
444,0.6375,0.9449,-1,1
445,0.63843,0.942,-1,1
446,0.63935,0.9385,-1,1
447,0.64027,0.9347,-1,1
448,0.64118,0.9307,-1,1
449,0.64209,0.9271,-1,1
450,0.643,0.9238,-1,1
451,0.64391,0.9206,-1,1
452,0.64481,0.9177,-1,1
453,0.64571,0.9143,-1,1
454,0.64661,0.9107,-1,1
455,0.6475,0.9069,-1,1
456,0.64839,0.9036,-1,1
457,0.64927,0.9004,-1,1
458,0.65015,0.8972,-1,1
459,0.6519,0.8935,-1,1
460,0.65278,0.8898,-1,1
461,0.65365,0.8862,-1,1
462,0.65451,0.8823,-1,1
463,0.65538,0.8786,-1,1
464,0.65623,0.8751,-1,1
465,0.65709,0.8716,-1,1
466,0.65794,0.8678,-1,1
467,0.65879,0.8641,-1,1
468,0.65963,0.8603,-1,1
469,0.66048,0.857,-1,1
470,0.66132,0.8538,-1,1
471,0.66215,0.8506,-1,1
472,0.66299,0.847,-1,1
473,0.66382,0.8432,-1,1
474,0.66464,0.8398,-1,1
475,0.66546,0.8365,-1,1
476,0.66629,0.8334,-1,1
477,0.6671,0.8302,-1,1
478,0.66791,0.8271,-1,1
479,0.66872,0.8239,-1,1
480,0.66953,0.8204,-1,1
481,0.67033,0.8171,-1,1
482,0.67114,0.8146,-1,1
483,0.67194,0.8115,-1,1
484,0.67273,0.8078,-1,1
485,0.67352,0.804,-1,1
486,0.6743,0.8004,-1,1
487,0.67509,0.7971,-1,1
488,0.67587,0.7944,-1,1
489,0.67665,0.7915,-1,1
490,0.67743,0.7884,-1,1
491,0.6782,0.7849,-1,1
492,0.67897,0.7814,-1,1
493,0.67974,0.7791,-1,1
494,0.6805,0.7762,-1,1
495,0.68126,0.773,-1,1
496,0.68202,0.7696,-1,1
497,0.68277,0.7663,-1,1
498,0.68352,0.7629,-1,1
499,0.68427,0.7601,-1,1
500,0.68502,0.7577,-1,1
501,0.68576,0.7552,-1,1
502,0.6865,0.7523,-1,1
503,0.68724,0.7488,-1,1
504,0.68798,0.7462,-1,1
505,0.68944,0.7439,-1,1
506,0.69017,0.7415,-1,1
507,0.69017,0.7387,-1,1
508,0.69089,0.7359,-1,1
509,0.69161,0.7329,-1,1
510,0.69233,0.7298,-1,1
511,0.69305,0.727,-1,1
512,0.69376,0.7247,-1,1
513,0.69448,0.7227,-1,1
514,0.69519,0.7203,-1,1
515,0.6959,0.7176,-1,1
516,0.69731,0.7151,-1,1
517,0.69801,0.713,-1,1
518,0.69801,0.711,-1,1
519,0.69871,0.7091,-1,1
520,0.69941,0.7072,-1,1
521,0.70011,0.7053,-1,1
522,0.7008,0.7029,-1,1
523,0.7015,0.7005,-1,1
524,0.70219,0.6988,-1,1
525,0.70288,0.6979,-1,1
526,0.70357,0.6966,-1,1
527,0.70494,0.6947,-1,1
528,0.70563,0.6926,-1,1
529,0.70563,0.6903,-1,1
530,0.70631,0.6883,-1,1
531,0.70699,0.6868,-1,1
532,0.70767,0.6858,-1,1
533,0.70835,0.6847,-1,1
534,0.70903,0.6834,-1,1
535,0.70971,0.6815,-1,1
536,0.71038,0.6803,-1,1
537,0.71106,0.6798,-1,1
538,0.71241,0.6791,-1,1
539,0.71309,0.6786,-1,1
540,0.71376,0.6777,-1,1
541,0.71376,0.6767,-1,1
542,0.71443,0.6757,-1,1
543,0.7151,0.6748,-1,1
544,0.71577,0.674,-1,1
545,0.71645,0.6737,-1,1
546,0.71712,0.6734,-1,1
547,0.71779,0.6728,-1,1
548,0.71913,0.6724,-1,1
549,0.7198,0.6719,-1,1
550,0.72047,0.6718,-1,1
551,0.72047,0.6717,-1,1
552,0.72115,0.6716,-1,1
553,0.72182,0.6714,-1,1
554,0.72249,0.6714,-1,1
555,0.72316,0.6711,-1,1
556,0.72383,0.6707,-1,1
557,0.7245,0.6707,-1,1
558,0.72517,0.671,-1,1
559,0.72584,0.6714,-1,1
560,0.72719,0.6718,-1,1
561,0.72786,0.6718,-1,1
562,0.72786,0.6719,-1,1
563,0.72854,0.6721,-1,1
564,0.72921,0.6722,-1,1
565,0.72988,0.6727,-1,1
566,0.73056,0.6731,-1,1
567,0.73123,0.6736,-1,1
568,0.73191,0.6739,-1,1
569,0.73259,0.6744,-1,1
570,0.73395,0.6748,-1,1
571,0.73463,0.6758,-1,1
572,0.73531,0.6767,-1,1
573,0.73599,0.6779,-1,1
574,0.73668,0.679,-1,1
575,0.73736,0.6801,-1,1
576,0.73805,0.6812,-1,1
577,0.73873,0.6822,-1,1
578,0.73942,0.6834,-1,1
579,0.74011,0.6846,-1,1
580,0.74081,0.6862,-1,1
581,0.7415,0.6877,-1,1
582,0.7422,0.6893,-1,1
583,0.7429,0.691,-1,1
584,0.7436,0.6927,-1,1
585,0.74431,0.6946,-1,1
586,0.74501,0.6964,-1,1
587,0.74572,0.6985,-1,1
588,0.74643,0.7006,-1,1
589,0.74714,0.7028,-1,1
590,0.74786,0.7049,-1,1
591,0.74857,0.7069,-1,1
592,0.7493,0.7093,-1,1
593,0.75002,0.7117,-1,1
594,0.75075,0.7146,-1,1
595,0.75148,0.7174,-1,1
596,0.75221,0.7203,-1,1
597,0.75295,0.7228,-1,1
598,0.75368,0.7256,-1,1
599,0.75443,0.7285,-1,1
600,0.75517,0.7318,-1,1
601,0.75593,0.7355,-1,1
602,0.75668,0.7389,-1,1
603,0.75744,0.7423,-1,1
604,0.7582,0.7456,-1,1
605,0.75897,0.7491,-1,1
606,0.75974,0.7532,-1,1
607,0.76052,0.7576,-1,1
608,0.7613,0.7618,-1,1
609,0.76208,0.7658,-1,1
610,0.76367,0.7703,-1,1
611,0.76447,0.775,-1,1
612,0.76527,0.7802,-1,1
613,0.76609,0.7856,-1,1
614,0.7669,0.7909,-1,1
615,0.76772,0.796,-1,1
616,0.76854,0.8011,-1,1
617,0.76937,0.8064,-1,1
618,0.77021,0.8121,-1,1
619,0.77105,0.8182,-1,1
620,0.7719,0.8241,-1,1
621,0.77275,0.8301,-1,1
622,0.77448,0.8361,-1,1
623,0.77536,0.8423,-1,1
624,0.77536,0.8487,-1,1
625,0.77624,0.8548,-1,1
626,0.77712,0.8605,-1,1
627,0.778,0.8661,-1,1
628,0.7789,0.8718,-1,1
629,0.7798,0.8779,-1,1
630,0.78071,0.8844,-1,1
631,0.78163,0.8906,-1,1
632,0.78348,0.8966,-1,1
633,0.78442,0.9026,-1,1
634,0.78536,0.9088,-1,1
635,0.78536,0.9157,-1,1
636,0.78631,0.9224,-1,1
637,0.78726,0.929,-1,1
638,0.78822,0.9358,-1,1
639,0.78919,0.9423,-1,1
640,0.79017,0.9489,-1,1
641,0.79115,0.9554,-1,1
642,0.79313,0.9619,-1,1
643,0.79413,0.9683,-1,1
644,0.79514,0.975,-1,1
645,0.79615,0.9817,-1,1
646,0.79615,0.9892,-1,1
647,0.79718,0.9963,-1,1
648,0.79821,1.0032,-1,1
649,0.79925,1.0102,-1,1
650,0.80029,1.016,-1,1
651,0.80133,1.0223,-1,1
652,0.80239,1.0291,-1,1
653,0.80452,1.0364,-1,1
654,0.8056,1.0433,-1,1
655,0.80668,1.05,-1,1
656,0.80776,1.0564,-1,1
657,0.80776,1.0632,-1,1
658,0.80885,1.0692,-1,1
659,0.80995,1.075,-1,1
660,0.81106,1.0812,-1,1
661,0.81217,1.0874,-1,1
662,0.81442,1.0942,-1,1
663,0.81555,1.1002,-1,1
664,0.81668,1.1057,-1,1
665,0.81782,1.1112,-1,1
666,0.81896,1.1169,-1,1
667,0.82012,1.1232,-1,1
668,0.82128,1.1306,-1,1
669,0.82246,1.1383,-1,1
670,0.82363,1.1452,-1,1
671,0.8248,1.151,-1,1
672,0.82597,1.1555,-1,1
673,0.82716,1.1608,-1,1
674,0.82835,1.1672,-1,1
675,0.82956,1.1744,-1,1
676,0.83077,1.181,-1,1
677,0.83198,1.1865,-1,1
678,0.83319,1.1907,-1,1
679,0.8344,1.1944,-1,1
680,0.83562,1.1993,-1,1
681,0.83686,1.206,-1,1
682,0.83811,1.2133,-1,1
683,0.83935,1.2194,-1,1
684,0.84059,1.2237,-1,1
685,0.84183,1.2265,-1,1
686,0.84307,1.2299,-1,1
687,0.84434,1.2352,-1,1
688,0.84561,1.2421,-1,1
689,0.84689,1.2488,-1,1
690,0.84816,1.254,-1,1
691,0.84943,1.2567,-1,1
692,0.85069,1.2586,-1,1
693,0.85197,1.2621,-1,1
694,0.85327,1.268,-1,1
695,0.85458,1.2748,-1,1
696,0.85588,1.2808,-1,1
697,0.85717,1.2838,-1,1
698,0.85846,1.2849,-1,1
699,0.85976,1.2869,-1,1
700,0.86107,1.2909,-1,1
701,0.8624,1.297,-1,1
702,0.86372,1.303,-1,1
703,0.86504,1.3067,-1,1
704,0.86635,1.308,-1,1
705,0.86766,1.3085,-1,1
706,0.86899,1.3106,-1,1
707,0.87032,1.3152,-1,1
708,0.87167,1.3208,-1,1
709,0.87301,1.3249,-1,1
710,0.87434,1.3267,-1,1
711,0.87566,1.3269,-1,1
712,0.877,1.3277,-1,1
713,0.87834,1.3304,-1,1
714,0.8797,1.3347,-1,1
715,0.88105,1.3391,-1,1
716,0.8824,1.3414,-1,1
717,0.88375,1.3423,-1,1
718,0.88509,1.3428,-1,1
719,0.88645,1.3441,-1,1
720,0.8878,1.3467,-1,1
721,0.88916,1.3499,-1,1
722,0.89052,1.3525,-1,1
723,0.89188,1.354,-1,1
724,0.89324,1.3545,-1,1
725,0.8946,1.3549,-1,1
726,0.89732,1.3561,-1,1
727,0.89869,1.3579,-1,1
728,0.90006,1.3601,-1,1
729,0.90142,1.3618,-1,1
730,0.90279,1.3627,-1,1
731,0.90415,1.3626,-1,1
732,0.90551,1.3623,-1,1
733,0.90687,1.3626,-1,1
734,0.90824,1.3639,-1,1
735,0.90962,1.3656,-1,1
736,0.91235,1.3657,-1,1
737,0.9137,1.3647,-1,1
738,0.91506,1.3634,-1,1
739,0.91642,1.3631,-1,1
740,0.9178,1.3641,-1,1
741,0.9178,1.3654,-1,1
742,0.92054,1.366,-1,1
743,0.92189,1.3649,-1,1
744,0.92324,1.363,-1,1
745,0.9246,1.3613,-1,1
746,0.92597,1.362,-1,1
747,0.92734,1.3628,-1,1
748,0.93005,1.3624,-1,1
749,0.9314,1.3605,-1,1
750,0.93275,1.3579,-1,1
751,0.93411,1.3565,-1,1
752,0.93547,1.3565,-1,1
753,0.93683,1.3576,-1,1
754,0.93819,1.3579,-1,1
755,0.93954,1.3571,-1,1
756,0.94089,1.3549,-1,1
757,0.94223,1.3531,-1,1
758,0.94358,1.3528,-1,1
759,0.94494,1.3535,-1,1
760,0.94629,1.3539,-1,1
761,0.94764,1.3532,-1,1
762,0.94899,1.3513,-1,1
763,0.95033,1.3491,-1,1
764,0.95166,1.3473,-1,1
765,0.953,1.3463,-1,1
766,0.95435,1.3465,-1,1
767,0.9557,1.3468,-1,1
768,0.95704,1.3461,-1,1
769,0.95971,1.3437,-1,1
770,0.96104,1.3412,-1,1
771,0.96237,1.3396,-1,1
772,0.96371,1.3393,-1,1
773,0.96505,1.3392,-1,1
774,0.96639,1.3386,-1,1
775,0.96771,1.3371,-1,1
776,0.96903,1.3343,-1,1
777,0.97035,1.3319,-1,1
778,0.97168,1.3307,-1,1
779,0.97434,1.3304,-1,1
780,0.97566,1.3293,-1,1
781,0.97697,1.3272,-1,1
782,0.97828,1.3244,-1,1
783,0.9796,1.3221,-1,1
784,0.98092,1.3206,-1,1
785,0.98223,1.3197,-1,1
786,0.98354,1.3189,-1,1
787,0.98485,1.3173,-1,1
788,0.98616,1.3148,-1,1
789,0.98747,1.3128,-1,1
790,0.98877,1.3115,-1,1
791,0.99008,1.3107,-1,1
792,0.99138,1.3097,-1,1
793,0.99268,1.3081,-1,1
794,0.99398,1.3064,-1,1
795,0.99528,1.3047,-1,1
796,0.99658,1.3031,-1,1
797,0.99787,1.3019,-1,1
798,0.99917,1.3008,-1,1
799,1.00046,1.2993,-1,1
800,1.00175,1.298,-1,1
801,1.00304,1.2963,-1,1
802,1.00432,1.2943,-1,1
803,1.00561,1.2927,-1,1
804,1.0069,1.2914,-1,1
805,1.00818,1.2899,-1,1
806,1.00946,1.2887,-1,1
807,1.01074,1.287,-1,1
808,1.01202,1.285,-1,1
809,1.01329,1.283,-1,1
810,1.01457,1.2814,-1,1
811,1.01584,1.28,-1,1
812,1.01712,1.2792,-1,1
813,1.01838,1.2773,-1,1
814,1.01965,1.2749,-1,1
815,1.02091,1.2729,-1,1
816,1.02218,1.2711,-1,1
817,1.02344,1.2698,-1,1
818,1.0247,1.2686,-1,1
819,1.02596,1.2673,-1,1
820,1.02722,1.2649,-1,1
821,1.02847,1.2624,-1,1
822,1.02972,1.2602,-1,1
823,1.03097,1.2591,-1,1
824,1.03223,1.2581,-1,1
825,1.03347,1.2563,-1,1
826,1.03471,1.2539,-1,1
827,1.03595,1.2512,-1,1
828,1.03719,1.2487,-1,1
829,1.03843,1.247,-1,1
830,1.03968,1.2461,-1,1
831,1.04092,1.245,-1,1
832,1.04215,1.2427,-1,1
833,1.04337,1.2398,-1,1
834,1.0446,1.2371,-1,1
835,1.04582,1.2351,-1,1
836,1.04705,1.2337,-1,1
837,1.04828,1.2327,-1,1
838,1.0495,1.2313,-1,1
839,1.05072,1.2288,-1,1
