cnt,pos,speed,Dir,Force,
1,0,1.006,-1,1
2,0,1.0154,-1,1
3,0.00106001,1.0239,-1,1
4,0.00320005,1.0339,-1,1
5,0.00320005,1.0432,-1,1
6,0.00538015,1.0516,-1,1
7,0.00648022,1.0599,-1,1
8,0.00758982,1.0685,-1,1
9,0.00870991,1.0777,-1,1
10,0.00984001,1.0872,-1,1
11,0.0109801,1.0968,-1,1
12,0.0121298,1.1062,-1,1
13,0.0132899,1.1161,-1,1
14,0.0144501,1.1245,-1,1
15,0.0156198,1.1335,-1,1
16,0.0168099,1.1431,-1,1
17,0.0180101,1.1531,-1,1
18,0.0192199,1.163,-1,1
19,0.0204301,1.1725,-1,1
20,0.0216498,1.1812,-1,1
21,0.0228801,1.1896,-1,1
22,0.0241199,1.1982,-1,1
23,0.0253701,1.2081,-1,1
24,0.0266399,1.2185,-1,1
25,0.0279098,1.2287,-1,1
26,0.0291901,1.2376,-1,1
27,0.0304699,1.2457,-1,1
28,0.0330601,1.2552,-1,1
29,0.03438,1.2656,-1,1
30,0.0357099,1.2767,-1,1
31,0.0370398,1.2872,-1,1
32,0.0383701,1.2965,-1,1
33,0.0397,1.3047,-1,1
34,0.04106,1.3136,-1,1
35,0.0424299,1.3232,-1,1
36,0.0438099,1.3336,-1,1
37,0.0451899,1.3437,-1,1
38,0.0465698,1.3512,-1,1
39,0.0479498,1.3574,-1,1
40,0.0493498,1.3644,-1,1
41,0.0507698,1.373,-1,1
42,0.0521998,1.3828,-1,1
43,0.0536199,1.3916,-1,1
44,0.0550399,1.398,-1,1
45,0.0564599,1.4036,-1,1
46,0.05791,1.41,-1,1
47,0.05937,1.418,-1,1
48,0.0608301,1.4265,-1,1
49,0.0622902,1.4343,-1,1
50,0.0637498,1.4401,-1,1
51,0.0667,1.4466,-1,1
52,0.0682001,1.4534,-1,1
53,0.0696898,1.4604,-1,1
54,0.0711799,1.4677,-1,1
55,0.07267,1.4742,-1,1
56,0.0741801,1.4803,-1,1
57,0.0756998,1.4859,-1,1
58,0.07722,1.4917,-1,1
59,0.0787401,1.4976,-1,1
60,0.0802498,1.5037,-1,1
61,0.08178,1.5091,-1,1
62,0.0848598,1.5137,-1,1
63,0.0848598,1.5185,-1,1
64,0.0864,1.5235,-1,1
65,0.0879402,1.5285,-1,1
66,0.0910401,1.5334,-1,1
67,0.0910401,1.5371,-1,1
68,0.0925999,1.541,-1,1
69,0.0957298,1.5453,-1,1
70,0.0973001,1.5502,-1,1
71,0.0988698,1.5539,-1,1
72,0.10045,1.5574,-1,1
73,0.10203,1.5609,-1,1
74,0.10361,1.5649,-1,1
75,0.10519,1.5693,-1,1
76,0.10678,1.573,-1,1
77,0.10837,1.5766,-1,1
78,0.10996,1.5797,-1,1
79,0.11156,1.5829,-1,1
80,0.11316,1.586,-1,1
81,0.11476,1.5892,-1,1
82,0.11637,1.5923,-1,1
83,0.11797,1.5949,-1,1
84,0.11958,1.5971,-1,1
85,0.12119,1.5995,-1,1
86,0.1228,1.6021,-1,1
87,0.12442,1.605,-1,1
88,0.12604,1.6074,-1,1
89,0.12765,1.6094,-1,1
90,0.12927,1.6114,-1,1
91,0.13089,1.6132,-1,1
92,0.13252,1.6151,-1,1
93,0.13414,1.6172,-1,1
94,0.13577,1.6191,-1,1
95,0.13739,1.6206,-1,1
96,0.13902,1.6218,-1,1
97,0.14065,1.6231,-1,1
98,0.14228,1.6247,-1,1
99,0.14392,1.6264,-1,1
100,0.14555,1.6276,-1,1
101,0.14718,1.6285,-1,1
102,0.14881,1.6293,-1,1
103,0.15045,1.6301,-1,1
104,0.15208,1.6313,-1,1
105,0.15372,1.6323,-1,1
106,0.15535,1.6327,-1,1
107,0.15698,1.6325,-1,1
108,0.15861,1.6327,-1,1
109,0.16025,1.6331,-1,1
110,0.16188,1.6336,-1,1
111,0.16352,1.6337,-1,1
112,0.16515,1.6334,-1,1
113,0.16678,1.6331,-1,1
114,0.16841,1.6327,-1,1
115,0.17004,1.6323,-1,1
116,0.17167,1.6319,-1,1
117,0.17329,1.6314,-1,1
118,0.17492,1.6305,-1,1
119,0.17654,1.6296,-1,1
120,0.17817,1.6287,-1,1
121,0.17979,1.6275,-1,1
122,0.18141,1.6264,-1,1
123,0.18303,1.6252,-1,1
124,0.18465,1.6239,-1,1
125,0.18626,1.6225,-1,1
126,0.18788,1.6209,-1,1
127,0.18949,1.6194,-1,1
128,0.1911,1.6178,-1,1
129,0.1927,1.616,-1,1
130,0.19431,1.6139,-1,1
131,0.19591,1.612,-1,1
132,0.19751,1.61,-1,1
133,0.19911,1.6082,-1,1
134,0.20071,1.6061,-1,1
135,0.2023,1.6038,-1,1
136,0.20389,1.6017,-1,1
137,0.20549,1.5999,-1,1
138,0.20707,1.598,-1,1
139,0.20866,1.5957,-1,1
140,0.21024,1.5932,-1,1
141,0.21182,1.5909,-1,1
142,0.2134,1.5887,-1,1
143,0.21498,1.5866,-1,1
144,0.21655,1.5842,-1,1
145,0.21812,1.5817,-1,1
146,0.21969,1.5791,-1,1
147,0.22125,1.5763,-1,1
148,0.22281,1.5738,-1,1
149,0.22438,1.5715,-1,1
150,0.22593,1.5689,-1,1
151,0.22748,1.5663,-1,1
152,0.22903,1.5635,-1,1
153,0.23058,1.5607,-1,1
154,0.23213,1.5578,-1,1
155,0.23367,1.5552,-1,1
156,0.23521,1.5528,-1,1
157,0.23675,1.5502,-1,1
158,0.23829,1.5474,-1,1
159,0.23982,1.5441,-1,1
160,0.24134,1.5412,-1,1
161,0.24287,1.5382,-1,1
162,0.24439,1.5357,-1,1
163,0.24591,1.5329,-1,1
164,0.24743,1.5303,-1,1
165,0.24894,1.527,-1,1
166,0.25045,1.5234,-1,1
167,0.25195,1.5201,-1,1
168,0.25346,1.5174,-1,1
169,0.25497,1.5149,-1,1
170,0.25647,1.5124,-1,1
171,0.25796,1.5091,-1,1
172,0.25944,1.5053,-1,1
173,0.26093,1.502,-1,1
174,0.26242,1.4989,-1,1
175,0.26391,1.4966,-1,1
176,0.26539,1.4938,-1,1
177,0.26686,1.4907,-1,1
178,0.26833,1.487,-1,1
179,0.2698,1.4834,-1,1
180,0.27127,1.4801,-1,1
181,0.27273,1.4777,-1,1
182,0.2742,1.4753,-1,1
183,0.27565,1.4722,-1,1
184,0.27711,1.4689,-1,1
185,0.27856,1.4652,-1,1
186,0.28,1.4619,-1,1
187,0.28144,1.4586,-1,1
188,0.28288,1.4551,-1,1
189,0.28432,1.4518,-1,1
190,0.28575,1.4482,-1,1
191,0.28717,1.4443,-1,1
192,0.2886,1.4401,-1,1
193,0.29001,1.4361,-1,1
194,0.29143,1.4326,-1,1
195,0.29285,1.4293,-1,1
196,0.29426,1.4262,-1,1
197,0.29567,1.4228,-1,1
198,0.29707,1.419,-1,1
199,0.29847,1.4151,-1,1
200,0.29986,1.4115,-1,1
201,0.30125,1.408,-1,1
202,0.30264,1.405,-1,1
203,0.30403,1.4017,-1,1
204,0.30541,1.3977,-1,1
205,0.30679,1.3936,-1,1
206,0.30816,1.3899,-1,1
207,0.30954,1.3867,-1,1
208,0.31091,1.3838,-1,1
209,0.31227,1.3804,-1,1
210,0.31363,1.3766,-1,1
211,0.31498,1.3729,-1,1
212,0.31634,1.3693,-1,1
213,0.31769,1.3661,-1,1
214,0.31904,1.3632,-1,1
215,0.32039,1.36,-1,1
216,0.32173,1.3564,-1,1
217,0.32307,1.3529,-1,1
218,0.3244,1.3496,-1,1
219,0.32574,1.3467,-1,1
220,0.32707,1.3439,-1,1
221,0.32839,1.3407,-1,1
222,0.32971,1.3375,-1,1
223,0.33103,1.3341,-1,1
224,0.33235,1.3308,-1,1
225,0.33367,1.3279,-1,1
226,0.33498,1.3248,-1,1
227,0.33628,1.3215,-1,1
228,0.33758,1.3181,-1,1
229,0.33889,1.3149,-1,1
230,0.34019,1.312,-1,1
231,0.34148,1.3092,-1,1
232,0.34277,1.3059,-1,1
233,0.34406,1.3027,-1,1
234,0.34534,1.2991,-1,1
235,0.34662,1.2958,-1,1
236,0.34791,1.293,-1,1
237,0.34918,1.29,-1,1
238,0.35046,1.287,-1,1
239,0.35172,1.2836,-1,1
240,0.35298,1.2796,-1,1
241,0.35425,1.2763,-1,1
242,0.35551,1.2735,-1,1
243,0.35677,1.2708,-1,1
244,0.35802,1.2681,-1,1
245,0.35927,1.2647,-1,1
246,0.36052,1.2609,-1,1
247,0.36176,1.2575,-1,1
248,0.363,1.2544,-1,1
249,0.36424,1.2518,-1,1
250,0.36548,1.2495,-1,1
251,0.36793,1.2456,-1,1
252,0.36916,1.2416,-1,1
253,0.37038,1.2379,-1,1
254,0.3716,1.2349,-1,1
255,0.37282,1.2321,-1,1
256,0.37403,1.2289,-1,1
257,0.37524,1.2255,-1,1
258,0.37645,1.2216,-1,1
259,0.37765,1.2181,-1,1
260,0.37886,1.2148,-1,1
261,0.38006,1.2128,-1,1
262,0.38126,1.2102,-1,1
263,0.38245,1.2063,-1,1
264,0.38363,1.2026,-1,1
265,0.386,1.1994,-1,1
266,0.38719,1.1966,-1,1
267,0.38837,1.1937,-1,1
268,0.38954,1.1907,-1,1
269,0.38954,1.1867,-1,1
270,0.39071,1.1825,-1,1
271,0.39304,1.1788,-1,1
272,0.39421,1.1759,-1,1
273,0.39537,1.1737,-1,1
274,0.39652,1.1704,-1,1
275,0.39767,1.1662,-1,1
276,0.39881,1.1621,-1,1
277,0.39995,1.1584,-1,1
278,0.4011,1.1556,-1,1
279,0.40224,1.1533,-1,1
280,0.40338,1.1506,-1,1
281,0.4045,1.1466,-1,1
282,0.40562,1.142,-1,1
283,0.40674,1.1378,-1,1
284,0.40787,1.1345,-1,1
285,0.40898,1.1312,-1,1
286,0.4112,1.1275,-1,1
287,0.4123,1.1231,-1,1
288,0.4134,1.1184,-1,1
289,0.4145,1.1137,-1,1
290,0.41559,1.1095,-1,1
291,0.41668,1.1059,-1,1
292,0.41777,1.1024,-1,1
293,0.41885,1.0982,-1,1
294,0.41992,1.0934,-1,1
295,0.42099,1.0894,-1,1
296,0.42206,1.086,-1,1
297,0.42313,1.0827,-1,1
298,0.42419,1.0791,-1,1
299,0.42525,1.0752,-1,1
300,0.4263,1.0712,-1,1
301,0.42735,1.0669,-1,1
302,0.4284,1.0628,-1,1
303,0.42944,1.0592,-1,1
304,0.43048,1.0558,-1,1
305,0.43151,1.0521,-1,1
306,0.43255,1.0481,-1,1
307,0.43357,1.0443,-1,1
308,0.4346,1.0404,-1,1
309,0.43561,1.0364,-1,1
310,0.43663,1.0324,-1,1
311,0.43764,1.0288,-1,1
312,0.43865,1.025,-1,1
313,0.43966,1.0216,-1,1
314,0.44066,1.0174,-1,1
315,0.44166,1.0128,-1,1
316,0.44363,1.0082,-1,1
317,0.44462,1.0037,-1,1
318,0.4456,0.9996,-1,1
319,0.4456,0.996,-1,1
320,0.44658,0.9927,-1,1
321,0.44756,0.9886,-1,1
322,0.44853,0.9845,-1,1
323,0.45045,0.9793,-1,1
324,0.45141,0.9751,-1,1
325,0.45236,0.9714,-1,1
326,0.45331,0.9679,-1,1
327,0.45426,0.9647,-1,1
328,0.45521,0.9612,-1,1
329,0.45615,0.9571,-1,1
330,0.45708,0.952,-1,1
331,0.45801,0.9478,-1,1
332,0.45893,0.9437,-1,1
333,0.45986,0.9404,-1,1
334,0.46078,0.9369,-1,1
335,0.46169,0.9332,-1,1
336,0.4626,0.9292,-1,1
337,0.46351,0.9252,-1,1
338,0.46442,0.9211,-1,1
339,0.46532,0.9169,-1,1
340,0.46621,0.9131,-1,1
341,0.4671,0.909,-1,1
342,0.46798,0.9051,-1,1
343,0.46887,0.9013,-1,1
344,0.46975,0.8975,-1,1
345,0.47063,0.8937,-1,1
346,0.4715,0.89,-1,1
347,0.47237,0.8857,-1,1
348,0.47323,0.8813,-1,1
349,0.47409,0.8772,-1,1
350,0.47495,0.8735,-1,1
351,0.4758,0.8698,-1,1
352,0.47665,0.8662,-1,1
353,0.47749,0.8622,-1,1
354,0.47833,0.8583,-1,1
355,0.47917,0.8544,-1,1
356,0.48001,0.8504,-1,1
357,0.48083,0.8464,-1,1
358,0.48166,0.8426,-1,1
359,0.48248,0.8389,-1,1
360,0.4833,0.8352,-1,1
361,0.48411,0.8315,-1,1
362,0.48492,0.8278,-1,1
363,0.48573,0.824,-1,1
364,0.48654,0.8203,-1,1
365,0.48734,0.8166,-1,1
366,0.48813,0.8129,-1,1
367,0.48893,0.8092,-1,1
368,0.48971,0.8054,-1,1
369,0.4905,0.8017,-1,1
370,0.49128,0.798,-1,1
371,0.49206,0.7946,-1,1
372,0.49283,0.7908,-1,1
373,0.4936,0.7871,-1,1
374,0.49437,0.7831,-1,1
375,0.49513,0.7793,-1,1
376,0.4959,0.7759,-1,1
377,0.49665,0.7726,-1,1
378,0.4974,0.7691,-1,1
379,0.49815,0.7656,-1,1
380,0.49889,0.7617,-1,1
381,0.49964,0.7578,-1,1
382,0.50038,0.7543,-1,1
383,0.50111,0.751,-1,1
384,0.50184,0.7474,-1,1
385,0.50257,0.7438,-1,1
386,0.50329,0.7398,-1,1
387,0.50401,0.736,-1,1
388,0.50473,0.7329,-1,1
389,0.50545,0.7295,-1,1
390,0.50616,0.7263,-1,1
391,0.50686,0.7227,-1,1
392,0.50756,0.7188,-1,1
393,0.50826,0.7149,-1,1
394,0.50896,0.7117,-1,1
395,0.50965,0.7084,-1,1
396,0.51034,0.7051,-1,1
397,0.51103,0.7017,-1,1
398,0.51171,0.6979,-1,1
399,0.51239,0.6944,-1,1
400,0.51307,0.6912,-1,1
401,0.51374,0.6882,-1,1
402,0.51442,0.6853,-1,1
403,0.51508,0.682,-1,1
404,0.51574,0.6785,-1,1
405,0.5164,0.6751,-1,1
406,0.51706,0.672,-1,1
407,0.51772,0.6691,-1,1
408,0.51837,0.666,-1,1
409,0.51902,0.663,-1,1
410,0.51967,0.6599,-1,1
411,0.52031,0.6567,-1,1
412,0.52095,0.6537,-1,1
413,0.52159,0.6511,-1,1
414,0.52222,0.6481,-1,1
415,0.52286,0.6451,-1,1
416,0.52348,0.6421,-1,1
417,0.52411,0.639,-1,1
418,0.52474,0.6364,-1,1
419,0.52536,0.6338,-1,1
420,0.52598,0.6309,-1,1
421,0.52659,0.6281,-1,1
422,0.52721,0.6252,-1,1
423,0.52782,0.6228,-1,1
424,0.52843,0.6207,-1,1
425,0.52904,0.6185,-1,1
426,0.52964,0.616,-1,1
427,0.53025,0.6134,-1,1
428,0.53084,0.6108,-1,1
429,0.53144,0.6081,-1,1
430,0.53204,0.6059,-1,1
431,0.53263,0.6039,-1,1
432,0.53322,0.6019,-1,1
433,0.53382,0.5995,-1,1
434,0.5344,0.5971,-1,1
435,0.53499,0.5949,-1,1
436,0.53557,0.593,-1,1
437,0.53616,0.5914,-1,1
438,0.53674,0.5898,-1,1
439,0.53732,0.5884,-1,1
440,0.5379,0.5866,-1,1
441,0.53848,0.5846,-1,1
442,0.53905,0.5827,-1,1
443,0.53962,0.5809,-1,1
444,0.5402,0.5793,-1,1
445,0.54077,0.5778,-1,1
446,0.54134,0.5764,-1,1
447,0.54191,0.5749,-1,1
448,0.54248,0.5733,-1,1
449,0.54304,0.5717,-1,1
450,0.54361,0.5706,-1,1
451,0.54417,0.5697,-1,1
452,0.54474,0.5688,-1,1
453,0.5453,0.5677,-1,1
454,0.54586,0.5667,-1,1
455,0.54642,0.5655,-1,1
456,0.54698,0.5643,-1,1
457,0.54754,0.5633,-1,1
458,0.5481,0.5625,-1,1
459,0.54866,0.5617,-1,1
460,0.54921,0.5607,-1,1
461,0.54977,0.5596,-1,1
462,0.55032,0.5584,-1,1
463,0.55088,0.5575,-1,1
464,0.55143,0.5566,-1,1
465,0.55198,0.556,-1,1
466,0.55254,0.5555,-1,1
467,0.55309,0.5549,-1,1
468,0.55364,0.5542,-1,1
469,0.55419,0.5534,-1,1
470,0.55474,0.5525,-1,1
471,0.55529,0.5519,-1,1
472,0.55584,0.5515,-1,1
473,0.55639,0.5511,-1,1
474,0.55694,0.5507,-1,1
475,0.55748,0.5502,-1,1
476,0.55803,0.5495,-1,1
477,0.55858,0.5488,-1,1
478,0.55912,0.5482,-1,1
479,0.55967,0.5479,-1,1
480,0.56022,0.5478,-1,1
481,0.56076,0.5476,-1,1
482,0.56131,0.5473,-1,1
483,0.56186,0.547,-1,1
484,0.5624,0.5466,-1,1
485,0.56295,0.5463,-1,1
486,0.56349,0.5462,-1,1
487,0.56404,0.5463,-1,1
488,0.56459,0.5463,-1,1
489,0.56513,0.5463,-1,1
490,0.56568,0.5464,-1,1
491,0.56623,0.5465,-1,1
492,0.56678,0.5467,-1,1
493,0.56733,0.5471,-1,1
494,0.56843,0.5477,-1,1
495,0.56898,0.5483,-1,1
496,0.56953,0.5489,-1,1
497,0.57008,0.5495,-1,1
498,0.57064,0.5502,-1,1
499,0.57119,0.551,-1,1
500,0.57175,0.5518,-1,1
501,0.57231,0.5529,-1,1
502,0.57287,0.5541,-1,1
503,0.57343,0.5551,-1,1
504,0.57399,0.5561,-1,1
505,0.57455,0.5572,-1,1
506,0.57512,0.5586,-1,1
507,0.57569,0.5604,-1,1
508,0.57626,0.5623,-1,1
509,0.57683,0.5641,-1,1
510,0.57741,0.566,-1,1
511,0.57798,0.5678,-1,1
512,0.57856,0.5697,-1,1
513,0.57915,0.572,-1,1
514,0.57973,0.5745,-1,1
515,0.58032,0.5771,-1,1
516,0.58091,0.5797,-1,1
517,0.58151,0.582,-1,1
518,0.58211,0.5846,-1,1
519,0.58271,0.5875,-1,1
520,0.58331,0.5907,-1,1
521,0.58392,0.5939,-1,1
522,0.58454,0.5974,-1,1
523,0.58515,0.6007,-1,1
524,0.58577,0.6042,-1,1
525,0.5864,0.6079,-1,1
526,0.58703,0.6117,-1,1
527,0.58766,0.6159,-1,1
528,0.5883,0.6202,-1,1
529,0.58894,0.6241,-1,1
530,0.58959,0.6282,-1,1
531,0.59024,0.6327,-1,1
532,0.5909,0.6373,-1,1
533,0.59156,0.6418,-1,1
534,0.59223,0.6464,-1,1
535,0.5929,0.6508,-1,1
536,0.59357,0.6562,-1,1
537,0.59495,0.6616,-1,1
538,0.59564,0.667,-1,1
539,0.59564,0.6728,-1,1
540,0.59634,0.6779,-1,1
541,0.59705,0.683,-1,1
542,0.59776,0.688,-1,1
543,0.59848,0.6938,-1,1
544,0.59921,0.7003,-1,1
545,0.60067,0.707,-1,1
546,0.60142,0.7128,-1,1
547,0.60216,0.7185,-1,1
548,0.60292,0.7247,-1,1
549,0.60368,0.7314,-1,1
550,0.60446,0.7387,-1,1
551,0.60523,0.746,-1,1
552,0.60601,0.7531,-1,1
553,0.6068,0.7601,-1,1
554,0.6076,0.7667,-1,1
555,0.60841,0.7736,-1,1
556,0.60922,0.7807,-1,1
557,0.61004,0.7878,-1,1
558,0.61169,0.7951,-1,1
559,0.61169,0.8025,-1,1
560,0.61253,0.81,-1,1
561,0.61423,0.8179,-1,1
562,0.61423,0.8261,-1,1
563,0.6151,0.8341,-1,1
564,0.61684,0.8417,-1,1
565,0.61772,0.8492,-1,1
566,0.61861,0.857,-1,1
567,0.61951,0.8651,-1,1
568,0.62042,0.8728,-1,1
569,0.62133,0.8799,-1,1
570,0.62225,0.887,-1,1
571,0.62318,0.8941,-1,1
572,0.62411,0.9014,-1,1
573,0.62506,0.9089,-1,1
574,0.62601,0.9164,-1,1
575,0.62696,0.9238,-1,1
576,0.62792,0.9311,-1,1
577,0.6289,0.9384,-1,1
578,0.62988,0.9458,-1,1
579,0.63086,0.9535,-1,1
580,0.63186,0.9611,-1,1
581,0.63286,0.9686,-1,1
582,0.63387,0.9759,-1,1
583,0.63489,0.9831,-1,1
584,0.63591,0.9905,-1,1
585,0.63694,0.998,-1,1
586,0.63798,1.0054,-1,1
587,0.63902,1.0127,-1,1
588,0.64008,1.0199,-1,1
589,0.64114,1.0273,-1,1
590,0.6422,1.0345,-1,1
591,0.64328,1.0415,-1,1
592,0.64435,1.0484,-1,1
593,0.64544,1.0553,-1,1
594,0.64653,1.0623,-1,1
595,0.64764,1.0697,-1,1
596,0.64875,1.0769,-1,1
597,0.64986,1.0839,-1,1
598,0.65098,1.0904,-1,1
599,0.6521,1.0967,-1,1
600,0.65324,1.1033,-1,1
601,0.65438,1.1101,-1,1
602,0.65552,1.117,-1,1
603,0.65668,1.124,-1,1
604,0.65784,1.1306,-1,1
605,0.659,1.1366,-1,1
606,0.66017,1.1423,-1,1
607,0.66134,1.1482,-1,1
608,0.66252,1.1546,-1,1
609,0.66371,1.161,-1,1
610,0.66491,1.1673,-1,1
611,0.66611,1.1731,-1,1
612,0.66731,1.1788,-1,1
613,0.66851,1.1838,-1,1
614,0.66973,1.1891,-1,1
615,0.67095,1.1948,-1,1
616,0.67217,1.2007,-1,1
617,0.6734,1.2064,-1,1
618,0.67464,1.2115,-1,1
619,0.67587,1.2163,-1,1
620,0.67711,1.2209,-1,1
621,0.67836,1.2256,-1,1
622,0.67961,1.2304,-1,1
623,0.68087,1.2358,-1,1
624,0.68213,1.2406,-1,1
625,0.68339,1.2448,-1,1
626,0.68466,1.2486,-1,1
627,0.68593,1.2526,-1,1
628,0.6872,1.2569,-1,1
629,0.68848,1.261,-1,1
630,0.68977,1.2653,-1,1
631,0.69105,1.2691,-1,1
632,0.69233,1.2725,-1,1
633,0.69363,1.2757,-1,1
634,0.69492,1.279,-1,1
635,0.69622,1.2823,-1,1
636,0.69752,1.2859,-1,1
637,0.69882,1.289,-1,1
638,0.70012,1.2917,-1,1
639,0.70143,1.2946,-1,1
640,0.70274,1.2972,-1,1
641,0.70405,1.3,-1,1
642,0.70536,1.3028,-1,1
643,0.70668,1.3051,-1,1
644,0.70799,1.3076,-1,1
645,0.70932,1.3102,-1,1
646,0.71064,1.3124,-1,1
647,0.71196,1.3144,-1,1
648,0.71328,1.3164,-1,1
649,0.71461,1.3183,-1,1
650,0.71594,1.3201,-1,1
651,0.71727,1.322,-1,1
652,0.7186,1.3238,-1,1
653,0.71993,1.3254,-1,1
654,0.72126,1.3267,-1,1
655,0.7226,1.3279,-1,1
656,0.72393,1.3293,-1,1
657,0.72527,1.3308,-1,1
658,0.7266,1.3321,-1,1
659,0.72794,1.3331,-1,1
660,0.72928,1.3339,-1,1
661,0.73062,1.3347,-1,1
662,0.73196,1.3356,-1,1
663,0.7333,1.3368,-1,1
664,0.73464,1.3374,-1,1
665,0.73732,1.3378,-1,1
666,0.73866,1.3383,-1,1
667,0.74,1.3392,-1,1
668,0.74135,1.3402,-1,1
669,0.74269,1.341,-1,1
670,0.74403,1.3413,-1,1
671,0.74537,1.341,-1,1
672,0.74671,1.341,-1,1
673,0.74806,1.3414,-1,1
674,0.7494,1.3425,-1,1
675,0.75075,1.343,-1,1
676,0.75208,1.3425,-1,1
677,0.75342,1.3417,-1,1
678,0.75476,1.3409,-1,1
679,0.7561,1.341,-1,1
680,0.75745,1.3416,-1,1
681,0.75879,1.3421,-1,1
682,0.76012,1.3415,-1,1
683,0.76146,1.3402,-1,1
684,0.76279,1.339,-1,1
685,0.76413,1.3389,-1,1
686,0.76681,1.3391,-1,1
687,0.76681,1.3384,-1,1
688,0.76814,1.3372,-1,1
689,0.76947,1.3353,-1,1
690,0.7708,1.3339,-1,1
691,0.77214,1.3334,-1,1
692,0.77347,1.3337,-1,1
693,0.77481,1.3337,-1,1
694,0.77613,1.3321,-1,1
695,0.77745,1.3301,-1,1
696,0.7801,1.3292,-1,1
697,0.78144,1.3294,-1,1
698,0.78276,1.3294,-1,1
699,0.78276,1.3286,-1,1
700,0.78408,1.3273,-1,1
701,0.78539,1.3248,-1,1
702,0.78671,1.3222,-1,1
703,0.78803,1.321,-1,1
704,0.79067,1.321,-1,1
705,0.79198,1.3198,-1,1
706,0.79328,1.3171,-1,1
707,0.79458,1.3139,-1,1
708,0.79589,1.312,-1,1
709,0.7972,1.3114,-1,1
710,0.79851,1.3107,-1,1
711,0.79981,1.3097,-1,1
712,0.80111,1.3077,-1,1
713,0.8024,1.3046,-1,1
714,0.80369,1.3019,-1,1
715,0.80499,1.3008,-1,1
716,0.80629,1.3004,-1,1
717,0.80758,1.2991,-1,1
718,0.80886,1.2964,-1,1
719,0.81013,1.2932,-1,1
720,0.81142,1.2903,-1,1
721,0.8127,1.2889,-1,1
722,0.81399,1.2881,-1,1
723,0.81526,1.2864,-1,1
724,0.81653,1.2838,-1,1
725,0.81779,1.2804,-1,1
726,0.81906,1.2776,-1,1
727,0.82034,1.2762,-1,1
728,0.82161,1.2751,-1,1
729,0.82287,1.2732,-1,1
730,0.82412,1.2703,-1,1
731,0.82537,1.2664,-1,1
732,0.82662,1.2633,-1,1
733,0.82788,1.262,-1,1
734,0.82914,1.261,-1,1
735,0.83039,1.2592,-1,1
736,0.83162,1.256,-1,1
737,0.83285,1.2518,-1,1
738,0.83409,1.2485,-1,1
739,0.83533,1.2468,-1,1
740,0.83658,1.2461,-1,1
741,0.83782,1.245,-1,1
742,0.83904,1.242,-1,1
743,0.84026,1.2375,-1,1
744,0.84147,1.2335,-1,1
745,0.8427,1.2314,-1,1
746,0.84393,1.2306,-1,1
747,0.84515,1.2299,-1,1
748,0.84757,1.2266,-1,1
749,0.84877,1.222,-1,1
750,0.84997,1.2176,-1,1
751,0.85118,1.2152,-1,1
752,0.85239,1.2141,-1,1
753,0.8536,1.213,-1,1
754,0.85479,1.2106,-1,1
755,0.85598,1.2064,-1,1
756,0.85715,1.2013,-1,1
757,0.85954,1.1985,-1,1
758,0.86073,1.1974,-1,1
759,0.86192,1.1959,-1,1
760,0.86309,1.1929,-1,1
761,0.86309,1.188,-1,1
762,0.86425,1.1832,-1,1
763,0.86542,1.1792,-1,1
764,0.86659,1.1778,-1,1
765,0.86894,1.1769,-1,1
766,0.8701,1.1751,-1,1
767,0.87126,1.1705,-1,1
768,0.8724,1.1659,-1,1
769,0.87355,1.1628,-1,1
770,0.87472,1.1619,-1,1
771,0.87588,1.1617,-1,1
772,0.87703,1.1607,-1,1
773,0.87817,1.1584,-1,1
774,0.87931,1.1538,-1,1
775,0.88044,1.1496,-1,1
776,0.88273,1.1486,-1,1
777,0.88388,1.1481,-1,1
778,0.88501,1.147,-1,1
779,0.88614,1.144,-1,1
780,0.88725,1.1394,-1,1
781,0.88838,1.1355,-1,1
782,0.88951,1.1337,-1,1
783,0.89065,1.1334,-1,1
784,0.89178,1.1332,-1,1
785,0.8929,1.1317,-1,1
786,0.89401,1.1274,-1,1
787,0.89511,1.1234,-1,1
788,0.89623,1.1213,-1,1
789,0.89735,1.1215,-1,1
790,0.89848,1.1224,-1,1
791,0.89959,1.1217,-1,1
792,0.9007,1.1184,-1,1
793,0.90179,1.114,-1,1
794,0.90289,1.1104,-1,1
795,0.90399,1.1089,-1,1
796,0.9051,1.1092,-1,1
797,0.90621,1.1099,-1,1
798,0.90732,1.1076,-1,1
799,0.90949,1.1033,-1,1
800,0.91057,1.0989,-1,1
801,0.91166,1.0964,-1,1
802,0.91276,1.0961,-1,1
803,0.91386,1.0968,-1,1
804,0.91496,1.0965,-1,1
805,0.91604,1.0942,-1,1
806,0.91711,1.0901,-1,1
807,0.91818,1.0857,-1,1
808,0.91925,1.0842,-1,1
809,0.92034,1.0846,-1,1
810,0.92143,1.0854,-1,1
811,0.92251,1.0849,-1,1
812,0.92358,1.081,-1,1
813,0.92465,1.077,-1,1
814,0.9257,1.0734,-1,1
815,0.92676,1.0712,-1,1
816,0.92783,1.0712,-1,1
817,0.9289,1.0718,-1,1
818,0.92998,1.0717,-1,1
819,0.9321,1.0687,-1,1
820,0.93315,1.0643,-1,1
821,0.93419,1.06,-1,1
822,0.93524,1.0591,-1,1
823,0.93631,1.0593,-1,1
824,0.93737,1.06,-1,1
825,0.93843,1.0601,-1,1
826,0.93948,1.0581,-1,1
827,0.94052,1.0547,-1,1
828,0.94155,1.0508,-1,1
829,0.94364,1.0499,-1,1
830,0.94469,1.0505,-1,1
831,0.94574,1.0514,-1,1
832,0.94678,1.0505,-1,1
833,0.94781,1.0473,-1,1
834,0.94884,1.0435,-1,1
835,0.94987,1.0405,-1,1
836,0.9509,1.0389,-1,1
837,0.95194,1.0389,-1,1
838,0.95298,1.0392,-1,1
839,0.95402,1.0381,-1,1
