cnt,pos,speed,Dir,Force,
1,0,1.0031,-1,1
2,0.00102997,1.0075,-1,1
3,0.00205994,1.0115,-1,1
4,0.0030899,1.0155,-1,1
5,0.00412035,1.0195,-1,1
6,0.00516033,1.0235,-1,1
7,0.00621033,1.0273,-1,1
8,0.00726032,1.0314,-1,1
9,0.00831032,1.0353,-1,1
10,0.00936031,1.0388,-1,1
11,0.0104203,1.0418,-1,1
12,0.0114703,1.0445,-1,1
13,0.0125303,1.0476,-1,1
14,0.0136003,1.051,-1,1
15,0.0146699,1.0547,-1,1
16,0.0157399,1.0581,-1,1
17,0.01682,1.0611,-1,1
18,0.01789,1.0635,-1,1
19,0.01896,1.0654,-1,1
20,0.02004,1.0674,-1,1
21,0.0211201,1.0699,-1,1
22,0.0222001,1.0729,-1,1
23,0.0232902,1.0758,-1,1
24,0.0243802,1.0782,-1,1
25,0.0254602,1.0795,-1,1
26,0.0265503,1.0804,-1,1
27,0.0276303,1.0815,-1,1
28,0.0287199,1.0831,-1,1
29,0.02982,1.0853,-1,1
30,0.03091,1.0874,-1,1
31,0.0320101,1.0889,-1,1
32,0.0331001,1.0896,-1,1
33,0.0341902,1.0896,-1,1
34,0.0352702,1.0896,-1,1
35,0.0363703,1.0903,-1,1
36,0.0374603,1.0917,-1,1
37,0.0385599,1.0931,-1,1
38,0.03966,1.0937,-1,1
39,0.04075,1.0933,-1,1
40,0.0418401,1.0926,-1,1
41,0.0429301,1.0918,-1,1
42,0.0440202,1.0917,-1,1
43,0.0451102,1.0922,-1,1
44,0.0462003,1.093,-1,1
45,0.0473003,1.0933,-1,1
46,0.0483899,1.0928,-1,1
47,0.04948,1.0916,-1,1
48,0.05056,1.0905,-1,1
49,0.05165,1.0898,-1,1
50,0.0527301,1.0894,-1,1
51,0.0538201,1.0896,-1,1
52,0.0549202,1.0899,-1,1
53,0.0560102,1.0898,-1,1
54,0.0570903,1.0888,-1,1
55,0.0581703,1.0872,-1,1
56,0.0592504,1.0856,-1,1
57,0.0603199,1.0845,-1,1
58,0.06141,1.0841,-1,1
59,0.06249,1.0841,-1,1
60,0.06357,1.084,-1,1
61,0.0646501,1.0831,-1,1
62,0.0657301,1.0811,-1,1
63,0.0667901,1.0786,-1,1
64,0.0678601,1.0766,-1,1
65,0.0689301,1.0754,-1,1
66,0.0700002,1.075,-1,1
67,0.0710702,1.0748,-1,1
68,0.0721402,1.0734,-1,1
69,0.0732002,1.0712,-1,1
70,0.0742502,1.0682,-1,1
71,0.0753102,1.0656,-1,1
72,0.0763602,1.0636,-1,1
73,0.0774202,1.0626,-1,1
74,0.0784802,1.0618,-1,1
75,0.0795302,1.0609,-1,1
76,0.0805802,1.0586,-1,1
77,0.0816202,1.0553,-1,1
78,0.0826602,1.0522,-1,1
79,0.0837002,1.0496,-1,1
80,0.0847402,1.0485,-1,1
81,0.0857902,1.0476,-1,1
82,0.0868301,1.0464,-1,1
83,0.0878601,1.0439,-1,1
84,0.0888901,1.0408,-1,1
85,0.08991,1.0371,-1,1
86,0.09093,1.0343,-1,1
87,0.0919499,1.0325,-1,1
88,0.0929799,1.0317,-1,1
89,0.0940003,1.0306,-1,1
90,0.0950203,1.0282,-1,1
91,0.0960302,1.0248,-1,1
92,0.0970402,1.021,-1,1
93,0.0980401,1.0182,-1,1
94,0.09905,1.0162,-1,1
95,0.10005,1.0147,-1,1
96,0.10106,1.0133,-1,1
97,0.10206,1.0113,-1,1
98,0.10306,1.0083,-1,1
99,0.10405,1.005,-1,1
100,0.10504,1.0017,-1,1
101,0.10602,0.999,-1,1
102,0.10701,0.997,-1,1
103,0.10799,0.9951,-1,1
104,0.10898,0.993,-1,1
105,0.10996,0.9906,-1,1
106,0.11094,0.9869,-1,1
107,0.11191,0.9833,-1,1
108,0.11384,0.9796,-1,1
109,0.1148,0.9765,-1,1
110,0.11576,0.9738,-1,1
111,0.11672,0.9717,-1,1
112,0.11768,0.9695,-1,1
113,0.11864,0.9667,-1,1
114,0.11959,0.9629,-1,1
115,0.12053,0.9588,-1,1
116,0.12147,0.9556,-1,1
117,0.1224,0.9526,-1,1
118,0.12428,0.9503,-1,1
119,0.12521,0.9479,-1,1
120,0.12521,0.9454,-1,1
121,0.12615,0.9425,-1,1
122,0.12707,0.9389,-1,1
123,0.12799,0.9351,-1,1
124,0.1289,0.9316,-1,1
125,0.12981,0.9285,-1,1
126,0.13072,0.9259,-1,1
127,0.13164,0.9235,-1,1
128,0.13255,0.9206,-1,1
129,0.13436,0.9172,-1,1
130,0.13526,0.9134,-1,1
131,0.13526,0.909,-1,1
132,0.13704,0.9052,-1,1
133,0.13792,0.9019,-1,1
134,0.13881,0.8993,-1,1
135,0.1397,0.8971,-1,1
136,0.14059,0.8945,-1,1
137,0.14147,0.8915,-1,1
138,0.14234,0.8881,-1,1
139,0.14407,0.884,-1,1
140,0.14493,0.8804,-1,1
141,0.14579,0.8775,-1,1
142,0.14665,0.8749,-1,1
143,0.14752,0.8724,-1,1
144,0.14837,0.8696,-1,1
145,0.14923,0.8662,-1,1
146,0.15008,0.8625,-1,1
147,0.15092,0.8585,-1,1
148,0.15176,0.8548,-1,1
149,0.15259,0.8521,-1,1
150,0.15343,0.8496,-1,1
151,0.15426,0.8472,-1,1
152,0.1551,0.8449,-1,1
153,0.15594,0.8423,-1,1
154,0.15677,0.8394,-1,1
155,0.15759,0.8364,-1,1
156,0.15841,0.8334,-1,1
157,0.15923,0.8307,-1,1
158,0.16004,0.8285,-1,1
159,0.16086,0.8265,-1,1
160,0.16167,0.8244,-1,1
161,0.16248,0.8219,-1,1
162,0.1633,0.8193,-1,1
163,0.16411,0.8168,-1,1
164,0.16491,0.8144,-1,1
165,0.16571,0.8121,-1,1
166,0.16651,0.8099,-1,1
167,0.16731,0.8079,-1,1
168,0.1681,0.8059,-1,1
169,0.1689,0.8039,-1,1
170,0.16969,0.8021,-1,1
171,0.17049,0.8002,-1,1
172,0.17128,0.798,-1,1
173,0.17206,0.7958,-1,1
174,0.17285,0.7939,-1,1
175,0.17364,0.7923,-1,1
176,0.17442,0.7908,-1,1
177,0.1752,0.7892,-1,1
178,0.17598,0.7875,-1,1
179,0.17675,0.7858,-1,1
180,0.17753,0.784,-1,1
181,0.17831,0.7828,-1,1
182,0.17909,0.7817,-1,1
183,0.17987,0.7807,-1,1
184,0.18064,0.7794,-1,1
185,0.18142,0.7782,-1,1
186,0.18219,0.7772,-1,1
187,0.18296,0.7762,-1,1
188,0.18373,0.7753,-1,1
189,0.1845,0.7743,-1,1
190,0.18527,0.7735,-1,1
191,0.18604,0.7725,-1,1
192,0.18681,0.7717,-1,1
193,0.18758,0.7711,-1,1
194,0.18835,0.771,-1,1
195,0.18912,0.7707,-1,1
196,0.18989,0.7704,-1,1
197,0.19066,0.7699,-1,1
198,0.19143,0.7695,-1,1
199,0.1922,0.7697,-1,1
200,0.19296,0.7697,-1,1
201,0.19373,0.7696,-1,1
202,0.19451,0.7696,-1,1
203,0.19528,0.7696,-1,1
204,0.19605,0.7697,-1,1
205,0.19683,0.7701,-1,1
206,0.1976,0.7706,-1,1
207,0.19837,0.7715,-1,1
208,0.19915,0.7722,-1,1
209,0.19992,0.7726,-1,1
210,0.2007,0.7732,-1,1
211,0.20148,0.7741,-1,1
212,0.20226,0.7753,-1,1
213,0.20304,0.7765,-1,1
214,0.20383,0.7774,-1,1
215,0.20461,0.7784,-1,1
216,0.2054,0.7797,-1,1
217,0.20619,0.7813,-1,1
218,0.20698,0.7832,-1,1
219,0.20777,0.7852,-1,1
220,0.20857,0.787,-1,1
221,0.20936,0.7887,-1,1
222,0.21016,0.7906,-1,1
223,0.21097,0.793,-1,1
224,0.21178,0.7957,-1,1
225,0.21259,0.7985,-1,1
226,0.2134,0.8009,-1,1
227,0.21422,0.8034,-1,1
228,0.21504,0.806,-1,1
229,0.21586,0.809,-1,1
230,0.21669,0.8125,-1,1
231,0.21752,0.8162,-1,1
232,0.21836,0.8195,-1,1
233,0.2192,0.8226,-1,1
234,0.22004,0.8258,-1,1
235,0.22089,0.8294,-1,1
236,0.22174,0.8336,-1,1
237,0.2226,0.8378,-1,1
238,0.22346,0.8419,-1,1
239,0.22432,0.846,-1,1
240,0.22519,0.8501,-1,1
241,0.22607,0.8546,-1,1
242,0.22695,0.8593,-1,1
243,0.22784,0.864,-1,1
244,0.22873,0.869,-1,1
245,0.22963,0.8739,-1,1
246,0.23053,0.8788,-1,1
247,0.23143,0.8837,-1,1
248,0.23235,0.8889,-1,1
249,0.23326,0.8941,-1,1
250,0.23419,0.8996,-1,1
251,0.23512,0.9052,-1,1
252,0.23606,0.9108,-1,1
253,0.237,0.9162,-1,1
254,0.23794,0.9214,-1,1
255,0.23889,0.9266,-1,1
256,0.23985,0.9322,-1,1
257,0.24081,0.9381,-1,1
258,0.24179,0.9443,-1,1
259,0.24277,0.9503,-1,1
260,0.24375,0.9561,-1,1
261,0.24474,0.9614,-1,1
262,0.24573,0.9669,-1,1
263,0.24673,0.9727,-1,1
264,0.24773,0.9789,-1,1
265,0.24875,0.9856,-1,1
266,0.24977,0.992,-1,1
267,0.2508,0.9983,-1,1
268,0.25183,1.0042,-1,1
269,0.25287,1.0102,-1,1
270,0.25391,1.0161,-1,1
271,0.25496,1.0224,-1,1
272,0.25601,1.0287,-1,1
273,0.25708,1.0355,-1,1
274,0.25815,1.0421,-1,1
275,0.25923,1.0484,-1,1
276,0.26031,1.0544,-1,1
277,0.2614,1.0604,-1,1
278,0.2625,1.0667,-1,1
279,0.2636,1.0734,-1,1
280,0.26471,1.0803,-1,1
281,0.26583,1.087,-1,1
282,0.26695,1.0936,-1,1
283,0.26808,1.0998,-1,1
284,0.26921,1.1061,-1,1
285,0.27036,1.1125,-1,1
286,0.27151,1.1193,-1,1
287,0.27267,1.1263,-1,1
288,0.27383,1.1331,-1,1
289,0.275,1.1394,-1,1
290,0.27617,1.1457,-1,1
291,0.27735,1.1524,-1,1
292,0.27854,1.1593,-1,1
293,0.27974,1.1659,-1,1
294,0.28094,1.1726,-1,1
295,0.28215,1.1792,-1,1
296,0.28336,1.1855,-1,1
297,0.28458,1.1916,-1,1
298,0.28581,1.1979,-1,1
299,0.28704,1.2046,-1,1
300,0.28828,1.2112,-1,1
301,0.28952,1.2171,-1,1
302,0.29077,1.2227,-1,1
303,0.29202,1.2287,-1,1
304,0.29328,1.2343,-1,1
305,0.29455,1.2402,-1,1
306,0.29582,1.2461,-1,1
307,0.2971,1.2518,-1,1
308,0.29838,1.2571,-1,1
309,0.29966,1.2618,-1,1
310,0.30224,1.2675,-1,1
311,0.30355,1.2735,-1,1
312,0.30485,1.2794,-1,1
313,0.30616,1.2848,-1,1
314,0.30747,1.2899,-1,1
315,0.30878,1.2945,-1,1
316,0.3101,1.2994,-1,1
317,0.31143,1.3048,-1,1
318,0.31277,1.3103,-1,1
319,0.3141,1.3157,-1,1
320,0.31544,1.3195,-1,1
321,0.31812,1.3235,-1,1
322,0.31947,1.3282,-1,1
323,0.32083,1.3333,-1,1
324,0.32083,1.3383,-1,1
325,0.32219,1.3428,-1,1
326,0.32354,1.3463,-1,1
327,0.3249,1.3489,-1,1
328,0.32626,1.3517,-1,1
329,0.32763,1.3562,-1,1
330,0.33039,1.3607,-1,1
331,0.33177,1.3641,-1,1
332,0.33314,1.3662,-1,1
333,0.33452,1.3683,-1,1
334,0.33591,1.3714,-1,1
335,0.33731,1.3752,-1,1
336,0.33871,1.3794,-1,1
337,0.3401,1.3832,-1,1
338,0.34149,1.3862,-1,1
339,0.34289,1.3881,-1,1
340,0.34572,1.3916,-1,1
341,0.34713,1.3953,-1,1
342,0.34854,1.3992,-1,1
343,0.34995,1.4023,-1,1
344,0.35137,1.4049,-1,1
345,0.35279,1.4075,-1,1
346,0.35422,1.4104,-1,1
347,0.35565,1.414,-1,1
348,0.35708,1.4175,-1,1
349,0.35851,1.4207,-1,1
350,0.35994,1.4225,-1,1
351,0.36138,1.4246,-1,1
352,0.36281,1.4269,-1,1
353,0.36425,1.4293,-1,1
354,0.36568,1.4314,-1,1
355,0.36712,1.4331,-1,1
356,0.36856,1.4345,-1,1
357,0.37,1.4357,-1,1
358,0.37145,1.4371,-1,1
359,0.37289,1.4383,-1,1
360,0.37433,1.4395,-1,1
361,0.37578,1.4408,-1,1
362,0.37723,1.4421,-1,1
363,0.37868,1.4436,-1,1
364,0.38013,1.4448,-1,1
365,0.38158,1.4458,-1,1
366,0.38303,1.4466,-1,1
367,0.38448,1.4476,-1,1
368,0.38594,1.4491,-1,1
369,0.38739,1.4503,-1,1
370,0.38885,1.4512,-1,1
371,0.3903,1.4519,-1,1
372,0.39176,1.4529,-1,1
373,0.39322,1.4538,-1,1
374,0.39468,1.4549,-1,1
375,0.39614,1.4558,-1,1
376,0.3976,1.4568,-1,1
377,0.39905,1.4574,-1,1
378,0.40052,1.458,-1,1
379,0.40198,1.4587,-1,1
380,0.40344,1.4592,-1,1
381,0.4049,1.4598,-1,1
382,0.40636,1.4603,-1,1
383,0.40783,1.4608,-1,1
384,0.40929,1.4613,-1,1
385,0.41076,1.4619,-1,1
386,0.41222,1.4623,-1,1
387,0.41368,1.463,-1,1
388,0.41515,1.4635,-1,1
389,0.41662,1.4642,-1,1
390,0.41809,1.465,-1,1
391,0.41956,1.4658,-1,1
392,0.42102,1.4663,-1,1
393,0.42249,1.4667,-1,1
394,0.42396,1.4671,-1,1
395,0.42543,1.4677,-1,1
396,0.4269,1.4684,-1,1
397,0.42837,1.4689,-1,1
398,0.42984,1.4694,-1,1
399,0.43132,1.4698,-1,1
400,0.43279,1.4704,-1,1
401,0.43427,1.471,-1,1
402,0.43574,1.4714,-1,1
403,0.43721,1.472,-1,1
404,0.43869,1.4729,-1,1
405,0.44017,1.4735,-1,1
406,0.44165,1.4743,-1,1
407,0.44313,1.4751,-1,1
408,0.4446,1.4754,-1,1
409,0.44608,1.4761,-1,1
410,0.44756,1.4771,-1,1
411,0.44904,1.4779,-1,1
412,0.45052,1.4785,-1,1
413,0.452,1.4787,-1,1
414,0.45348,1.479,-1,1
415,0.45496,1.4797,-1,1
416,0.45645,1.4805,-1,1
417,0.45793,1.4809,-1,1
418,0.45941,1.4813,-1,1
419,0.46089,1.4809,-1,1
420,0.46237,1.4811,-1,1
421,0.46386,1.4813,-1,1
422,0.46534,1.4818,-1,1
423,0.46682,1.4819,-1,1
424,0.46829,1.4812,-1,1
425,0.46977,1.4806,-1,1
426,0.47125,1.4802,-1,1
427,0.47273,1.4801,-1,1
428,0.47421,1.4796,-1,1
429,0.47568,1.479,-1,1
430,0.47715,1.4775,-1,1
431,0.47862,1.4762,-1,1
432,0.48009,1.4752,-1,1
433,0.48156,1.4745,-1,1
434,0.48303,1.4734,-1,1
435,0.48449,1.4716,-1,1
436,0.48595,1.4696,-1,1
437,0.48741,1.4678,-1,1
438,0.48887,1.4666,-1,1
439,0.49033,1.4653,-1,1
440,0.49178,1.4632,-1,1
441,0.49323,1.4609,-1,1
442,0.49468,1.4585,-1,1
443,0.49613,1.4565,-1,1
444,0.49757,1.4547,-1,1
445,0.49901,1.4527,-1,1
446,0.50045,1.4505,-1,1
447,0.50189,1.448,-1,1
448,0.50333,1.4453,-1,1
449,0.50476,1.4429,-1,1
450,0.50618,1.4406,-1,1
451,0.50761,1.4384,-1,1
452,0.50904,1.4361,-1,1
453,0.51046,1.4335,-1,1
454,0.51188,1.4309,-1,1
455,0.51329,1.4281,-1,1
456,0.51471,1.4252,-1,1
457,0.51612,1.4224,-1,1
458,0.51753,1.4203,-1,1
459,0.51894,1.4179,-1,1
460,0.52034,1.4153,-1,1
461,0.52173,1.4119,-1,1
462,0.52313,1.4087,-1,1
463,0.52452,1.406,-1,1
464,0.52592,1.4038,-1,1
465,0.52731,1.4018,-1,1
466,0.52869,1.3989,-1,1
467,0.53007,1.3956,-1,1
468,0.53145,1.3921,-1,1
469,0.53283,1.3894,-1,1
470,0.53421,1.3872,-1,1
471,0.53558,1.385,-1,1
472,0.53694,1.3817,-1,1
473,0.5383,1.378,-1,1
474,0.53967,1.3746,-1,1
475,0.54103,1.3719,-1,1
476,0.54239,1.3697,-1,1
477,0.54374,1.367,-1,1
478,0.54508,1.3633,-1,1
479,0.54643,1.3592,-1,1
480,0.54777,1.356,-1,1
481,0.54912,1.3537,-1,1
482,0.55046,1.3517,-1,1
483,0.55179,1.3488,-1,1
484,0.55311,1.3445,-1,1
485,0.55444,1.3403,-1,1
486,0.55577,1.3373,-1,1
487,0.5571,1.3354,-1,1
488,0.55842,1.3336,-1,1
489,0.56103,1.3298,-1,1
490,0.56233,1.3252,-1,1
491,0.56364,1.3211,-1,1
492,0.56495,1.3182,-1,1
493,0.56626,1.3158,-1,1
494,0.56755,1.3131,-1,1
495,0.56884,1.309,-1,1
496,0.57012,1.3039,-1,1
497,0.5714,1.2992,-1,1
498,0.57269,1.296,-1,1
499,0.57398,1.2946,-1,1
500,0.57526,1.2909,-1,1
501,0.57778,1.2858,-1,1
502,0.57904,1.2804,-1,1
503,0.5803,1.2765,-1,1
504,0.58157,1.274,-1,1
505,0.58283,1.272,-1,1
506,0.58408,1.2687,-1,1
507,0.58532,1.2639,-1,1
508,0.58655,1.2582,-1,1
509,0.5878,1.2537,-1,1
510,0.58904,1.2521,-1,1
511,0.59029,1.2507,-1,1
512,0.59151,1.2476,-1,1
513,0.59273,1.2426,-1,1
514,0.59395,1.2374,-1,1
515,0.59517,1.2333,-1,1
516,0.59639,1.2313,-1,1
517,0.59762,1.2298,-1,1
518,0.59883,1.2275,-1,1
519,0.60003,1.2229,-1,1
520,0.60122,1.2178,-1,1
521,0.60242,1.2138,-1,1
522,0.60363,1.2114,-1,1
523,0.60483,1.2099,-1,1
524,0.60603,1.2078,-1,1
525,0.60721,1.204,-1,1
526,0.60839,1.1993,-1,1
527,0.60957,1.1951,-1,1
528,0.61075,1.1922,-1,1
529,0.61193,1.1908,-1,1
530,0.61311,1.1891,-1,1
531,0.61428,1.1859,-1,1
532,0.61545,1.1817,-1,1
533,0.61661,1.1775,-1,1
534,0.61777,1.1743,-1,1
535,0.61893,1.1723,-1,1
536,0.62009,1.1705,-1,1
537,0.62125,1.1681,-1,1
538,0.6224,1.1649,-1,1
539,0.62355,1.1612,-1,1
540,0.62469,1.1579,-1,1
541,0.62584,1.1553,-1,1
542,0.62698,1.1532,-1,1
543,0.62812,1.151,-1,1
544,0.62925,1.1481,-1,1
545,0.63039,1.1453,-1,1
546,0.63152,1.1424,-1,1
547,0.63265,1.1397,-1,1
548,0.63377,1.137,-1,1
549,0.63489,1.1344,-1,1
550,0.63601,1.1317,-1,1
551,0.63713,1.1292,-1,1
552,0.63825,1.1269,-1,1
553,0.63936,1.1245,-1,1
554,0.64047,1.1221,-1,1
555,0.64158,1.1192,-1,1
556,0.64268,1.1164,-1,1
557,0.64378,1.114,-1,1
558,0.64489,1.1119,-1,1
559,0.64599,1.1099,-1,1
560,0.64709,1.1077,-1,1
561,0.64818,1.1049,-1,1
562,0.64926,1.1019,-1,1
563,0.65035,1.0992,-1,1
564,0.65144,1.097,-1,1
565,0.65253,1.0951,-1,1
566,0.65361,1.0932,-1,1
567,0.65469,1.0908,-1,1
568,0.65577,1.088,-1,1
569,0.65684,1.085,-1,1
570,0.65791,1.0824,-1,1
571,0.65898,1.0804,-1,1
572,0.66005,1.0787,-1,1
573,0.66112,1.0765,-1,1
574,0.66218,1.0737,-1,1
575,0.66324,1.0708,-1,1
576,0.66429,1.0679,-1,1
577,0.66534,1.0652,-1,1
578,0.6664,1.063,-1,1
579,0.66745,1.0609,-1,1
580,0.6685,1.0587,-1,1
581,0.66954,1.0561,-1,1
582,0.67058,1.053,-1,1
583,0.67162,1.0501,-1,1
584,0.67265,1.0476,-1,1
585,0.67369,1.0453,-1,1
586,0.67472,1.0427,-1,1
587,0.67575,1.0402,-1,1
588,0.67677,1.0374,-1,1
589,0.67779,1.0346,-1,1
590,0.67881,1.0315,-1,1
591,0.67983,1.0285,-1,1
592,0.68084,1.0258,-1,1
593,0.68185,1.023,-1,1
594,0.68286,1.0203,-1,1
595,0.68386,1.0173,-1,1
596,0.68486,1.0142,-1,1
597,0.68586,1.0111,-1,1
598,0.68685,1.0079,-1,1
599,0.68784,1.0047,-1,1
600,0.68883,1.0018,-1,1
601,0.68981,0.9987,-1,1
602,0.69079,0.9955,-1,1
603,0.69177,0.9923,-1,1
604,0.69275,0.989,-1,1
605,0.69372,0.9856,-1,1
606,0.69468,0.9823,-1,1
607,0.69564,0.9788,-1,1
608,0.6966,0.9756,-1,1
609,0.69756,0.9724,-1,1
610,0.69852,0.969,-1,1
611,0.69947,0.9654,-1,1
612,0.70041,0.962,-1,1
613,0.70136,0.9586,-1,1
614,0.70229,0.955,-1,1
615,0.70323,0.9513,-1,1
616,0.70416,0.9477,-1,1
617,0.70509,0.9443,-1,1
618,0.70601,0.9406,-1,1
619,0.70693,0.937,-1,1
620,0.70785,0.9332,-1,1
621,0.70876,0.9297,-1,1
622,0.70967,0.9258,-1,1
623,0.71057,0.922,-1,1
624,0.71148,0.9181,-1,1
625,0.71237,0.9142,-1,1
626,0.71326,0.9103,-1,1
627,0.71415,0.9064,-1,1
628,0.71504,0.9026,-1,1
629,0.71592,0.8987,-1,1
630,0.7168,0.8949,-1,1
631,0.71767,0.8908,-1,1
632,0.71854,0.8867,-1,1
633,0.7194,0.8826,-1,1
634,0.72026,0.8786,-1,1
635,0.72112,0.8748,-1,1
636,0.72197,0.8711,-1,1
637,0.72282,0.8672,-1,1
638,0.72367,0.8631,-1,1
639,0.72451,0.859,-1,1
640,0.72535,0.8549,-1,1
641,0.72618,0.8513,-1,1
642,0.72701,0.8475,-1,1
643,0.72784,0.8435,-1,1
644,0.72866,0.8394,-1,1
645,0.72947,0.8354,-1,1
646,0.73029,0.8316,-1,1
647,0.7311,0.8278,-1,1
648,0.73191,0.8239,-1,1
649,0.73271,0.82,-1,1
650,0.73351,0.8161,-1,1
651,0.7343,0.812,-1,1
652,0.73509,0.8081,-1,1
653,0.73588,0.8042,-1,1
654,0.73666,0.8005,-1,1
655,0.73744,0.7967,-1,1
656,0.73821,0.7928,-1,1
657,0.73899,0.7889,-1,1
658,0.73976,0.7851,-1,1
659,0.74052,0.7812,-1,1
660,0.74128,0.7772,-1,1
661,0.74203,0.7732,-1,1
662,0.74279,0.7696,-1,1
663,0.74354,0.7662,-1,1
664,0.74429,0.7627,-1,1
665,0.74503,0.759,-1,1
666,0.74577,0.7551,-1,1
667,0.7465,0.7513,-1,1
668,0.74723,0.7478,-1,1
669,0.74797,0.7444,-1,1
670,0.74869,0.7411,-1,1
671,0.74941,0.7377,-1,1
672,0.75013,0.7341,-1,1
673,0.75084,0.7305,-1,1
674,0.75156,0.7272,-1,1
675,0.75227,0.7241,-1,1
676,0.75298,0.7211,-1,1
677,0.75368,0.7181,-1,1
678,0.75438,0.7148,-1,1
679,0.75508,0.7114,-1,1
680,0.75577,0.7081,-1,1
681,0.75647,0.7055,-1,1
682,0.75716,0.7029,-1,1
683,0.75785,0.7004,-1,1
684,0.75853,0.6974,-1,1
685,0.75922,0.6945,-1,1
686,0.75989,0.6916,-1,1
687,0.76057,0.689,-1,1
688,0.76125,0.6866,-1,1
689,0.76192,0.6846,-1,1
690,0.7626,0.6825,-1,1
691,0.76326,0.6797,-1,1
692,0.76393,0.6771,-1,1
693,0.76526,0.6747,-1,1
694,0.76592,0.6727,-1,1
695,0.76658,0.6705,-1,1
696,0.76724,0.6684,-1,1
697,0.7679,0.6661,-1,1
698,0.76855,0.6642,-1,1
699,0.76921,0.6623,-1,1
700,0.76986,0.6603,-1,1
701,0.77052,0.6589,-1,1
702,0.77117,0.6574,-1,1
703,0.77247,0.6559,-1,1
704,0.77247,0.6546,-1,1
705,0.77377,0.6535,-1,1
706,0.77377,0.6525,-1,1
707,0.77441,0.6516,-1,1
708,0.77506,0.6506,-1,1
709,0.77571,0.6498,-1,1
710,0.77701,0.6493,-1,1
711,0.77765,0.6486,-1,1
712,0.7783,0.6482,-1,1
713,0.77894,0.6476,-1,1
714,0.77959,0.6472,-1,1
715,0.78024,0.6472,-1,1
716,0.78089,0.6472,-1,1
717,0.78154,0.6474,-1,1
718,0.78219,0.6476,-1,1
719,0.78283,0.6475,-1,1
720,0.78349,0.648,-1,1
721,0.78414,0.6488,-1,1
722,0.78479,0.6494,-1,1
723,0.78545,0.6503,-1,1
724,0.7861,0.651,-1,1
725,0.78676,0.6518,-1,1
726,0.78741,0.6527,-1,1
727,0.78807,0.6536,-1,1
728,0.78873,0.6548,-1,1
729,0.7894,0.6563,-1,1
730,0.79006,0.6576,-1,1
731,0.79139,0.6588,-1,1
732,0.79206,0.6605,-1,1
733,0.79273,0.6622,-1,1
734,0.79341,0.6641,-1,1
735,0.79408,0.666,-1,1
736,0.79476,0.6679,-1,1
737,0.79544,0.6699,-1,1
738,0.79612,0.6718,-1,1
739,0.7968,0.674,-1,1
740,0.79749,0.6762,-1,1
741,0.79818,0.6787,-1,1
742,0.79887,0.6807,-1,1
743,0.79956,0.6832,-1,1
744,0.80026,0.6856,-1,1
745,0.80096,0.688,-1,1
746,0.80166,0.6905,-1,1
747,0.80237,0.693,-1,1
748,0.80307,0.6956,-1,1
749,0.80378,0.698,-1,1
750,0.8045,0.7008,-1,1
751,0.80521,0.7035,-1,1
752,0.80593,0.7065,-1,1
753,0.80665,0.7089,-1,1
754,0.80738,0.7117,-1,1
755,0.80811,0.7148,-1,1
756,0.80884,0.7181,-1,1
757,0.80958,0.7214,-1,1
758,0.81032,0.7245,-1,1
759,0.81106,0.7275,-1,1
760,0.8118,0.7306,-1,1
761,0.81255,0.7339,-1,1
762,0.81331,0.7374,-1,1
763,0.81483,0.7414,-1,1
764,0.81559,0.7453,-1,1
765,0.81636,0.7489,-1,1
766,0.81713,0.7527,-1,1
767,0.81791,0.7567,-1,1
768,0.81868,0.7609,-1,1
769,0.81947,0.7654,-1,1
770,0.82025,0.7693,-1,1
771,0.82104,0.7733,-1,1
772,0.82184,0.7773,-1,1
773,0.82264,0.7814,-1,1
774,0.82345,0.7855,-1,1
775,0.82425,0.7897,-1,1
776,0.82507,0.7937,-1,1
777,0.82588,0.7974,-1,1
778,0.8267,0.8014,-1,1
779,0.82752,0.8054,-1,1
780,0.82835,0.81,-1,1
781,0.82919,0.8143,-1,1
782,0.83002,0.8185,-1,1
783,0.83086,0.8224,-1,1
784,0.83171,0.8266,-1,1
785,0.83256,0.831,-1,1
786,0.83342,0.8357,-1,1
787,0.83428,0.8404,-1,1
788,0.83515,0.8448,-1,1
789,0.83601,0.8491,-1,1
790,0.83689,0.8533,-1,1
791,0.83777,0.8581,-1,1
792,0.83866,0.8632,-1,1
793,0.83955,0.8684,-1,1
794,0.84044,0.8734,-1,1
795,0.84134,0.878,-1,1
796,0.84225,0.8826,-1,1
797,0.84316,0.8877,-1,1
798,0.84407,0.8929,-1,1
799,0.84499,0.8982,-1,1
800,0.84592,0.9035,-1,1
801,0.84685,0.9086,-1,1
802,0.8478,0.914,-1,1
803,0.84874,0.9194,-1,1
804,0.84969,0.9244,-1,1
805,0.85064,0.9296,-1,1
806,0.8516,0.9348,-1,1
807,0.85256,0.9402,-1,1
808,0.85353,0.9459,-1,1
809,0.85451,0.9519,-1,1
810,0.8555,0.9576,-1,1
811,0.85648,0.9631,-1,1
812,0.85748,0.9682,-1,1
813,0.85847,0.9733,-1,1
814,0.85948,0.9791,-1,1
815,0.86049,0.9851,-1,1
816,0.86151,0.9912,-1,1
817,0.86253,0.9972,-1,1
818,0.86356,1.0029,-1,1
819,0.8646,1.0083,-1,1
820,0.86564,1.0141,-1,1
821,0.86668,1.0199,-1,1
822,0.86773,1.0256,-1,1
823,0.86879,1.0316,-1,1
824,0.86985,1.0375,-1,1
825,0.87093,1.0436,-1,1
826,0.87201,1.0497,-1,1
827,0.87309,1.0554,-1,1
828,0.87417,1.0609,-1,1
829,0.87526,1.0665,-1,1
830,0.87636,1.0722,-1,1
831,0.87747,1.0782,-1,1
832,0.87858,1.0846,-1,1
833,0.8797,1.0909,-1,1
834,0.88082,1.0966,-1,1
835,0.88194,1.1018,-1,1
836,0.88307,1.1067,-1,1
