cnt,pos,speed,Dir,Force,
1,0,1.0066,-1,1
2,0.00110006,1.0222,-1,1
3,0.00110006,1.0376,-1,1
4,0.00333977,1.0539,-1,1
5,0.00333977,1.0697,-1,1
6,0.00446987,1.0852,-1,1
7,0.00562,1.0989,-1,1
8,0.00677967,1.1129,-1,1
9,0.00915003,1.1269,-1,1
10,0.0103498,1.1404,-1,1
11,0.01156,1.153,-1,1
12,0.0127797,1.1648,-1,1
13,0.01402,1.1768,-1,1
14,0.0152597,1.1892,-1,1
15,0.01652,1.2019,-1,1
16,0.0177898,1.2142,-1,1
17,0.0190697,1.2271,-1,1
18,0.02035,1.2389,-1,1
19,0.0216398,1.2486,-1,1
20,0.0229397,1.2584,-1,1
21,0.02425,1.2688,-1,1
22,0.0269098,1.28,-1,1
23,0.0282397,1.2899,-1,1
24,0.0295801,1.2988,-1,1
25,0.03092,1.307,-1,1
26,0.03227,1.3156,-1,1
27,0.0336399,1.3251,-1,1
28,0.0350199,1.3345,-1,1
29,0.0363998,1.3433,-1,1
30,0.0377698,1.3506,-1,1
31,0.0391397,1.3566,-1,1
32,0.0405297,1.3624,-1,1
33,0.0419397,1.3698,-1,1
34,0.0433497,1.3776,-1,1
35,0.0447598,1.3844,-1,1
36,0.0461698,1.3892,-1,1
37,0.0475698,1.3926,-1,1
38,0.0489898,1.3983,-1,1
39,0.0504198,1.4049,-1,1
40,0.0532999,1.4113,-1,1
41,0.0547299,1.4166,-1,1
42,0.05615,1.4205,-1,1
43,0.05759,1.4237,-1,1
44,0.0590401,1.4276,-1,1
45,0.0604997,1.4323,-1,1
46,0.0619497,1.4365,-1,1
47,0.0633998,1.4406,-1,1
48,0.0648499,1.4427,-1,1
49,0.06776,1.445,-1,1
50,0.0692301,1.4477,-1,1
51,0.0706797,1.4506,-1,1
52,0.0721397,1.4534,-1,1
53,0.0735998,1.4557,-1,1
54,0.0750699,1.4572,-1,1
55,0.07653,1.4581,-1,1
56,0.0780001,1.4598,-1,1
57,0.0794597,1.4614,-1,1
58,0.0809197,1.4625,-1,1
59,0.0823898,1.4631,-1,1
60,0.0838599,1.4636,-1,1
61,0.08533,1.4644,-1,1
62,0.0867901,1.4648,-1,1
63,0.0882497,1.4651,-1,1
64,0.0897198,1.4654,-1,1
65,0.0911899,1.4659,-1,1
66,0.09266,1.4664,-1,1
67,0.09412,1.4663,-1,1
68,0.0955801,1.4653,-1,1
69,0.0970397,1.4643,-1,1
70,0.0984998,1.4639,-1,1
71,0.0999699,1.464,-1,1
72,0.10142,1.4638,-1,1
73,0.10288,1.4625,-1,1
74,0.10433,1.4605,-1,1
75,0.10578,1.4588,-1,1
76,0.10724,1.4576,-1,1
77,0.10869,1.4568,-1,1
78,0.11013,1.4558,-1,1
79,0.11157,1.4537,-1,1
80,0.11301,1.4513,-1,1
81,0.11446,1.4491,-1,1
82,0.1159,1.4473,-1,1
83,0.11733,1.4456,-1,1
84,0.11876,1.4437,-1,1
85,0.12019,1.4413,-1,1
86,0.12163,1.4389,-1,1
87,0.12305,1.4363,-1,1
88,0.12447,1.4337,-1,1
89,0.12588,1.4311,-1,1
90,0.1273,1.4286,-1,1
91,0.12872,1.4259,-1,1
92,0.13013,1.4233,-1,1
93,0.13154,1.4204,-1,1
94,0.13293,1.4168,-1,1
95,0.13432,1.413,-1,1
96,0.13572,1.4095,-1,1
97,0.13712,1.4067,-1,1
98,0.13851,1.4043,-1,1
99,0.1399,1.4012,-1,1
100,0.14127,1.397,-1,1
101,0.14264,1.3924,-1,1
102,0.14401,1.3883,-1,1
103,0.14539,1.3853,-1,1
104,0.14676,1.383,-1,1
105,0.14812,1.38,-1,1
106,0.14948,1.3756,-1,1
107,0.15082,1.3706,-1,1
108,0.15217,1.3659,-1,1
109,0.15352,1.3626,-1,1
110,0.15487,1.3598,-1,1
111,0.15621,1.3564,-1,1
112,0.15753,1.3521,-1,1
113,0.15886,1.3471,-1,1
114,0.16018,1.3422,-1,1
115,0.1615,1.3382,-1,1
116,0.16282,1.3344,-1,1
117,0.16413,1.3303,-1,1
118,0.16543,1.3258,-1,1
119,0.16673,1.3209,-1,1
120,0.16803,1.3159,-1,1
121,0.16932,1.3117,-1,1
122,0.17061,1.3076,-1,1
123,0.17189,1.303,-1,1
124,0.17316,1.2981,-1,1
125,0.17443,1.293,-1,1
126,0.1757,1.2884,-1,1
127,0.17697,1.2844,-1,1
128,0.17823,1.2801,-1,1
129,0.17948,1.2754,-1,1
130,0.18073,1.2702,-1,1
131,0.18197,1.2645,-1,1
132,0.18321,1.2594,-1,1
133,0.18444,1.2553,-1,1
134,0.18568,1.2513,-1,1
135,0.18812,1.2456,-1,1
136,0.18933,1.2396,-1,1
137,0.19053,1.2333,-1,1
138,0.19174,1.2279,-1,1
139,0.19294,1.2233,-1,1
140,0.19414,1.2189,-1,1
141,0.19533,1.2139,-1,1
142,0.19651,1.208,-1,1
143,0.19769,1.2015,-1,1
144,0.19886,1.1953,-1,1
145,0.20003,1.1915,-1,1
146,0.2012,1.1878,-1,1
147,0.20237,1.1838,-1,1
148,0.20352,1.1785,-1,1
149,0.20467,1.1724,-1,1
150,0.20581,1.1665,-1,1
151,0.20695,1.1619,-1,1
152,0.20809,1.1578,-1,1
153,0.20923,1.1543,-1,1
154,0.21036,1.15,-1,1
155,0.21148,1.1444,-1,1
156,0.21371,1.1383,-1,1
157,0.21482,1.1328,-1,1
158,0.21592,1.1283,-1,1
159,0.21703,1.124,-1,1
160,0.21812,1.1193,-1,1
161,0.21921,1.1139,-1,1
162,0.22029,1.1084,-1,1
163,0.22137,1.1028,-1,1
164,0.22245,1.098,-1,1
165,0.22353,1.0935,-1,1
166,0.22565,1.0882,-1,1
167,0.22671,1.0826,-1,1
168,0.22776,1.0771,-1,1
169,0.22881,1.0719,-1,1
170,0.22986,1.0675,-1,1
171,0.2309,1.063,-1,1
172,0.23194,1.0583,-1,1
173,0.23297,1.0527,-1,1
174,0.23399,1.0465,-1,1
175,0.235,1.0409,-1,1
176,0.23602,1.0371,-1,1
177,0.23704,1.0335,-1,1
178,0.23805,1.0294,-1,1
179,0.23906,1.0249,-1,1
180,0.24006,1.0193,-1,1
181,0.24104,1.0139,-1,1
182,0.24203,1.0088,-1,1
183,0.24301,1.0047,-1,1
184,0.244,1.0014,-1,1
185,0.24498,0.9978,-1,1
186,0.24596,0.9935,-1,1
187,0.24692,0.9882,-1,1
188,0.24788,0.9828,-1,1
189,0.24884,0.9775,-1,1
190,0.24979,0.9736,-1,1
191,0.25075,0.9702,-1,1
192,0.2517,0.967,-1,1
193,0.25265,0.9632,-1,1
194,0.25358,0.9583,-1,1
195,0.25451,0.9531,-1,1
196,0.25544,0.9481,-1,1
197,0.25636,0.944,-1,1
198,0.25729,0.9408,-1,1
199,0.25821,0.9378,-1,1
200,0.25913,0.9341,-1,1
201,0.26004,0.9296,-1,1
202,0.26094,0.9246,-1,1
203,0.26184,0.9198,-1,1
204,0.26274,0.9161,-1,1
205,0.26364,0.913,-1,1
206,0.26454,0.9098,-1,1
207,0.26542,0.9061,-1,1
208,0.26631,0.9015,-1,1
209,0.26718,0.8969,-1,1
210,0.26806,0.8929,-1,1
211,0.26894,0.8894,-1,1
212,0.26981,0.8862,-1,1
213,0.27067,0.8825,-1,1
214,0.27153,0.8783,-1,1
215,0.27238,0.8739,-1,1
216,0.27324,0.8699,-1,1
217,0.27409,0.8666,-1,1
218,0.27494,0.8634,-1,1
219,0.27578,0.8599,-1,1
220,0.27662,0.8557,-1,1
221,0.27745,0.8516,-1,1
222,0.27828,0.8476,-1,1
223,0.27911,0.8443,-1,1
224,0.27994,0.841,-1,1
225,0.28076,0.8374,-1,1
226,0.28157,0.8335,-1,1
227,0.28239,0.8294,-1,1
228,0.28319,0.8255,-1,1
229,0.284,0.8219,-1,1
230,0.2848,0.8183,-1,1
231,0.2856,0.8145,-1,1
232,0.28639,0.8109,-1,1
233,0.28718,0.8072,-1,1
234,0.28797,0.8036,-1,1
235,0.28875,0.7999,-1,1
236,0.28953,0.7961,-1,1
237,0.29031,0.7924,-1,1
238,0.29108,0.7887,-1,1
239,0.29185,0.7852,-1,1
240,0.29262,0.7817,-1,1
241,0.29338,0.7781,-1,1
242,0.29413,0.7741,-1,1
243,0.29563,0.77,-1,1
244,0.29638,0.766,-1,1
245,0.29713,0.7622,-1,1
246,0.29787,0.7585,-1,1
247,0.2986,0.7543,-1,1
248,0.29933,0.7501,-1,1
249,0.30006,0.7459,-1,1
250,0.30079,0.7419,-1,1
251,0.30151,0.7381,-1,1
252,0.30222,0.7338,-1,1
253,0.30365,0.7295,-1,1
254,0.30435,0.7253,-1,1
255,0.30506,0.7216,-1,1
256,0.30576,0.7179,-1,1
257,0.30646,0.7145,-1,1
258,0.30716,0.7108,-1,1
259,0.30784,0.7066,-1,1
260,0.30853,0.7024,-1,1
261,0.30921,0.6986,-1,1
262,0.30989,0.6956,-1,1
263,0.31057,0.6929,-1,1
264,0.31125,0.6891,-1,1
265,0.31258,0.6849,-1,1
266,0.31325,0.681,-1,1
267,0.31391,0.6776,-1,1
268,0.31458,0.6747,-1,1
269,0.31524,0.672,-1,1
270,0.31589,0.669,-1,1
271,0.31654,0.6654,-1,1
272,0.31718,0.6617,-1,1
273,0.31783,0.6582,-1,1
274,0.31847,0.6559,-1,1
275,0.31912,0.6538,-1,1
276,0.31976,0.6513,-1,1
277,0.3204,0.6483,-1,1
278,0.32103,0.6451,-1,1
279,0.32166,0.6423,-1,1
280,0.32229,0.64,-1,1
281,0.32292,0.6382,-1,1
282,0.32355,0.6365,-1,1
283,0.32417,0.6343,-1,1
284,0.32479,0.6317,-1,1
285,0.32541,0.6291,-1,1
286,0.32603,0.6267,-1,1
287,0.32664,0.6246,-1,1
288,0.32726,0.6229,-1,1
289,0.32787,0.6212,-1,1
290,0.32849,0.6194,-1,1
291,0.3291,0.6174,-1,1
292,0.3297,0.6153,-1,1
293,0.33031,0.6136,-1,1
294,0.33092,0.6122,-1,1
295,0.33152,0.6108,-1,1
296,0.33213,0.6097,-1,1
297,0.33273,0.6085,-1,1
298,0.33333,0.6071,-1,1
299,0.33393,0.6059,-1,1
300,0.33453,0.6047,-1,1
301,0.33513,0.6037,-1,1
302,0.33573,0.6029,-1,1
303,0.33633,0.6019,-1,1
304,0.33693,0.601,-1,1
305,0.33753,0.6004,-1,1
306,0.33812,0.5995,-1,1
307,0.33872,0.5989,-1,1
308,0.33932,0.5984,-1,1
309,0.33991,0.5975,-1,1
310,0.3405,0.5968,-1,1
311,0.3411,0.5962,-1,1
312,0.34169,0.5958,-1,1
313,0.34229,0.5957,-1,1
314,0.34288,0.5956,-1,1
315,0.34348,0.5953,-1,1
316,0.34407,0.5953,-1,1
317,0.34467,0.5953,-1,1
318,0.34527,0.5955,-1,1
319,0.34587,0.5959,-1,1
320,0.34647,0.5965,-1,1
321,0.34706,0.597,-1,1
322,0.34766,0.5973,-1,1
323,0.34826,0.5975,-1,1
324,0.34886,0.5978,-1,1
325,0.34946,0.598,-1,1
326,0.35006,0.5983,-1,1
327,0.35066,0.5985,-1,1
328,0.35126,0.5989,-1,1
329,0.35186,0.5994,-1,1
330,0.35247,0.6,-1,1
331,0.35307,0.6007,-1,1
332,0.35368,0.6015,-1,1
333,0.35428,0.6022,-1,1
334,0.35489,0.6028,-1,1
335,0.3555,0.6037,-1,1
336,0.3561,0.6045,-1,1
337,0.35671,0.6053,-1,1
338,0.35732,0.6059,-1,1
339,0.35793,0.6065,-1,1
340,0.35853,0.6069,-1,1
341,0.35915,0.6075,-1,1
342,0.35976,0.6082,-1,1
343,0.36037,0.609,-1,1
344,0.36099,0.6099,-1,1
345,0.3616,0.6107,-1,1
346,0.36222,0.6116,-1,1
347,0.36283,0.6124,-1,1
348,0.36345,0.6132,-1,1
349,0.36407,0.6141,-1,1
350,0.36468,0.615,-1,1
351,0.3653,0.6156,-1,1
352,0.36592,0.6162,-1,1
353,0.36654,0.617,-1,1
354,0.36717,0.618,-1,1
355,0.36779,0.619,-1,1
356,0.36842,0.62,-1,1
357,0.36904,0.6212,-1,1
358,0.36967,0.6223,-1,1
359,0.3703,0.6236,-1,1
360,0.37156,0.6251,-1,1
361,0.3722,0.6268,-1,1
362,0.37283,0.6283,-1,1
363,0.37347,0.6298,-1,1
364,0.37411,0.6312,-1,1
365,0.37475,0.6334,-1,1
366,0.37539,0.6355,-1,1
367,0.37604,0.6378,-1,1
368,0.37669,0.6399,-1,1
369,0.37734,0.6418,-1,1
370,0.37799,0.6435,-1,1
371,0.37864,0.6456,-1,1
372,0.3793,0.6481,-1,1
373,0.38062,0.6506,-1,1
374,0.38128,0.6531,-1,1
375,0.38194,0.6545,-1,1
376,0.3826,0.6562,-1,1
377,0.38327,0.6579,-1,1
378,0.38394,0.6602,-1,1
379,0.38462,0.6627,-1,1
380,0.38529,0.6652,-1,1
381,0.38597,0.6673,-1,1
382,0.38665,0.6693,-1,1
383,0.38732,0.6711,-1,1
384,0.38869,0.6732,-1,1
385,0.38937,0.6756,-1,1
386,0.39006,0.6782,-1,1
387,0.39075,0.6806,-1,1
388,0.39145,0.6828,-1,1
389,0.39214,0.6848,-1,1
390,0.39284,0.6872,-1,1
391,0.39354,0.6895,-1,1
392,0.39424,0.6919,-1,1
393,0.39495,0.6943,-1,1
394,0.39565,0.6966,-1,1
395,0.39636,0.6987,-1,1
396,0.39707,0.7006,-1,1
397,0.39778,0.7027,-1,1
398,0.3985,0.7048,-1,1
399,0.39921,0.707,-1,1
400,0.39993,0.7092,-1,1
401,0.40066,0.7117,-1,1
402,0.40139,0.714,-1,1
403,0.40211,0.7165,-1,1
404,0.40284,0.7187,-1,1
405,0.40357,0.7211,-1,1
406,0.40431,0.7235,-1,1
407,0.40504,0.7262,-1,1
408,0.40579,0.7288,-1,1
409,0.40653,0.7314,-1,1
410,0.40727,0.7339,-1,1
411,0.40802,0.7361,-1,1
412,0.40877,0.7386,-1,1
413,0.40953,0.7411,-1,1
414,0.41028,0.7438,-1,1
415,0.41104,0.7466,-1,1
416,0.4118,0.7493,-1,1
417,0.41256,0.7516,-1,1
418,0.41333,0.7543,-1,1
419,0.4141,0.757,-1,1
420,0.41487,0.7597,-1,1
421,0.41565,0.7627,-1,1
422,0.41643,0.7655,-1,1
423,0.41721,0.7686,-1,1
424,0.418,0.7717,-1,1
425,0.41879,0.7749,-1,1
426,0.41958,0.7781,-1,1
427,0.42038,0.7814,-1,1
428,0.42117,0.7843,-1,1
429,0.42197,0.7874,-1,1
430,0.42278,0.7908,-1,1
431,0.42359,0.7942,-1,1
432,0.4244,0.7976,-1,1
433,0.42522,0.8006,-1,1
434,0.42603,0.8036,-1,1
435,0.42686,0.8067,-1,1
436,0.42768,0.8098,-1,1
437,0.42851,0.8129,-1,1
438,0.42934,0.8164,-1,1
439,0.43017,0.8196,-1,1
440,0.43101,0.8225,-1,1
441,0.43184,0.8251,-1,1
442,0.43269,0.828,-1,1
443,0.43353,0.8311,-1,1
444,0.43438,0.8341,-1,1
445,0.43522,0.8366,-1,1
446,0.43607,0.8392,-1,1
447,0.43692,0.8418,-1,1
448,0.43778,0.8443,-1,1
449,0.43864,0.8468,-1,1
450,0.4395,0.8493,-1,1
451,0.44036,0.8517,-1,1
452,0.44122,0.8538,-1,1
453,0.44209,0.8558,-1,1
454,0.44295,0.8578,-1,1
455,0.44382,0.8599,-1,1
456,0.44469,0.8619,-1,1
457,0.44556,0.8637,-1,1
458,0.44643,0.8655,-1,1
459,0.44731,0.8673,-1,1
460,0.44819,0.8691,-1,1
461,0.44907,0.8707,-1,1
462,0.44994,0.8722,-1,1
463,0.45082,0.8737,-1,1
464,0.45171,0.8752,-1,1
465,0.45259,0.877,-1,1
466,0.45348,0.8785,-1,1
467,0.45436,0.8801,-1,1
468,0.45525,0.8816,-1,1
469,0.45614,0.883,-1,1
470,0.45703,0.8844,-1,1
471,0.45793,0.886,-1,1
472,0.45971,0.8876,-1,1
473,0.45971,0.8891,-1,1
474,0.46061,0.8909,-1,1
475,0.46151,0.8924,-1,1
476,0.46331,0.8941,-1,1
477,0.46421,0.8955,-1,1
478,0.46511,0.8969,-1,1
479,0.46602,0.8984,-1,1
480,0.46692,0.8997,-1,1
481,0.46783,0.9009,-1,1
482,0.46873,0.9021,-1,1
483,0.46964,0.9034,-1,1
484,0.47055,0.9043,-1,1
485,0.47146,0.9055,-1,1
486,0.47237,0.9065,-1,1
487,0.47328,0.9074,-1,1
488,0.47419,0.9084,-1,1
489,0.47511,0.9094,-1,1
490,0.47694,0.9103,-1,1
491,0.47785,0.9111,-1,1
492,0.47876,0.9118,-1,1
493,0.47967,0.9124,-1,1
494,0.48059,0.9132,-1,1
495,0.48151,0.9136,-1,1
496,0.48242,0.9139,-1,1
497,0.48334,0.9144,-1,1
498,0.48425,0.9148,-1,1
499,0.48517,0.9152,-1,1
500,0.48701,0.9154,-1,1
501,0.48792,0.9156,-1,1
502,0.48883,0.9155,-1,1
503,0.48975,0.9154,-1,1
504,0.49066,0.9152,-1,1
505,0.49158,0.9151,-1,1
506,0.49249,0.9153,-1,1
507,0.49341,0.9157,-1,1
508,0.49433,0.9155,-1,1
509,0.49524,0.915,-1,1
510,0.49615,0.9142,-1,1
511,0.49706,0.9132,-1,1
512,0.49796,0.9129,-1,1
513,0.49888,0.9127,-1,1
514,0.49979,0.9124,-1,1
515,0.5007,0.912,-1,1
516,0.50161,0.9113,-1,1
517,0.50251,0.91,-1,1
518,0.50341,0.9086,-1,1
519,0.50431,0.9073,-1,1
520,0.50522,0.9065,-1,1
521,0.50612,0.906,-1,1
522,0.50701,0.905,-1,1
523,0.50792,0.9039,-1,1
524,0.50881,0.9026,-1,1
525,0.50971,0.9012,-1,1
526,0.51061,0.8997,-1,1
527,0.5115,0.8983,-1,1
528,0.51239,0.8971,-1,1
529,0.51328,0.896,-1,1
530,0.51417,0.8948,-1,1
531,0.51505,0.8934,-1,1
532,0.51593,0.8919,-1,1
533,0.51682,0.8904,-1,1
534,0.5177,0.889,-1,1
535,0.51859,0.8875,-1,1
536,0.51947,0.886,-1,1
537,0.52034,0.8843,-1,1
538,0.52121,0.8825,-1,1
539,0.52208,0.8808,-1,1
540,0.52296,0.8791,-1,1
541,0.52383,0.8777,-1,1
542,0.5247,0.8762,-1,1
543,0.52556,0.8744,-1,1
544,0.52643,0.8723,-1,1
545,0.52729,0.8702,-1,1
546,0.52815,0.8682,-1,1
547,0.529,0.8664,-1,1
548,0.52986,0.8648,-1,1
549,0.53071,0.8627,-1,1
550,0.53156,0.8608,-1,1
551,0.53241,0.8587,-1,1
552,0.53326,0.8568,-1,1
553,0.53411,0.8548,-1,1
554,0.53496,0.8528,-1,1
555,0.53579,0.8507,-1,1
556,0.53663,0.8485,-1,1
557,0.53747,0.8466,-1,1
558,0.53831,0.8449,-1,1
559,0.53914,0.8432,-1,1
560,0.53997,0.8412,-1,1
561,0.54081,0.8394,-1,1
562,0.54164,0.8376,-1,1
563,0.54247,0.8358,-1,1
564,0.54329,0.8338,-1,1
565,0.54411,0.8318,-1,1
566,0.54493,0.8301,-1,1
567,0.54575,0.8283,-1,1
568,0.54657,0.8264,-1,1
569,0.54739,0.8247,-1,1
570,0.5482,0.8229,-1,1
571,0.54901,0.8209,-1,1
572,0.54983,0.8189,-1,1
573,0.55064,0.8171,-1,1
574,0.55145,0.8151,-1,1
575,0.55305,0.8132,-1,1
576,0.55385,0.8112,-1,1
577,0.55465,0.8094,-1,1
578,0.55545,0.8076,-1,1
579,0.55625,0.8057,-1,1
580,0.55705,0.8039,-1,1
581,0.55784,0.802,-1,1
582,0.55864,0.8001,-1,1
583,0.55943,0.798,-1,1
584,0.56022,0.7964,-1,1
585,0.56179,0.7948,-1,1
586,0.56257,0.793,-1,1
587,0.56335,0.7911,-1,1
588,0.56414,0.7895,-1,1
589,0.56492,0.7881,-1,1
590,0.56571,0.7867,-1,1
591,0.56648,0.7851,-1,1
592,0.56726,0.7833,-1,1
593,0.56803,0.7818,-1,1
594,0.56881,0.7806,-1,1
595,0.56959,0.7798,-1,1
596,0.57036,0.7789,-1,1
597,0.57113,0.7778,-1,1
598,0.5719,0.7764,-1,1
599,0.57267,0.7751,-1,1
600,0.57345,0.7743,-1,1
601,0.57422,0.7737,-1,1
602,0.57499,0.7731,-1,1
603,0.57576,0.7724,-1,1
604,0.57653,0.7716,-1,1
605,0.57806,0.7706,-1,1
606,0.57883,0.77,-1,1
607,0.5796,0.7698,-1,1
608,0.58037,0.7694,-1,1
609,0.58113,0.7688,-1,1
610,0.5819,0.7679,-1,1
611,0.58267,0.7675,-1,1
612,0.58344,0.7676,-1,1
613,0.58421,0.7677,-1,1
614,0.58497,0.7675,-1,1
615,0.58573,0.7672,-1,1
616,0.5865,0.7669,-1,1
617,0.58727,0.767,-1,1
618,0.58804,0.7675,-1,1
619,0.58881,0.7682,-1,1
620,0.58958,0.7685,-1,1
621,0.59035,0.7686,-1,1
622,0.59112,0.7688,-1,1
623,0.5919,0.7692,-1,1
624,0.59267,0.7702,-1,1
625,0.59345,0.7712,-1,1
626,0.59422,0.772,-1,1
627,0.59499,0.7723,-1,1
628,0.59577,0.7727,-1,1
629,0.59655,0.7734,-1,1
630,0.59733,0.7747,-1,1
631,0.59811,0.776,-1,1
632,0.5989,0.777,-1,1
633,0.59968,0.7779,-1,1
634,0.60046,0.7786,-1,1
635,0.60125,0.7797,-1,1
636,0.60203,0.7812,-1,1
637,0.60282,0.7828,-1,1
638,0.60361,0.7842,-1,1
639,0.6044,0.7853,-1,1
640,0.60519,0.7862,-1,1
641,0.60599,0.7873,-1,1
642,0.60678,0.7889,-1,1
643,0.60758,0.7907,-1,1
644,0.60839,0.7926,-1,1
645,0.60918,0.794,-1,1
646,0.60998,0.7953,-1,1
647,0.61079,0.7965,-1,1
648,0.61159,0.798,-1,1
649,0.6124,0.7998,-1,1
650,0.61321,0.8016,-1,1
651,0.61402,0.8032,-1,1
652,0.61483,0.8045,-1,1
653,0.61564,0.8058,-1,1
654,0.61646,0.8073,-1,1
655,0.61728,0.8093,-1,1
656,0.6181,0.8112,-1,1
657,0.61891,0.8128,-1,1
658,0.61973,0.814,-1,1
659,0.62055,0.8153,-1,1
660,0.62138,0.817,-1,1
661,0.62221,0.8189,-1,1
662,0.62304,0.8207,-1,1
663,0.62386,0.8223,-1,1
664,0.62469,0.8235,-1,1
665,0.62553,0.8248,-1,1
666,0.62636,0.8263,-1,1
667,0.6272,0.8283,-1,1
668,0.62803,0.8303,-1,1
669,0.62887,0.8319,-1,1
670,0.62971,0.8333,-1,1
671,0.63056,0.8348,-1,1
672,0.6314,0.8365,-1,1
673,0.63225,0.8385,-1,1
674,0.6331,0.8404,-1,1
675,0.63395,0.8419,-1,1
676,0.63479,0.8435,-1,1
677,0.63565,0.845,-1,1
678,0.6365,0.8469,-1,1
679,0.63736,0.8488,-1,1
680,0.63822,0.8507,-1,1
681,0.63908,0.8523,-1,1
682,0.63994,0.8538,-1,1
683,0.6408,0.8554,-1,1
684,0.64167,0.8572,-1,1
685,0.64254,0.8592,-1,1
686,0.6434,0.8609,-1,1
687,0.64427,0.8626,-1,1
688,0.64514,0.8643,-1,1
689,0.64602,0.866,-1,1
690,0.6469,0.8678,-1,1
691,0.64777,0.8695,-1,1
692,0.64865,0.8712,-1,1
693,0.64953,0.8727,-1,1
694,0.65041,0.8745,-1,1
695,0.6513,0.8763,-1,1
696,0.65218,0.8779,-1,1
697,0.65307,0.8796,-1,1
698,0.65396,0.8812,-1,1
699,0.65485,0.883,-1,1
700,0.65574,0.8847,-1,1
701,0.65663,0.8864,-1,1
702,0.65753,0.8881,-1,1
703,0.65842,0.8897,-1,1
704,0.65932,0.8911,-1,1
705,0.66022,0.8926,-1,1
706,0.66112,0.8943,-1,1
707,0.66203,0.896,-1,1
708,0.66293,0.8976,-1,1
709,0.66384,0.8988,-1,1
710,0.66474,0.9001,-1,1
711,0.66565,0.9016,-1,1
712,0.66656,0.9029,-1,1
713,0.66747,0.9042,-1,1
714,0.66838,0.9055,-1,1
715,0.66929,0.9069,-1,1
716,0.67021,0.9082,-1,1
717,0.67112,0.9094,-1,1
718,0.67204,0.9104,-1,1
719,0.67295,0.9114,-1,1
720,0.67387,0.9125,-1,1
721,0.67479,0.9136,-1,1
722,0.6757,0.9145,-1,1
723,0.67662,0.9153,-1,1
724,0.67754,0.9163,-1,1
725,0.67846,0.917,-1,1
726,0.67938,0.9178,-1,1
727,0.6803,0.9184,-1,1
728,0.68122,0.9189,-1,1
729,0.68214,0.9195,-1,1
730,0.68307,0.92,-1,1
731,0.68399,0.9203,-1,1
732,0.68491,0.9209,-1,1
733,0.68584,0.9216,-1,1
734,0.68676,0.9219,-1,1
735,0.68769,0.9224,-1,1
736,0.68861,0.9229,-1,1
737,0.68953,0.923,-1,1
738,0.69046,0.9234,-1,1
739,0.69138,0.9236,-1,1
740,0.69231,0.9238,-1,1
741,0.69323,0.9243,-1,1
742,0.69416,0.9246,-1,1
743,0.69508,0.9246,-1,1
744,0.69693,0.9245,-1,1
745,0.69786,0.9243,-1,1
746,0.69878,0.9239,-1,1
747,0.6997,0.924,-1,1
748,0.70063,0.9241,-1,1
749,0.70155,0.9245,-1,1
750,0.70248,0.9246,-1,1
751,0.7034,0.9243,-1,1
752,0.70432,0.924,-1,1
753,0.70617,0.9239,-1,1
754,0.70709,0.924,-1,1
755,0.70801,0.9238,-1,1
756,0.70893,0.9238,-1,1
757,0.70986,0.9237,-1,1
758,0.71078,0.9232,-1,1
759,0.7117,0.9229,-1,1
760,0.71262,0.9226,-1,1
761,0.71354,0.9221,-1,1
762,0.71446,0.9216,-1,1
763,0.71538,0.9211,-1,1
764,0.71629,0.9204,-1,1
765,0.71721,0.9201,-1,1
766,0.71813,0.9198,-1,1
767,0.71997,0.9193,-1,1
768,0.71997,0.9189,-1,1
769,0.72088,0.9179,-1,1
770,0.7227,0.9167,-1,1
771,0.72361,0.9158,-1,1
772,0.72453,0.9151,-1,1
773,0.72544,0.9146,-1,1
774,0.72635,0.914,-1,1
775,0.72726,0.9129,-1,1
776,0.72816,0.9113,-1,1
777,0.72906,0.9099,-1,1
778,0.72997,0.9086,-1,1
779,0.73087,0.9077,-1,1
780,0.73177,0.9066,-1,1
781,0.73267,0.9054,-1,1
782,0.73357,0.9039,-1,1
783,0.73536,0.9021,-1,1
784,0.73625,0.9002,-1,1
785,0.73714,0.8983,-1,1
786,0.73714,0.8968,-1,1
787,0.73803,0.8953,-1,1
788,0.73892,0.8936,-1,1
789,0.7398,0.8919,-1,1
790,0.74069,0.8905,-1,1
791,0.74157,0.8889,-1,1
792,0.74245,0.8872,-1,1
793,0.74333,0.8853,-1,1
794,0.7442,0.8835,-1,1
795,0.74595,0.8818,-1,1
796,0.74682,0.8798,-1,1
797,0.74682,0.8777,-1,1
798,0.74768,0.8758,-1,1
799,0.74855,0.8736,-1,1
800,0.74941,0.8712,-1,1
801,0.75027,0.8691,-1,1
802,0.75113,0.8669,-1,1
803,0.75198,0.8648,-1,1
804,0.75283,0.8624,-1,1
805,0.75368,0.8601,-1,1
806,0.75538,0.8578,-1,1
807,0.75622,0.8554,-1,1
808,0.75622,0.8525,-1,1
809,0.75706,0.8498,-1,1
810,0.7579,0.8474,-1,1
811,0.75873,0.8447,-1,1
812,0.75956,0.8423,-1,1
813,0.76039,0.8397,-1,1
814,0.76122,0.8371,-1,1
815,0.76287,0.8345,-1,1
816,0.76368,0.8319,-1,1
817,0.7645,0.8291,-1,1
818,0.76531,0.8264,-1,1
819,0.76612,0.8234,-1,1
820,0.76612,0.8204,-1,1
821,0.76693,0.8178,-1,1
822,0.76773,0.8151,-1,1
823,0.76854,0.8126,-1,1
824,0.76933,0.8099,-1,1
825,0.77013,0.8068,-1,1
826,0.77092,0.8042,-1,1
827,0.7725,0.8015,-1,1
828,0.77329,0.7988,-1,1
829,0.77407,0.7959,-1,1
830,0.77407,0.7926,-1,1
831,0.77484,0.7895,-1,1
832,0.77562,0.7866,-1,1
833,0.77639,0.7838,-1,1
834,0.77716,0.7812,-1,1
835,0.77793,0.7787,-1,1
836,0.77869,0.7754,-1,1
837,0.77945,0.7724,-1,1
838,0.78021,0.7697,-1,1
