cnt,pos,speed,Dir,Force,
1,0,1.2745,-1,1
2,0.00126028,1.2713,-1,1
3,0.00251007,1.2678,-1,1
4,0.00376034,1.2642,-1,1
5,0.00500011,1.2601,-1,1
6,0.00624037,1.2565,-1,1
7,0.00748014,1.2528,-1,1
8,0.00871038,1.2498,-1,1
9,0.00994015,1.2461,-1,1
10,0.0111704,1.2421,-1,1
11,0.0123801,1.2381,-1,1
12,0.0136003,1.2338,-1,1
13,0.0148101,1.2301,-1,1
14,0.0160203,1.2262,-1,1
15,0.01723,1.2229,-1,1
16,0.0184302,1.219,-1,1
17,0.01963,1.2149,-1,1
18,0.0208201,1.2106,-1,1
19,0.0220103,1.207,-1,1
20,0.0232,1.2031,-1,1
21,0.0243802,1.1994,-1,1
22,0.0255604,1.1959,-1,1
23,0.0267301,1.192,-1,1
24,0.0279102,1.1884,-1,1
25,0.0290804,1.1846,-1,1
26,0.0302401,1.1813,-1,1
27,0.0314102,1.1782,-1,1
28,0.0325704,1.1749,-1,1
29,0.03372,1.1713,-1,1
30,0.0348802,1.1684,-1,1
31,0.0360303,1.1656,-1,1
32,0.03719,1.1629,-1,1
33,0.0383301,1.1602,-1,1
34,0.0394802,1.1575,-1,1
35,0.0406203,1.1546,-1,1
36,0.04176,1.1518,-1,1
37,0.0429001,1.1492,-1,1
38,0.0440402,1.147,-1,1
39,0.0451803,1.1452,-1,1
40,0.0463099,1.1429,-1,1
41,0.0474401,1.1403,-1,1
42,0.0485601,1.1373,-1,1
43,0.0496802,1.1348,-1,1
44,0.0508103,1.1328,-1,1
45,0.05193,1.1311,-1,1
46,0.05305,1.1294,-1,1
47,0.0541701,1.1273,-1,1
48,0.0552902,1.1247,-1,1
49,0.0563903,1.1219,-1,1
50,0.0575104,1.1197,-1,1
51,0.05862,1.1184,-1,1
52,0.0597401,1.1175,-1,1
53,0.0608501,1.1162,-1,1
54,0.0619502,1.1141,-1,1
55,0.0630503,1.1118,-1,1
56,0.0641503,1.1097,-1,1
57,0.0652599,1.1083,-1,1
58,0.06636,1.1075,-1,1
59,0.0674601,1.1067,-1,1
60,0.0685601,1.1055,-1,1
61,0.0696602,1.1036,-1,1
62,0.0707502,1.1015,-1,1
63,0.0718403,1.0997,-1,1
64,0.0729403,1.0988,-1,1
65,0.0740304,1.0982,-1,1
66,0.07512,1.0972,-1,1
67,0.07621,1.0959,-1,1
68,0.0773001,1.0944,-1,1
69,0.0783901,1.0931,-1,1
70,0.0794802,1.0918,-1,1
71,0.0805602,1.0906,-1,1
72,0.0816503,1.0899,-1,1
73,0.0827403,1.0894,-1,1
74,0.0838203,1.0887,-1,1
75,0.0849104,1.0879,-1,1
76,0.086,1.0874,-1,1
77,0.08708,1.0867,-1,1
78,0.0881701,1.0862,-1,1
79,0.0892501,1.0856,-1,1
80,0.0903301,1.0855,-1,1
81,0.0914202,1.0861,-1,1
82,0.0925202,1.0868,-1,1
83,0.0936103,1.0873,-1,1
84,0.0947003,1.0874,-1,1
85,0.0957804,1.0874,-1,1
86,0.0968699,1.0875,-1,1
87,0.09797,1.0884,-1,1
88,0.0990601,1.0899,-1,1
89,0.10017,1.0918,-1,1
90,0.10127,1.0934,-1,1
91,0.10237,1.0944,-1,1
92,0.10347,1.095,-1,1
93,0.10457,1.0959,-1,1
94,0.10567,1.0977,-1,1
95,0.10679,1.1003,-1,1
96,0.1079,1.103,-1,1
97,0.10902,1.1052,-1,1
98,0.11013,1.1068,-1,1
99,0.11125,1.1083,-1,1
100,0.11237,1.1103,-1,1
101,0.11349,1.1128,-1,1
102,0.11462,1.1159,-1,1
103,0.11576,1.1193,-1,1
104,0.11689,1.1221,-1,1
105,0.11803,1.1244,-1,1
106,0.11917,1.1267,-1,1
107,0.12031,1.1294,-1,1
108,0.12146,1.1327,-1,1
109,0.12261,1.1365,-1,1
110,0.12377,1.1402,-1,1
111,0.12493,1.1438,-1,1
112,0.12609,1.1469,-1,1
113,0.12725,1.1495,-1,1
114,0.12842,1.1527,-1,1
115,0.1296,1.1567,-1,1
116,0.13197,1.1615,-1,1
117,0.13197,1.1661,-1,1
118,0.13316,1.1701,-1,1
119,0.13434,1.1738,-1,1
120,0.13554,1.1776,-1,1
121,0.13794,1.182,-1,1
122,0.13915,1.1871,-1,1
123,0.14037,1.1929,-1,1
124,0.14159,1.1981,-1,1
125,0.14281,1.2025,-1,1
126,0.14403,1.2065,-1,1
127,0.14526,1.2114,-1,1
128,0.1465,1.2163,-1,1
129,0.14774,1.2218,-1,1
130,0.149,1.2277,-1,1
131,0.15025,1.2327,-1,1
132,0.1515,1.2369,-1,1
133,0.15276,1.2414,-1,1
134,0.15402,1.2472,-1,1
135,0.15659,1.254,-1,1
136,0.15788,1.2608,-1,1
137,0.15918,1.2664,-1,1
138,0.16046,1.2717,-1,1
139,0.16176,1.2766,-1,1
140,0.16307,1.2821,-1,1
141,0.16439,1.2889,-1,1
142,0.16572,1.2965,-1,1
143,0.16705,1.3031,-1,1
144,0.16838,1.3082,-1,1
145,0.17106,1.3137,-1,1
146,0.17242,1.3203,-1,1
147,0.17378,1.3278,-1,1
148,0.17515,1.3354,-1,1
149,0.17651,1.342,-1,1
150,0.17788,1.3477,-1,1
151,0.17926,1.3535,-1,1
152,0.18066,1.3603,-1,1
153,0.18206,1.3677,-1,1
154,0.18346,1.3749,-1,1
155,0.18486,1.3803,-1,1
156,0.18626,1.3847,-1,1
157,0.18768,1.3897,-1,1
158,0.18911,1.3963,-1,1
159,0.19054,1.4034,-1,1
160,0.19198,1.4098,-1,1
161,0.19341,1.4148,-1,1
162,0.19485,1.419,-1,1
163,0.1963,1.4239,-1,1
164,0.19776,1.4301,-1,1
165,0.19922,1.4365,-1,1
166,0.20068,1.4418,-1,1
167,0.20214,1.446,-1,1
168,0.20361,1.4499,-1,1
169,0.20509,1.4547,-1,1
170,0.20658,1.4601,-1,1
171,0.20806,1.4652,-1,1
172,0.20954,1.4691,-1,1
173,0.21102,1.4726,-1,1
174,0.21252,1.4761,-1,1
175,0.21402,1.4799,-1,1
176,0.21552,1.4841,-1,1
177,0.21702,1.4879,-1,1
178,0.21852,1.4911,-1,1
179,0.22003,1.494,-1,1
180,0.22154,1.4967,-1,1
181,0.22305,1.4996,-1,1
182,0.22456,1.5027,-1,1
183,0.22608,1.5055,-1,1
184,0.2276,1.508,-1,1
185,0.22913,1.5105,-1,1
186,0.23065,1.5126,-1,1
187,0.23216,1.5145,-1,1
188,0.23368,1.5163,-1,1
189,0.23521,1.518,-1,1
190,0.23674,1.5199,-1,1
191,0.23827,1.5216,-1,1
192,0.23979,1.523,-1,1
193,0.24132,1.5236,-1,1
194,0.24284,1.5241,-1,1
195,0.24437,1.5246,-1,1
196,0.2459,1.5258,-1,1
197,0.24743,1.5265,-1,1
198,0.24895,1.5269,-1,1
199,0.25048,1.5265,-1,1
200,0.252,1.5263,-1,1
201,0.25353,1.5262,-1,1
202,0.25506,1.5263,-1,1
203,0.25658,1.5262,-1,1
204,0.2581,1.5259,-1,1
205,0.25963,1.5254,-1,1
206,0.26115,1.5244,-1,1
207,0.26267,1.5238,-1,1
208,0.26418,1.523,-1,1
209,0.2657,1.5225,-1,1
210,0.26722,1.5215,-1,1
211,0.26874,1.5205,-1,1
212,0.27025,1.5191,-1,1
213,0.27176,1.5177,-1,1
214,0.27326,1.5161,-1,1
215,0.27477,1.5145,-1,1
216,0.27628,1.5132,-1,1
217,0.27778,1.5117,-1,1
218,0.27928,1.5099,-1,1
219,0.28078,1.5076,-1,1
220,0.28227,1.5052,-1,1
221,0.28377,1.5031,-1,1
222,0.28526,1.5009,-1,1
223,0.28674,1.4988,-1,1
224,0.28822,1.4959,-1,1
225,0.2897,1.493,-1,1
226,0.29118,1.4899,-1,1
227,0.29265,1.4871,-1,1
228,0.29412,1.484,-1,1
229,0.29558,1.4807,-1,1
230,0.29704,1.477,-1,1
231,0.2985,1.473,-1,1
232,0.29996,1.4699,-1,1
233,0.30141,1.4665,-1,1
234,0.30285,1.463,-1,1
235,0.30429,1.459,-1,1
236,0.30573,1.4548,-1,1
237,0.30716,1.4506,-1,1
238,0.30859,1.4469,-1,1
239,0.31002,1.4432,-1,1
240,0.31144,1.4396,-1,1
241,0.31285,1.4355,-1,1
242,0.31427,1.4309,-1,1
243,0.31567,1.4263,-1,1
244,0.31707,1.422,-1,1
245,0.31847,1.4179,-1,1
246,0.31987,1.4139,-1,1
247,0.32126,1.4099,-1,1
248,0.32265,1.4055,-1,1
249,0.32403,1.401,-1,1
250,0.3254,1.3961,-1,1
251,0.32677,1.3917,-1,1
252,0.32814,1.3876,-1,1
253,0.32951,1.3839,-1,1
254,0.33087,1.38,-1,1
255,0.33223,1.3755,-1,1
256,0.33357,1.3706,-1,1
257,0.33492,1.3656,-1,1
258,0.33626,1.3615,-1,1
259,0.33761,1.358,-1,1
260,0.33895,1.3547,-1,1
261,0.34028,1.3505,-1,1
262,0.3416,1.3457,-1,1
263,0.34292,1.3409,-1,1
264,0.34424,1.3367,-1,1
265,0.34556,1.3335,-1,1
266,0.34688,1.3303,-1,1
267,0.34818,1.3268,-1,1
268,0.34949,1.3225,-1,1
269,0.35079,1.3179,-1,1
270,0.35338,1.3137,-1,1
271,0.35468,1.3102,-1,1
272,0.35597,1.3068,-1,1
273,0.35725,1.3032,-1,1
274,0.35854,1.2995,-1,1
275,0.35981,1.2954,-1,1
276,0.36109,1.2918,-1,1
277,0.36237,1.2886,-1,1
278,0.36364,1.2854,-1,1
279,0.36491,1.2825,-1,1
280,0.36618,1.2795,-1,1
281,0.36744,1.2766,-1,1
282,0.36871,1.274,-1,1
283,0.37123,1.2714,-1,1
284,0.37123,1.2685,-1,1
285,0.37248,1.2659,-1,1
286,0.37499,1.2633,-1,1
287,0.37624,1.2608,-1,1
288,0.37749,1.2583,-1,1
289,0.37873,1.256,-1,1
290,0.37998,1.2537,-1,1
291,0.38122,1.2516,-1,1
292,0.38246,1.2494,-1,1
293,0.3837,1.2476,-1,1
294,0.38618,1.2459,-1,1
295,0.38741,1.244,-1,1
296,0.38865,1.2423,-1,1
297,0.38988,1.2404,-1,1
298,0.39111,1.2389,-1,1
299,0.39234,1.2371,-1,1
300,0.39357,1.2355,-1,1
301,0.3948,1.2342,-1,1
302,0.39603,1.2331,-1,1
303,0.39726,1.2318,-1,1
304,0.39848,1.2308,-1,1
305,0.39971,1.2297,-1,1
306,0.40093,1.2281,-1,1
307,0.40215,1.2271,-1,1
308,0.40337,1.2265,-1,1
309,0.4046,1.2261,-1,1
310,0.40582,1.2254,-1,1
311,0.40704,1.224,-1,1
312,0.40825,1.2225,-1,1
313,0.40947,1.221,-1,1
314,0.41068,1.2201,-1,1
315,0.4119,1.2196,-1,1
316,0.41312,1.2196,-1,1
317,0.41434,1.219,-1,1
318,0.41555,1.2173,-1,1
319,0.41676,1.2156,-1,1
320,0.41796,1.2143,-1,1
321,0.41918,1.2138,-1,1
322,0.42039,1.2138,-1,1
323,0.4216,1.2139,-1,1
324,0.42281,1.213,-1,1
325,0.42402,1.2115,-1,1
326,0.42522,1.2095,-1,1
327,0.42642,1.2084,-1,1
328,0.42763,1.2085,-1,1
329,0.42884,1.2088,-1,1
330,0.43005,1.2088,-1,1
331,0.43125,1.2078,-1,1
332,0.43245,1.2058,-1,1
333,0.43364,1.2041,-1,1
334,0.43485,1.2033,-1,1
335,0.43605,1.2034,-1,1
336,0.43726,1.2041,-1,1
337,0.43846,1.2035,-1,1
338,0.43965,1.202,-1,1
339,0.44084,1.1999,-1,1
340,0.44203,1.198,-1,1
341,0.44323,1.1973,-1,1
342,0.44443,1.1977,-1,1
343,0.44562,1.1979,-1,1
344,0.44682,1.197,-1,1
345,0.448,1.1951,-1,1
346,0.44918,1.1925,-1,1
347,0.45037,1.1909,-1,1
348,0.45155,1.19,-1,1
349,0.45274,1.1897,-1,1
350,0.45392,1.1891,-1,1
351,0.45511,1.188,-1,1
352,0.45628,1.1858,-1,1
353,0.45745,1.183,-1,1
354,0.45862,1.1808,-1,1
355,0.4598,1.1795,-1,1
356,0.46097,1.1787,-1,1
357,0.46214,1.1776,-1,1
358,0.46331,1.1759,-1,1
359,0.46447,1.1735,-1,1
360,0.46563,1.1711,-1,1
361,0.46679,1.1686,-1,1
362,0.46795,1.1668,-1,1
363,0.46911,1.1656,-1,1
364,0.47027,1.1644,-1,1
365,0.47142,1.1626,-1,1
366,0.47257,1.1602,-1,1
367,0.47372,1.1578,-1,1
368,0.47487,1.1556,-1,1
369,0.47601,1.1538,-1,1
370,0.47716,1.1523,-1,1
371,0.4783,1.1509,-1,1
372,0.47944,1.1491,-1,1
373,0.48058,1.1467,-1,1
374,0.48171,1.1442,-1,1
375,0.48284,1.1418,-1,1
376,0.48397,1.14,-1,1
377,0.4851,1.1383,-1,1
378,0.48623,1.1365,-1,1
379,0.48736,1.1343,-1,1
380,0.48848,1.1318,-1,1
381,0.48959,1.129,-1,1
382,0.49071,1.1264,-1,1
383,0.49182,1.1241,-1,1
384,0.49293,1.1218,-1,1
385,0.49404,1.1195,-1,1
386,0.49514,1.1167,-1,1
387,0.49624,1.1136,-1,1
388,0.49734,1.1104,-1,1
389,0.49843,1.1075,-1,1
390,0.49952,1.1045,-1,1
391,0.50061,1.1017,-1,1
392,0.50169,1.0988,-1,1
393,0.50278,1.0959,-1,1
394,0.50386,1.0926,-1,1
395,0.50493,1.0891,-1,1
396,0.506,1.0857,-1,1
397,0.50706,1.0824,-1,1
398,0.50813,1.0793,-1,1
399,0.50919,1.0761,-1,1
400,0.51025,1.073,-1,1
401,0.5113,1.0693,-1,1
402,0.51235,1.0656,-1,1
403,0.51339,1.0615,-1,1
404,0.51443,1.0579,-1,1
405,0.51547,1.0544,-1,1
406,0.51651,1.0513,-1,1
407,0.51754,1.0478,-1,1
408,0.51857,1.0438,-1,1
409,0.5206,1.0392,-1,1
410,0.52162,1.0347,-1,1
411,0.52263,1.0305,-1,1
412,0.52364,1.0265,-1,1
413,0.52464,1.0228,-1,1
414,0.52564,1.0186,-1,1
415,0.52663,1.0139,-1,1
416,0.52762,1.0086,-1,1
417,0.5286,1.0037,-1,1
418,0.52958,0.9994,-1,1
419,0.53056,0.996,-1,1
420,0.53154,0.9921,-1,1
421,0.53251,0.9882,-1,1
422,0.53347,0.9834,-1,1
423,0.53443,0.9787,-1,1
424,0.53538,0.9742,-1,1
425,0.53634,0.9705,-1,1
426,0.53729,0.967,-1,1
427,0.53823,0.9635,-1,1
428,0.53918,0.9596,-1,1
429,0.54011,0.955,-1,1
430,0.54104,0.9505,-1,1
431,0.54197,0.9457,-1,1
432,0.54289,0.9417,-1,1
433,0.5438,0.9378,-1,1
434,0.54472,0.9341,-1,1
435,0.54564,0.9301,-1,1
436,0.54654,0.9259,-1,1
437,0.54745,0.9213,-1,1
438,0.54834,0.9166,-1,1
439,0.54923,0.9122,-1,1
440,0.55012,0.908,-1,1
441,0.551,0.904,-1,1
442,0.55188,0.8995,-1,1
443,0.55363,0.895,-1,1
444,0.5545,0.8903,-1,1
445,0.55537,0.8852,-1,1
446,0.55622,0.8801,-1,1
447,0.55707,0.8751,-1,1
448,0.55792,0.8702,-1,1
449,0.55877,0.8655,-1,1
450,0.55961,0.8607,-1,1
451,0.56044,0.8559,-1,1
452,0.56127,0.8514,-1,1
453,0.5621,0.847,-1,1
454,0.56293,0.8424,-1,1
455,0.56375,0.838,-1,1
456,0.56456,0.8335,-1,1
457,0.56536,0.829,-1,1
458,0.56617,0.8247,-1,1
459,0.56697,0.8202,-1,1
460,0.56777,0.8159,-1,1
461,0.56856,0.8116,-1,1
462,0.56934,0.8071,-1,1
463,0.57012,0.8021,-1,1
464,0.5709,0.7976,-1,1
465,0.57168,0.7931,-1,1
466,0.57245,0.7889,-1,1
467,0.57321,0.7846,-1,1
468,0.57397,0.7801,-1,1
469,0.57472,0.7754,-1,1
470,0.57547,0.7707,-1,1
471,0.57622,0.7662,-1,1
472,0.57696,0.762,-1,1
473,0.5777,0.7578,-1,1
474,0.57843,0.753,-1,1
475,0.57916,0.7483,-1,1
476,0.57988,0.7433,-1,1
477,0.5806,0.7389,-1,1
478,0.58132,0.7347,-1,1
479,0.58203,0.7306,-1,1
480,0.58273,0.7262,-1,1
481,0.58343,0.7214,-1,1
482,0.58413,0.7166,-1,1
483,0.58482,0.7118,-1,1
484,0.58551,0.7076,-1,1
485,0.58619,0.7032,-1,1
486,0.58687,0.699,-1,1
487,0.58754,0.6941,-1,1
488,0.5882,0.6889,-1,1
489,0.58887,0.684,-1,1
490,0.58953,0.6793,-1,1
491,0.59018,0.6752,-1,1
492,0.59084,0.6709,-1,1
493,0.59148,0.6666,-1,1
494,0.59212,0.6618,-1,1
495,0.59276,0.657,-1,1
496,0.59339,0.6522,-1,1
497,0.59402,0.6479,-1,1
498,0.59464,0.6439,-1,1
499,0.59526,0.6396,-1,1
500,0.59588,0.6352,-1,1
501,0.59649,0.6304,-1,1
502,0.59709,0.6256,-1,1
503,0.59769,0.6211,-1,1
504,0.59829,0.6169,-1,1
505,0.59889,0.6131,-1,1
506,0.59948,0.6095,-1,1
507,0.60007,0.6056,-1,1
508,0.60065,0.6013,-1,1
509,0.60123,0.5968,-1,1
510,0.6018,0.5925,-1,1
511,0.60237,0.5884,-1,1
512,0.60294,0.5847,-1,1
513,0.6035,0.581,-1,1
514,0.60407,0.5772,-1,1
515,0.60462,0.573,-1,1
516,0.60517,0.5685,-1,1
517,0.60572,0.5643,-1,1
518,0.60626,0.5607,-1,1
519,0.60681,0.5577,-1,1
520,0.60735,0.5548,-1,1
521,0.60789,0.5516,-1,1
522,0.60842,0.5479,-1,1
523,0.60895,0.5441,-1,1
524,0.60947,0.5404,-1,1
525,0.60999,0.5373,-1,1
526,0.61052,0.5347,-1,1
527,0.61104,0.532,-1,1
528,0.61155,0.529,-1,1
529,0.61206,0.5257,-1,1
530,0.61257,0.5223,-1,1
531,0.61308,0.5196,-1,1
532,0.61359,0.5174,-1,1
533,0.6141,0.5155,-1,1
534,0.61461,0.5138,-1,1
535,0.61511,0.5116,-1,1
536,0.61561,0.5091,-1,1
537,0.6161,0.5068,-1,1
538,0.6166,0.5048,-1,1
539,0.6171,0.5033,-1,1
540,0.6176,0.5021,-1,1
541,0.61809,0.5005,-1,1
542,0.61858,0.4989,-1,1
543,0.61908,0.4974,-1,1
544,0.61957,0.4961,-1,1
545,0.62007,0.4955,-1,1
546,0.62056,0.4952,-1,1
547,0.62106,0.495,-1,1
548,0.62155,0.4951,-1,1
549,0.62205,0.4954,-1,1
550,0.62256,0.4961,-1,1
551,0.62306,0.4972,-1,1
552,0.62357,0.4985,-1,1
553,0.62407,0.4997,-1,1
554,0.62458,0.501,-1,1
555,0.62509,0.5023,-1,1
556,0.6256,0.504,-1,1
557,0.62612,0.5059,-1,1
558,0.62663,0.5078,-1,1
559,0.62715,0.5098,-1,1
560,0.62768,0.5117,-1,1
561,0.6282,0.5138,-1,1
562,0.62873,0.516,-1,1
563,0.62926,0.5188,-1,1
564,0.6298,0.5217,-1,1
565,0.63034,0.525,-1,1
566,0.63089,0.5283,-1,1
567,0.63143,0.5318,-1,1
568,0.63199,0.5354,-1,1
569,0.63254,0.539,-1,1
570,0.6331,0.5427,-1,1
571,0.63367,0.5467,-1,1
572,0.63424,0.551,-1,1
573,0.63482,0.5556,-1,1
574,0.6354,0.5602,-1,1
575,0.63599,0.5648,-1,1
576,0.63658,0.5697,-1,1
577,0.63718,0.5749,-1,1
578,0.63779,0.5803,-1,1
579,0.6384,0.5861,-1,1
580,0.63903,0.5923,-1,1
581,0.63965,0.5985,-1,1
582,0.64029,0.6046,-1,1
583,0.64092,0.6106,-1,1
584,0.64157,0.6171,-1,1
585,0.64223,0.6238,-1,1
586,0.64289,0.6308,-1,1
587,0.64356,0.6378,-1,1
588,0.64424,0.6451,-1,1
589,0.64493,0.6524,-1,1
590,0.64562,0.6596,-1,1
591,0.64633,0.6681,-1,1
592,0.64776,0.6771,-1,1
593,0.64849,0.6863,-1,1
594,0.64923,0.6954,-1,1
595,0.64998,0.7044,-1,1
596,0.65073,0.7137,-1,1
597,0.6515,0.7234,-1,1
598,0.65228,0.7332,-1,1
599,0.65306,0.7429,-1,1
600,0.65386,0.7529,-1,1
601,0.65466,0.7621,-1,1
602,0.6563,0.7726,-1,1
603,0.65714,0.7831,-1,1
604,0.65799,0.7938,-1,1
605,0.65884,0.8048,-1,1
606,0.65971,0.8159,-1,1
607,0.66059,0.827,-1,1
608,0.66148,0.8385,-1,1
609,0.66238,0.8501,-1,1
610,0.66329,0.862,-1,1
611,0.66422,0.874,-1,1
612,0.66515,0.8847,-1,1
613,0.6661,0.8971,-1,1
614,0.66803,0.9094,-1,1
615,0.66901,0.9218,-1,1
616,0.66901,0.9343,-1,1
617,0.67,0.9457,-1,1
618,0.67101,0.9584,-1,1
619,0.67305,0.9712,-1,1
620,0.67409,0.9836,-1,1
621,0.67514,0.9962,-1,1
622,0.6762,1.0089,-1,1
623,0.67728,1.0202,-1,1
624,0.67836,1.0318,-1,1
625,0.67946,1.0434,-1,1
626,0.68056,1.0549,-1,1
627,0.68168,1.0675,-1,1
628,0.68281,1.0784,-1,1
629,0.68395,1.0891,-1,1
630,0.68509,1.1001,-1,1
631,0.68625,1.111,-1,1
632,0.68743,1.1223,-1,1
633,0.68861,1.1342,-1,1
634,0.6898,1.146,-1,1
635,0.691,1.1567,-1,1
636,0.69221,1.1667,-1,1
637,0.69343,1.1767,-1,1
638,0.69466,1.1871,-1,1
639,0.69591,1.198,-1,1
640,0.69716,1.2087,-1,1
641,0.69842,1.2191,-1,1
642,0.69969,1.2287,-1,1
643,0.70097,1.2381,-1,1
644,0.70356,1.2479,-1,1
645,0.70487,1.259,-1,1
646,0.70487,1.2704,-1,1
647,0.70619,1.2807,-1,1
648,0.70752,1.2901,-1,1
649,0.70885,1.2988,-1,1
650,0.71019,1.3073,-1,1
651,0.71154,1.316,-1,1
652,0.71291,1.3266,-1,1
653,0.71428,1.3361,-1,1
654,0.71566,1.3445,-1,1
655,0.71844,1.3522,-1,1
656,0.71984,1.36,-1,1
657,0.71984,1.369,-1,1
658,0.72125,1.3776,-1,1
659,0.72267,1.3866,-1,1
660,0.7241,1.3956,-1,1
661,0.72553,1.4039,-1,1
662,0.72697,1.4097,-1,1
663,0.72841,1.4158,-1,1
664,0.72986,1.4238,-1,1
665,0.73133,1.4317,-1,1
666,0.73427,1.4389,-1,1
667,0.73575,1.4455,-1,1
668,0.73575,1.4526,-1,1
669,0.73723,1.4588,-1,1
670,0.73872,1.4651,-1,1
671,0.74022,1.4715,-1,1
672,0.74172,1.4786,-1,1
673,0.74323,1.4854,-1,1
674,0.74475,1.4904,-1,1
675,0.74627,1.4955,-1,1
676,0.74779,1.5009,-1,1
677,0.74932,1.5066,-1,1
678,0.75086,1.5123,-1,1
679,0.7524,1.5187,-1,1
680,0.75394,1.5242,-1,1
681,0.75549,1.5293,-1,1
682,0.75705,1.5343,-1,1
683,0.75861,1.5391,-1,1
684,0.76017,1.544,-1,1
685,0.76174,1.549,-1,1
686,0.76331,1.5538,-1,1
687,0.76489,1.5578,-1,1
688,0.76805,1.562,-1,1
689,0.76805,1.566,-1,1
690,0.76964,1.57,-1,1
691,0.77123,1.5742,-1,1
692,0.77282,1.5781,-1,1
693,0.77442,1.5821,-1,1
694,0.77602,1.5858,-1,1
695,0.77762,1.589,-1,1
696,0.77923,1.5926,-1,1
697,0.78084,1.5963,-1,1
698,0.78406,1.5995,-1,1
699,0.78568,1.6023,-1,1
700,0.7873,1.6054,-1,1
701,0.7873,1.6082,-1,1
702,0.78891,1.6107,-1,1
703,0.79054,1.6132,-1,1
704,0.79216,1.6158,-1,1
705,0.79379,1.6184,-1,1
706,0.79542,1.6204,-1,1
707,0.79868,1.6221,-1,1
708,0.80031,1.6239,-1,1
709,0.80194,1.6256,-1,1
710,0.80358,1.6273,-1,1
711,0.80358,1.6289,-1,1
712,0.80521,1.6305,-1,1
713,0.80685,1.6317,-1,1
714,0.80848,1.6328,-1,1
715,0.81012,1.6339,-1,1
716,0.81176,1.6348,-1,1
717,0.8134,1.6358,-1,1
718,0.81504,1.6365,-1,1
719,0.81668,1.6374,-1,1
720,0.81996,1.638,-1,1
721,0.8216,1.6386,-1,1
722,0.8216,1.6391,-1,1
723,0.82324,1.6396,-1,1
724,0.82488,1.6399,-1,1
725,0.82652,1.64,-1,1
726,0.82816,1.6402,-1,1
727,0.8298,1.6403,-1,1
728,0.83144,1.6403,-1,1
729,0.83308,1.6401,-1,1
730,0.83472,1.6398,-1,1
731,0.83799,1.6395,-1,1
732,0.83963,1.6393,-1,1
733,0.83963,1.639,-1,1
734,0.84127,1.6387,-1,1
735,0.8429,1.6382,-1,1
736,0.84454,1.6373,-1,1
737,0.84617,1.6363,-1,1
738,0.8478,1.6355,-1,1
739,0.84943,1.6347,-1,1
740,0.85106,1.6335,-1,1
741,0.85269,1.632,-1,1
742,0.85593,1.6307,-1,1
743,0.85756,1.6292,-1,1
744,0.85756,1.6277,-1,1
745,0.85918,1.6264,-1,1
746,0.8608,1.625,-1,1
747,0.86241,1.6237,-1,1
748,0.86403,1.622,-1,1
749,0.86564,1.6202,-1,1
750,0.86725,1.6189,-1,1
751,0.86886,1.6175,-1,1
752,0.87047,1.6156,-1,1
753,0.87207,1.6135,-1,1
754,0.87368,1.6114,-1,1
755,0.87528,1.6093,-1,1
756,0.87687,1.6073,-1,1
757,0.87847,1.6051,-1,1
758,0.88006,1.6027,-1,1
759,0.88324,1.6001,-1,1
760,0.88482,1.5973,-1,1
761,0.88641,1.5948,-1,1
762,0.88799,1.5923,-1,1
763,0.88957,1.5902,-1,1
764,0.89114,1.5872,-1,1
765,0.89271,1.5842,-1,1
766,0.89429,1.5819,-1,1
767,0.89586,1.5794,-1,1
768,0.89742,1.5766,-1,1
769,0.89898,1.5736,-1,1
770,0.9021,1.5712,-1,1
771,0.90366,1.5688,-1,1
772,0.90521,1.5657,-1,1
773,0.90675,1.5619,-1,1
774,0.90829,1.559,-1,1
775,0.90983,1.556,-1,1
776,0.91138,1.553,-1,1
777,0.91291,1.5498,-1,1
778,0.91444,1.5466,-1,1
779,0.91597,1.5433,-1,1
780,0.91749,1.5397,-1,1
781,0.91902,1.5362,-1,1
782,0.92054,1.5335,-1,1
783,0.92206,1.531,-1,1
784,0.92357,1.5276,-1,1
785,0.92508,1.5243,-1,1
786,0.92659,1.5202,-1,1
787,0.92809,1.5168,-1,1
788,0.92959,1.5138,-1,1
789,0.93108,1.5107,-1,1
790,0.93258,1.5077,-1,1
791,0.93556,1.504,-1,1
792,0.93704,1.5002,-1,1
793,0.93851,1.4959,-1,1
794,0.93999,1.4926,-1,1
795,0.94147,1.4894,-1,1
796,0.94294,1.4862,-1,1
797,0.94441,1.4827,-1,1
798,0.94587,1.4788,-1,1
799,0.94732,1.4748,-1,1
800,0.94877,1.4707,-1,1
801,0.95023,1.4675,-1,1
802,0.95169,1.4645,-1,1
803,0.95313,1.4617,-1,1
804,0.95457,1.458,-1,1
805,0.956,1.4537,-1,1
806,0.95744,1.4499,-1,1
807,0.95887,1.4466,-1,1
808,0.96031,1.4438,-1,1
809,0.96173,1.4409,-1,1
810,0.96315,1.4374,-1,1
811,0.96456,1.4332,-1,1
812,0.96598,1.4291,-1,1
813,0.96739,1.4258,-1,1
814,0.9688,1.423,-1,1
815,0.97021,1.4202,-1,1
816,0.97161,1.4169,-1,1
817,0.97301,1.4132,-1,1
818,0.9744,1.4093,-1,1
819,0.97579,1.4062,-1,1
820,0.97718,1.403,-1,1
821,0.97857,1.4002,-1,1
822,0.97995,1.3972,-1,1
823,0.98133,1.3943,-1,1
824,0.98271,1.3911,-1,1
825,0.98408,1.3879,-1,1
826,0.98545,1.3843,-1,1
827,0.98681,1.3809,-1,1
828,0.98818,1.3784,-1,1
829,0.98955,1.376,-1,1
830,0.99092,1.3735,-1,1
831,0.99227,1.3704,-1,1
832,0.99361,1.3665,-1,1
833,0.99496,1.3625,-1,1
834,0.99631,1.3598,-1,1
835,0.99766,1.3579,-1,1
836,0.99901,1.3563,-1,1
837,1.00035,1.3536,-1,1
838,1.00168,1.3496,-1,1
