cnt,pos,speed,Dir,Force,
1,0,1.5533,-1,1
2,0.00152969,1.5485,-1,1
3,0.00304985,1.5433,-1,1
4,0.00457001,1.5381,-1,1
5,0.00607967,1.5327,-1,1
6,0.00758982,1.5279,-1,1
7,0.00908995,1.523,-1,1
8,0.0105896,1.5177,-1,1
9,0.0120797,1.5125,-1,1
10,0.0135698,1.5077,-1,1
11,0.0150499,1.503,-1,1
12,0.01653,1.4981,-1,1
13,0.0179996,1.4933,-1,1
14,0.0209198,1.488,-1,1
15,0.0223799,1.483,-1,1
16,0.0238299,1.4776,-1,1
17,0.02528,1.4721,-1,1
18,0.0267196,1.4664,-1,1
19,0.0281496,1.4607,-1,1
20,0.0295796,1.4547,-1,1
21,0.0310097,1.449,-1,1
22,0.0324297,1.4433,-1,1
23,0.0338397,1.4379,-1,1
24,0.0352497,1.4325,-1,1
25,0.0366497,1.4269,-1,1
26,0.0380497,1.4217,-1,1
27,0.0394497,1.4169,-1,1
28,0.0408397,1.4121,-1,1
29,0.0422297,1.4071,-1,1
30,0.0435996,1.4017,-1,1
31,0.0449796,1.3962,-1,1
32,0.04772,1.3913,-1,1
33,0.0490799,1.3861,-1,1
34,0.0504298,1.3808,-1,1
35,0.0517797,1.3751,-1,1
36,0.0531197,1.3692,-1,1
37,0.0544596,1.3635,-1,1
38,0.0558,1.3584,-1,1
39,0.0571299,1.3534,-1,1
40,0.0584598,1.3482,-1,1
41,0.0597696,1.3425,-1,1
42,0.06108,1.3363,-1,1
43,0.0623899,1.3308,-1,1
44,0.0636997,1.3265,-1,1
45,0.0649996,1.3226,-1,1
46,0.0662999,1.3178,-1,1
47,0.0675797,1.3119,-1,1
48,0.0688596,1.3057,-1,1
49,0.0701299,1.3001,-1,1
50,0.0714097,1.2958,-1,1
51,0.07269,1.2919,-1,1
52,0.0739498,1.2873,-1,1
53,0.0752096,1.2817,-1,1
54,0.0764499,1.2752,-1,1
55,0.0776997,1.2695,-1,1
56,0.0789499,1.2651,-1,1
57,0.0801897,1.2607,-1,1
58,0.08143,1.2555,-1,1
59,0.0838699,1.2493,-1,1
60,0.0850897,1.2426,-1,1
61,0.0862999,1.2368,-1,1
62,0.0875196,1.2323,-1,1
63,0.0887299,1.2282,-1,1
64,0.0899396,1.2237,-1,1
65,0.0911198,1.2178,-1,1
66,0.0922999,1.2111,-1,1
67,0.0934896,1.2054,-1,1
68,0.0946698,1.2013,-1,1
69,0.09586,1.1983,-1,1
70,0.0970297,1.1944,-1,1
71,0.0981898,1.1888,-1,1
72,0.09934,1.182,-1,1
73,0.10165,1.1761,-1,1
74,0.1028,1.1717,-1,1
75,0.10395,1.1676,-1,1
76,0.10509,1.1631,-1,1
77,0.10621,1.1574,-1,1
78,0.10733,1.1504,-1,1
79,0.10844,1.1436,-1,1
80,0.10956,1.1384,-1,1
81,0.11069,1.1344,-1,1
82,0.1118,1.1306,-1,1
83,0.1129,1.1252,-1,1
84,0.11398,1.1184,-1,1
85,0.11507,1.112,-1,1
86,0.11615,1.1069,-1,1
87,0.11724,1.1031,-1,1
88,0.1194,1.0991,-1,1
89,0.12047,1.0938,-1,1
90,0.12047,1.0868,-1,1
91,0.12152,1.0797,-1,1
92,0.12257,1.0735,-1,1
93,0.12467,1.069,-1,1
94,0.12572,1.0652,-1,1
95,0.12677,1.061,-1,1
96,0.1278,1.0555,-1,1
97,0.12882,1.0492,-1,1
98,0.12984,1.0433,-1,1
99,0.13085,1.0382,-1,1
100,0.13186,1.0344,-1,1
101,0.13288,1.0307,-1,1
102,0.13389,1.0265,-1,1
103,0.13489,1.0212,-1,1
104,0.13588,1.0145,-1,1
105,0.13686,1.0085,-1,1
106,0.13784,1.0029,-1,1
107,0.13979,0.9982,-1,1
108,0.14076,0.9936,-1,1
109,0.14076,0.9892,-1,1
110,0.14174,0.9848,-1,1
111,0.1427,0.9797,-1,1
112,0.14365,0.9745,-1,1
113,0.1446,0.9689,-1,1
114,0.14554,0.9648,-1,1
115,0.14741,0.9603,-1,1
116,0.14835,0.9562,-1,1
117,0.14927,0.9514,-1,1
118,0.1502,0.9467,-1,1
119,0.15112,0.9416,-1,1
120,0.15203,0.9357,-1,1
121,0.15293,0.93,-1,1
122,0.15383,0.9243,-1,1
123,0.15473,0.9192,-1,1
124,0.15562,0.914,-1,1
125,0.15651,0.9094,-1,1
126,0.1574,0.9043,-1,1
127,0.15828,0.8989,-1,1
128,0.16002,0.8929,-1,1
129,0.16088,0.8869,-1,1
130,0.16173,0.8813,-1,1
131,0.16258,0.8761,-1,1
132,0.16343,0.8712,-1,1
133,0.16428,0.8665,-1,1
134,0.16512,0.8619,-1,1
135,0.16596,0.8567,-1,1
136,0.16679,0.8513,-1,1
137,0.16761,0.846,-1,1
138,0.16843,0.841,-1,1
139,0.16924,0.8363,-1,1
140,0.17005,0.8318,-1,1
141,0.17086,0.8273,-1,1
142,0.17166,0.8226,-1,1
143,0.17246,0.8179,-1,1
144,0.17325,0.8127,-1,1
145,0.17404,0.8075,-1,1
146,0.17482,0.8025,-1,1
147,0.17559,0.7979,-1,1
148,0.17636,0.7931,-1,1
149,0.17713,0.7882,-1,1
150,0.17865,0.7829,-1,1
151,0.1794,0.7774,-1,1
152,0.18015,0.7723,-1,1
153,0.1809,0.7669,-1,1
154,0.18164,0.7616,-1,1
155,0.18237,0.7563,-1,1
156,0.1831,0.751,-1,1
157,0.18382,0.7457,-1,1
158,0.18454,0.7411,-1,1
159,0.18526,0.7363,-1,1
160,0.18597,0.7312,-1,1
161,0.18667,0.726,-1,1
162,0.18737,0.7205,-1,1
163,0.18807,0.7156,-1,1
164,0.18876,0.7111,-1,1
165,0.18945,0.7069,-1,1
166,0.19014,0.7026,-1,1
167,0.19081,0.698,-1,1
168,0.19148,0.6929,-1,1
169,0.19215,0.688,-1,1
170,0.19281,0.6838,-1,1
171,0.19413,0.6795,-1,1
172,0.19413,0.6751,-1,1
173,0.19478,0.6701,-1,1
174,0.19543,0.6654,-1,1
175,0.19671,0.66,-1,1
176,0.19671,0.6549,-1,1
177,0.19797,0.6502,-1,1
178,0.19859,0.6457,-1,1
179,0.19921,0.6409,-1,1
180,0.19982,0.6357,-1,1
181,0.20043,0.6307,-1,1
182,0.20103,0.6257,-1,1
183,0.20163,0.621,-1,1
184,0.20223,0.6158,-1,1
185,0.20283,0.6116,-1,1
186,0.20342,0.6069,-1,1
187,0.204,0.6025,-1,1
188,0.20515,0.5973,-1,1
189,0.20572,0.5921,-1,1
190,0.20628,0.5871,-1,1
191,0.20684,0.5823,-1,1
192,0.20739,0.5775,-1,1
193,0.20794,0.5725,-1,1
194,0.20849,0.5674,-1,1
195,0.20903,0.5618,-1,1
196,0.20956,0.5568,-1,1
197,0.21009,0.5515,-1,1
198,0.21062,0.5472,-1,1
199,0.21115,0.5432,-1,1
200,0.21167,0.5392,-1,1
201,0.21219,0.5347,-1,1
202,0.21269,0.5301,-1,1
203,0.2132,0.5253,-1,1
204,0.21369,0.5207,-1,1
205,0.21419,0.5163,-1,1
206,0.21468,0.5119,-1,1
207,0.21517,0.5074,-1,1
208,0.21565,0.5027,-1,1
209,0.21613,0.4977,-1,1
210,0.21707,0.4922,-1,1
211,0.21753,0.4871,-1,1
212,0.21799,0.4823,-1,1
213,0.21845,0.4778,-1,1
214,0.2189,0.4732,-1,1
215,0.21935,0.4684,-1,1
216,0.21979,0.4635,-1,1
217,0.22023,0.4585,-1,1
218,0.22066,0.4536,-1,1
219,0.22109,0.4488,-1,1
220,0.22151,0.4446,-1,1
221,0.22234,0.4396,-1,1
222,0.22275,0.4343,-1,1
223,0.22316,0.4292,-1,1
224,0.22356,0.4239,-1,1
225,0.22395,0.4189,-1,1
226,0.22435,0.4139,-1,1
227,0.22473,0.4089,-1,1
228,0.22512,0.404,-1,1
229,0.2255,0.3991,-1,1
230,0.22587,0.3942,-1,1
231,0.22624,0.3899,-1,1
232,0.22661,0.3858,-1,1
233,0.22697,0.3813,-1,1
234,0.22733,0.3771,-1,1
235,0.22768,0.3726,-1,1
236,0.22803,0.3681,-1,1
237,0.22837,0.3637,-1,1
238,0.22871,0.3592,-1,1
239,0.22904,0.3546,-1,1
240,0.22937,0.3499,-1,1
241,0.2297,0.3447,-1,1
242,0.23033,0.3394,-1,1
243,0.23064,0.3343,-1,1
244,0.23095,0.3292,-1,1
245,0.23125,0.3241,-1,1
246,0.23154,0.3192,-1,1
247,0.23184,0.3141,-1,1
248,0.23212,0.309,-1,1
249,0.23241,0.3041,-1,1
250,0.23269,0.2991,-1,1
251,0.23296,0.2948,-1,1
252,0.23324,0.29,-1,1
253,0.2335,0.2853,-1,1
254,0.23402,0.2804,-1,1
255,0.23428,0.2757,-1,1
256,0.23452,0.2709,-1,1
257,0.23452,0.2662,-1,1
258,0.23477,0.2619,-1,1
259,0.23501,0.2576,-1,1
260,0.23525,0.2534,-1,1
261,0.23548,0.2491,-1,1
262,0.23571,0.2453,-1,1
263,0.23593,0.241,-1,1
264,0.23615,0.2368,-1,1
265,0.23658,0.2326,-1,1
266,0.23679,0.2284,-1,1
267,0.23699,0.2245,-1,1
268,0.23719,0.22,-1,1
269,0.23739,0.2155,-1,1
270,0.23758,0.2111,-1,1
271,0.23777,0.2066,-1,1
272,0.23796,0.2024,-1,1
273,0.23814,0.1988,-1,1
274,0.23832,0.1953,-1,1
275,0.2385,0.1917,-1,1
276,0.23884,0.188,-1,1
277,0.23884,0.1843,-1,1
278,0.23901,0.1812,-1,1
279,0.23935,0.1781,-1,1
280,0.23951,0.1753,-1,1
281,0.23968,0.1729,-1,1
282,0.23984,0.1707,-1,1
283,0.24,0.1688,-1,1
284,0.24017,0.1673,-1,1
285,0.24034,0.1664,-1,1
286,0.2405,0.1661,-1,1
287,0.24068,0.1662,-1,1
288,0.24085,0.1668,-1,1
289,0.24103,0.168,-1,1
290,0.24121,0.1696,-1,1
291,0.2414,0.1719,-1,1
292,0.24158,0.1744,-1,1
293,0.24178,0.1773,-1,1
294,0.24198,0.1809,-1,1
295,0.24218,0.1846,-1,1
296,0.24239,0.1889,-1,1
297,0.24261,0.1936,-1,1
298,0.24284,0.1987,-1,1
299,0.24307,0.2045,-1,1
300,0.24331,0.2105,-1,1
301,0.24356,0.2168,-1,1
302,0.24382,0.2238,-1,1
303,0.24409,0.2311,-1,1
304,0.24437,0.2397,-1,1
305,0.24495,0.2491,-1,1
306,0.24526,0.259,-1,1
307,0.24558,0.2692,-1,1
308,0.24591,0.2797,-1,1
309,0.24625,0.2904,-1,1
310,0.24661,0.302,-1,1
311,0.24698,0.3141,-1,1
312,0.24736,0.3266,-1,1
313,0.24776,0.3396,-1,1
314,0.24817,0.352,-1,1
315,0.2486,0.3661,-1,1
316,0.24949,0.3805,-1,1
317,0.24996,0.3956,-1,1
318,0.25044,0.4108,-1,1
319,0.25094,0.4263,-1,1
320,0.25145,0.4418,-1,1
321,0.25198,0.4574,-1,1
322,0.25252,0.4732,-1,1
323,0.25308,0.4892,-1,1
324,0.25365,0.5054,-1,1
325,0.25424,0.5203,-1,1
326,0.25484,0.5354,-1,1
327,0.25546,0.5504,-1,1
328,0.2561,0.5658,-1,1
329,0.25675,0.5815,-1,1
330,0.25743,0.5976,-1,1
331,0.25812,0.6137,-1,1
332,0.25882,0.63,-1,1
333,0.25954,0.6463,-1,1
334,0.26028,0.6626,-1,1
335,0.26103,0.6805,-1,1
336,0.26258,0.6984,-1,1
337,0.26338,0.7165,-1,1
338,0.2642,0.7348,-1,1
339,0.26504,0.753,-1,1
340,0.26589,0.7709,-1,1
341,0.26675,0.7887,-1,1
342,0.26763,0.8062,-1,1
343,0.26853,0.8236,-1,1
344,0.26944,0.8408,-1,1
345,0.27036,0.8564,-1,1
346,0.2713,0.8717,-1,1
347,0.27225,0.8867,-1,1
348,0.27321,0.9013,-1,1
349,0.27519,0.9172,-1,1
350,0.2762,0.9328,-1,1
351,0.27721,0.9477,-1,1
352,0.27824,0.9623,-1,1
353,0.27928,0.9772,-1,1
354,0.28034,0.9921,-1,1
355,0.28141,1.0066,-1,1
356,0.28249,1.021,-1,1
357,0.28358,1.035,-1,1
358,0.28468,1.0485,-1,1
359,0.28579,1.0599,-1,1
360,0.28691,1.071,-1,1
361,0.28804,1.0827,-1,1
362,0.28919,1.0957,-1,1
363,0.29034,1.107,-1,1
364,0.29151,1.1178,-1,1
365,0.29268,1.129,-1,1
366,0.29505,1.1396,-1,1
367,0.29624,1.1502,-1,1
368,0.29745,1.161,-1,1
369,0.29867,1.1717,-1,1
370,0.2999,1.1824,-1,1
371,0.30113,1.1928,-1,1
372,0.30236,1.2014,-1,1
373,0.3036,1.21,-1,1
374,0.30486,1.2185,-1,1
375,0.30611,1.2265,-1,1
376,0.30738,1.235,-1,1
377,0.30993,1.2427,-1,1
378,0.31121,1.2496,-1,1
379,0.31249,1.2562,-1,1
380,0.31378,1.263,-1,1
381,0.31508,1.2693,-1,1
382,0.31638,1.2755,-1,1
383,0.31769,1.2818,-1,1
384,0.31899,1.2873,-1,1
385,0.3203,1.2919,-1,1
386,0.32162,1.2963,-1,1
387,0.32294,1.3013,-1,1
388,0.32427,1.3064,-1,1
389,0.3256,1.3109,-1,1
390,0.32825,1.3141,-1,1
391,0.32958,1.3175,-1,1
392,0.33092,1.3212,-1,1
393,0.33227,1.3253,-1,1
394,0.33361,1.3292,-1,1
395,0.33495,1.3326,-1,1
396,0.33629,1.3351,-1,1
397,0.33764,1.3371,-1,1
398,0.33899,1.3393,-1,1
399,0.34034,1.342,-1,1
400,0.34169,1.3448,-1,1
401,0.34304,1.3465,-1,1
402,0.34439,1.3474,-1,1
403,0.34575,1.3481,-1,1
404,0.3471,1.3493,-1,1
405,0.34846,1.3511,-1,1
406,0.34982,1.3527,-1,1
407,0.35117,1.3538,-1,1
408,0.35253,1.3542,-1,1
409,0.35388,1.3544,-1,1
410,0.35524,1.3549,-1,1
411,0.3566,1.3555,-1,1
412,0.35796,1.3562,-1,1
413,0.35931,1.3566,-1,1
414,0.36067,1.3567,-1,1
415,0.36202,1.3564,-1,1
416,0.36338,1.3562,-1,1
417,0.36473,1.3562,-1,1
418,0.36609,1.3561,-1,1
419,0.36744,1.3559,-1,1
420,0.3688,1.3553,-1,1
421,0.3715,1.3546,-1,1
422,0.37285,1.3539,-1,1
423,0.3742,1.3532,-1,1
424,0.3742,1.3525,-1,1
425,0.3769,1.3518,-1,1
426,0.37824,1.3508,-1,1
427,0.37958,1.3495,-1,1
428,0.38093,1.3483,-1,1
429,0.38227,1.3473,-1,1
430,0.38361,1.3463,-1,1
431,0.38495,1.3452,-1,1
432,0.38629,1.3437,-1,1
433,0.38762,1.3419,-1,1
434,0.38895,1.3403,-1,1
435,0.39028,1.3388,-1,1
436,0.39162,1.3376,-1,1
437,0.39295,1.3362,-1,1
438,0.39427,1.3344,-1,1
439,0.39559,1.3318,-1,1
440,0.39691,1.3295,-1,1
441,0.39823,1.3277,-1,1
442,0.39955,1.3259,-1,1
443,0.40218,1.324,-1,1
444,0.40349,1.3212,-1,1
445,0.40479,1.318,-1,1
446,0.40609,1.3153,-1,1
447,0.4074,1.3134,-1,1
448,0.40871,1.3118,-1,1
449,0.41001,1.3098,-1,1
450,0.4113,1.3068,-1,1
451,0.41258,1.3034,-1,1
452,0.41387,1.3005,-1,1
453,0.41646,1.2985,-1,1
454,0.41774,1.2965,-1,1
455,0.41902,1.2941,-1,1
456,0.42029,1.2906,-1,1
457,0.42156,1.2867,-1,1
458,0.42283,1.2833,-1,1
459,0.42411,1.2808,-1,1
460,0.42538,1.2791,-1,1
461,0.42665,1.2771,-1,1
462,0.4279,1.274,-1,1
463,0.42916,1.27,-1,1
464,0.43041,1.2665,-1,1
465,0.43166,1.2642,-1,1
466,0.43291,1.262,-1,1
467,0.43416,1.2596,-1,1
468,0.43539,1.2562,-1,1
469,0.43663,1.2524,-1,1
470,0.43786,1.2483,-1,1
471,0.44032,1.2447,-1,1
472,0.44155,1.2415,-1,1
473,0.44277,1.2381,-1,1
474,0.44398,1.2342,-1,1
475,0.44519,1.2301,-1,1
476,0.4464,1.226,-1,1
477,0.44761,1.2223,-1,1
478,0.44882,1.2187,-1,1
479,0.45001,1.2151,-1,1
480,0.4512,1.2108,-1,1
481,0.45239,1.2064,-1,1
482,0.45476,1.2024,-1,1
483,0.45594,1.1987,-1,1
484,0.45711,1.195,-1,1
485,0.45828,1.1905,-1,1
486,0.45944,1.1856,-1,1
487,0.4606,1.1803,-1,1
488,0.46175,1.1757,-1,1
489,0.46291,1.1712,-1,1
490,0.46406,1.1675,-1,1
491,0.46521,1.1634,-1,1
492,0.46634,1.1586,-1,1
493,0.46747,1.1534,-1,1
494,0.4686,1.1486,-1,1
495,0.46973,1.1445,-1,1
496,0.47085,1.1412,-1,1
497,0.47197,1.1379,-1,1
498,0.47309,1.1336,-1,1
499,0.4742,1.1289,-1,1
500,0.4753,1.1236,-1,1
501,0.47639,1.1189,-1,1
502,0.47749,1.1148,-1,1
503,0.47858,1.1108,-1,1
504,0.48076,1.1065,-1,1
505,0.48184,1.1014,-1,1
506,0.48291,1.0958,-1,1
507,0.48397,1.09,-1,1
508,0.48504,1.0851,-1,1
509,0.4861,1.0808,-1,1
510,0.48716,1.077,-1,1
511,0.48821,1.0724,-1,1
512,0.48926,1.0673,-1,1
513,0.49029,1.062,-1,1
514,0.49133,1.0572,-1,1
515,0.49237,1.0532,-1,1
516,0.4934,1.0491,-1,1
517,0.49443,1.0455,-1,1
518,0.49545,1.0413,-1,1
519,0.49647,1.0364,-1,1
520,0.49747,1.031,-1,1
521,0.49848,1.0263,-1,1
522,0.49948,1.0221,-1,1
523,0.50049,1.0188,-1,1
524,0.50149,1.0154,-1,1
525,0.50248,1.0113,-1,1
526,0.50347,1.0073,-1,1
527,0.50446,1.0027,-1,1
528,0.50543,0.998,-1,1
529,0.50641,0.9941,-1,1
530,0.50738,0.9908,-1,1
531,0.50836,0.9877,-1,1
532,0.50933,0.9846,-1,1
533,0.5103,0.9809,-1,1
534,0.51221,0.9762,-1,1
535,0.51316,0.9719,-1,1
536,0.51411,0.968,-1,1
537,0.51507,0.9649,-1,1
538,0.51602,0.9622,-1,1
539,0.51696,0.9594,-1,1
540,0.5179,0.9561,-1,1
541,0.51885,0.9528,-1,1
542,0.51978,0.9493,-1,1
543,0.52072,0.9462,-1,1
544,0.52165,0.9441,-1,1
545,0.52259,0.9421,-1,1
546,0.52352,0.9403,-1,1
547,0.52445,0.9381,-1,1
548,0.52631,0.936,-1,1
549,0.52724,0.9338,-1,1
550,0.52816,0.9322,-1,1
551,0.52908,0.9306,-1,1
552,0.53001,0.9295,-1,1
553,0.53094,0.9285,-1,1
554,0.53186,0.9278,-1,1
555,0.53279,0.9273,-1,1
556,0.53372,0.9268,-1,1
557,0.53464,0.9264,-1,1
558,0.53557,0.9257,-1,1
559,0.53649,0.9254,-1,1
560,0.53741,0.9254,-1,1
561,0.53834,0.9255,-1,1
562,0.53927,0.9263,-1,1
563,0.5402,0.9268,-1,1
564,0.54113,0.9271,-1,1
565,0.54206,0.9274,-1,1
566,0.543,0.928,-1,1
567,0.54393,0.9287,-1,1
568,0.54486,0.93,-1,1
569,0.5458,0.9318,-1,1
570,0.54768,0.9336,-1,1
571,0.54768,0.9357,-1,1
572,0.54958,0.9371,-1,1
573,0.55052,0.9386,-1,1
574,0.55052,0.9405,-1,1
575,0.55242,0.9427,-1,1
576,0.55338,0.9452,-1,1
577,0.55434,0.9478,-1,1
578,0.55531,0.9507,-1,1
579,0.55627,0.9533,-1,1
580,0.55724,0.956,-1,1
581,0.55821,0.9584,-1,1
582,0.55919,0.9612,-1,1
583,0.56017,0.9644,-1,1
584,0.56116,0.9681,-1,1
585,0.56214,0.9718,-1,1
586,0.56314,0.9755,-1,1
587,0.56414,0.9793,-1,1
588,0.56514,0.9829,-1,1
589,0.56614,0.9868,-1,1
590,0.56715,0.9909,-1,1
591,0.56817,0.9954,-1,1
592,0.56919,0.9999,-1,1
593,0.57022,1.0046,-1,1
594,0.57125,1.0091,-1,1
595,0.57228,1.0139,-1,1
596,0.57333,1.0186,-1,1
597,0.57437,1.0241,-1,1
598,0.57542,1.0301,-1,1
599,0.57648,1.0359,-1,1
600,0.57862,1.042,-1,1
601,0.57969,1.048,-1,1
602,0.58078,1.054,-1,1
603,0.58078,1.0603,-1,1
604,0.58186,1.066,-1,1
605,0.58296,1.0716,-1,1
606,0.58406,1.0773,-1,1
607,0.58516,1.0828,-1,1
608,0.58628,1.0889,-1,1
609,0.5874,1.0949,-1,1
610,0.58965,1.1007,-1,1
611,0.59079,1.1066,-1,1
612,0.59193,1.1127,-1,1
613,0.59308,1.1192,-1,1
614,0.59425,1.1265,-1,1
615,0.59541,1.1341,-1,1
616,0.59658,1.1412,-1,1
617,0.59776,1.1477,-1,1
618,0.59893,1.1533,-1,1
619,0.60012,1.1596,-1,1
620,0.60132,1.1675,-1,1
621,0.60374,1.1752,-1,1
622,0.60495,1.1822,-1,1
623,0.60617,1.1884,-1,1
624,0.60739,1.1944,-1,1
625,0.60863,1.2011,-1,1
626,0.60987,1.2087,-1,1
627,0.61113,1.217,-1,1
628,0.61238,1.2247,-1,1
629,0.61363,1.2314,-1,1
630,0.61489,1.2364,-1,1
631,0.61616,1.2423,-1,1
632,0.61745,1.2494,-1,1
633,0.61874,1.2571,-1,1
634,0.62003,1.2643,-1,1
635,0.62132,1.27,-1,1
636,0.62262,1.2747,-1,1
637,0.62392,1.2795,-1,1
638,0.62524,1.2859,-1,1
639,0.62657,1.2933,-1,1
640,0.62789,1.3003,-1,1
641,0.62922,1.3059,-1,1
642,0.63055,1.3102,-1,1
643,0.63188,1.3145,-1,1
644,0.63323,1.32,-1,1
645,0.63459,1.3267,-1,1
646,0.63595,1.3335,-1,1
647,0.63731,1.3389,-1,1
648,0.63866,1.3426,-1,1
649,0.6414,1.3474,-1,1
650,0.64279,1.3533,-1,1
651,0.64418,1.3596,-1,1
652,0.64556,1.3654,-1,1
653,0.64694,1.3699,-1,1
654,0.64833,1.3737,-1,1
655,0.64973,1.3776,-1,1
656,0.65114,1.3824,-1,1
657,0.65255,1.3878,-1,1
658,0.65395,1.3926,-1,1
659,0.65535,1.3951,-1,1
660,0.65676,1.3972,-1,1
661,0.65818,1.4,-1,1
662,0.6596,1.404,-1,1
663,0.66103,1.4077,-1,1
664,0.66245,1.4109,-1,1
665,0.66529,1.4133,-1,1
666,0.66529,1.4158,-1,1
667,0.66672,1.4181,-1,1
668,0.66816,1.4213,-1,1
669,0.66959,1.4239,-1,1
670,0.67245,1.426,-1,1
671,0.67388,1.4279,-1,1
672,0.67532,1.4296,-1,1
673,0.67676,1.4321,-1,1
674,0.6782,1.4339,-1,1
675,0.67963,1.4347,-1,1
676,0.68107,1.4349,-1,1
677,0.68251,1.4359,-1,1
678,0.68396,1.4371,-1,1
679,0.6854,1.4389,-1,1
680,0.68684,1.4394,-1,1
681,0.68827,1.439,-1,1
682,0.68971,1.439,-1,1
683,0.69116,1.4397,-1,1
684,0.69261,1.441,-1,1
685,0.69405,1.4423,-1,1
686,0.69549,1.4424,-1,1
687,0.69693,1.4415,-1,1
688,0.69837,1.4408,-1,1
689,0.69981,1.4412,-1,1
690,0.70126,1.4425,-1,1
691,0.70271,1.4428,-1,1
692,0.70558,1.4421,-1,1
693,0.70702,1.441,-1,1
694,0.70846,1.4407,-1,1
695,0.70991,1.4411,-1,1
696,0.71135,1.4417,-1,1
697,0.71279,1.4418,-1,1
698,0.71422,1.4411,-1,1
699,0.71566,1.4398,-1,1
700,0.7171,1.4392,-1,1
701,0.71855,1.4402,-1,1
702,0.71999,1.4409,-1,1
703,0.72142,1.4402,-1,1
704,0.72429,1.439,-1,1
705,0.72572,1.4381,-1,1
706,0.72717,1.4379,-1,1
707,0.72717,1.4381,-1,1
708,0.7286,1.4386,-1,1
709,0.73004,1.4383,-1,1
710,0.73147,1.4371,-1,1
711,0.7329,1.4358,-1,1
712,0.73434,1.4354,-1,1
713,0.73577,1.4357,-1,1
714,0.73864,1.4355,-1,1
715,0.74007,1.4346,-1,1
716,0.7415,1.4338,-1,1
717,0.74294,1.4334,-1,1
718,0.74437,1.433,-1,1
719,0.7458,1.4329,-1,1
720,0.74723,1.4329,-1,1
721,0.74867,1.4328,-1,1
722,0.7501,1.4326,-1,1
723,0.75153,1.4327,-1,1
724,0.75297,1.4328,-1,1
725,0.7544,1.4332,-1,1
726,0.75727,1.4336,-1,1
727,0.75871,1.4338,-1,1
728,0.76015,1.434,-1,1
729,0.76158,1.4345,-1,1
730,0.76302,1.4353,-1,1
731,0.76446,1.4362,-1,1
732,0.7659,1.4369,-1,1
733,0.76734,1.4375,-1,1
734,0.76879,1.4383,-1,1
735,0.77023,1.4391,-1,1
736,0.77167,1.44,-1,1
737,0.77312,1.4412,-1,1
738,0.77457,1.4424,-1,1
739,0.77602,1.4434,-1,1
740,0.77746,1.4442,-1,1
741,0.77891,1.4453,-1,1
742,0.78037,1.4466,-1,1
743,0.78182,1.448,-1,1
744,0.78328,1.4494,-1,1
745,0.78473,1.4508,-1,1
746,0.78619,1.4523,-1,1
747,0.78765,1.454,-1,1
748,0.78912,1.4558,-1,1
749,0.79205,1.4575,-1,1
750,0.79205,1.4594,-1,1
751,0.79498,1.461,-1,1
752,0.79645,1.4628,-1,1
753,0.79793,1.4649,-1,1
754,0.7994,1.467,-1,1
755,0.80088,1.4689,-1,1
756,0.80236,1.4705,-1,1
757,0.80384,1.472,-1,1
758,0.80532,1.4739,-1,1
759,0.80681,1.4761,-1,1
760,0.8083,1.4784,-1,1
761,0.80978,1.4801,-1,1
762,0.81127,1.4818,-1,1
763,0.81276,1.4834,-1,1
764,0.81426,1.4857,-1,1
765,0.81726,1.488,-1,1
766,0.81876,1.4902,-1,1
767,0.82026,1.4924,-1,1
768,0.82177,1.4946,-1,1
769,0.82327,1.4968,-1,1
770,0.82478,1.499,-1,1
771,0.8263,1.5016,-1,1
772,0.82781,1.5038,-1,1
773,0.82932,1.5059,-1,1
774,0.83084,1.5077,-1,1
775,0.83236,1.5098,-1,1
776,0.83388,1.5119,-1,1
777,0.8354,1.5138,-1,1
778,0.83692,1.5153,-1,1
779,0.83844,1.5167,-1,1
780,0.83997,1.5181,-1,1
781,0.84149,1.5197,-1,1
782,0.84302,1.5216,-1,1
783,0.84455,1.5231,-1,1
784,0.84608,1.5244,-1,1
785,0.84761,1.5258,-1,1
786,0.85068,1.5272,-1,1
787,0.85221,1.5286,-1,1
788,0.85375,1.5298,-1,1
789,0.85528,1.5308,-1,1
790,0.85681,1.5319,-1,1
791,0.85835,1.5329,-1,1
792,0.85989,1.5337,-1,1
793,0.86142,1.5345,-1,1
794,0.86296,1.5353,-1,1
795,0.8645,1.5356,-1,1
796,0.86604,1.5359,-1,1
797,0.86757,1.5363,-1,1
798,0.87065,1.5367,-1,1
799,0.87219,1.5372,-1,1
800,0.87373,1.5377,-1,1
801,0.87373,1.5377,-1,1
802,0.87527,1.5375,-1,1
803,0.8768,1.5374,-1,1
804,0.87834,1.5372,-1,1
805,0.87987,1.5373,-1,1
806,0.88141,1.5371,-1,1
807,0.88448,1.5366,-1,1
808,0.88601,1.536,-1,1
809,0.88755,1.536,-1,1
810,0.88909,1.5357,-1,1
811,0.89062,1.5352,-1,1
812,0.89215,1.5344,-1,1
813,0.89367,1.5335,-1,1
814,0.89521,1.533,-1,1
815,0.89674,1.5327,-1,1
816,0.89827,1.5325,-1,1
817,0.8998,1.5314,-1,1
818,0.90132,1.5302,-1,1
819,0.90436,1.5293,-1,1
820,0.90589,1.5283,-1,1
821,0.90742,1.5275,-1,1
822,0.90893,1.526,-1,1
823,0.91044,1.5248,-1,1
824,0.91196,1.5232,-1,1
825,0.91348,1.5216,-1,1
826,0.91499,1.5198,-1,1
827,0.91651,1.5188,-1,1
828,0.91801,1.5175,-1,1
829,0.91952,1.5156,-1,1
830,0.92103,1.5136,-1,1
831,0.92254,1.5119,-1,1
832,0.92404,1.5108,-1,1
833,0.92554,1.5096,-1,1
834,0.92704,1.5082,-1,1
835,0.92854,1.5065,-1,1
836,0.93004,1.5049,-1,1
837,0.93153,1.5029,-1,1
838,0.93303,1.5014,-1,1
839,0.93452,1.4994,-1,1
