cnt,pos,speed,Dir,Force,
1,0,1.0125,-1,1
2,0.00109005,1.0256,-1,1
3,0.0021801,1.0389,-1,1
4,0.00330019,1.0523,-1,1
5,0.00442028,1.0657,-1,1
6,0.00555992,1.0785,-1,1
7,0.00671005,1.0913,-1,1
8,0.0078702,1.1043,-1,1
9,0.00904989,1.1176,-1,1
10,0.0102401,1.1308,-1,1
11,0.0114403,1.1438,-1,1
12,0.01266,1.1572,-1,1
13,0.0138803,1.1702,-1,1
14,0.01512,1.1829,-1,1
15,0.0163698,1.195,-1,1
16,0.0176401,1.2074,-1,1
17,0.0189099,1.2202,-1,1
18,0.0202003,1.2333,-1,1
19,0.0215001,1.2457,-1,1
20,0.02281,1.2573,-1,1
21,0.0241299,1.2688,-1,1
22,0.0254602,1.28,-1,1
23,0.0268002,1.2917,-1,1
24,0.0281601,1.3033,-1,1
25,0.02952,1.315,-1,1
26,0.03089,1.3257,-1,1
27,0.03227,1.3359,-1,1
28,0.0336599,1.3471,-1,1
29,0.0350599,1.3586,-1,1
30,0.0364799,1.3701,-1,1
31,0.0379,1.3808,-1,1
32,0.03933,1.3912,-1,1
33,0.04076,1.4011,-1,1
34,0.0436602,1.4113,-1,1
35,0.0451202,1.4214,-1,1
36,0.0465999,1.4317,-1,1
37,0.04807,1.4415,-1,1
38,0.0495501,1.449,-1,1
39,0.0510402,1.4567,-1,1
40,0.0525498,1.4649,-1,1
41,0.05407,1.474,-1,1
42,0.0555801,1.4824,-1,1
43,0.0570998,1.4897,-1,1
44,0.05862,1.4962,-1,1
45,0.0601602,1.5033,-1,1
46,0.0617099,1.5111,-1,1
47,0.0632601,1.519,-1,1
48,0.0648198,1.5266,-1,1
49,0.06637,1.534,-1,1
50,0.0679402,1.5413,-1,1
51,0.06951,1.5475,-1,1
52,0.0711002,1.5543,-1,1
53,0.07269,1.5613,-1,1
54,0.0742702,1.5676,-1,1
55,0.07586,1.5729,-1,1
56,0.0774598,1.5776,-1,1
57,0.0790701,1.5831,-1,1
58,0.0806799,1.5889,-1,1
59,0.0839,1.5939,-1,1
60,0.0855303,1.5983,-1,1
61,0.0855303,1.6031,-1,1
62,0.0871501,1.6072,-1,1
63,0.0887799,1.6116,-1,1
64,0.0904102,1.6163,-1,1
65,0.0920501,1.6211,-1,1
66,0.0936999,1.6258,-1,1
67,0.0969901,1.6294,-1,1
68,0.09864,1.6331,-1,1
69,0.1003,1.6373,-1,1
70,0.10196,1.6414,-1,1
71,0.10363,1.6452,-1,1
72,0.10529,1.6488,-1,1
73,0.10695,1.6523,-1,1
74,0.10862,1.6563,-1,1
75,0.1103,1.6602,-1,1
76,0.11198,1.6636,-1,1
77,0.11366,1.6668,-1,1
78,0.11703,1.6707,-1,1
79,0.11872,1.6741,-1,1
80,0.12041,1.677,-1,1
81,0.1221,1.6796,-1,1
82,0.1238,1.6828,-1,1
83,0.12549,1.686,-1,1
84,0.12719,1.6888,-1,1
85,0.1289,1.6912,-1,1
86,0.1306,1.6936,-1,1
87,0.13401,1.6965,-1,1
88,0.13571,1.6981,-1,1
89,0.13742,1.6994,-1,1
90,0.13913,1.7013,-1,1
91,0.14085,1.7037,-1,1
92,0.14256,1.7058,-1,1
93,0.14427,1.707,-1,1
94,0.14598,1.708,-1,1
95,0.1477,1.7094,-1,1
96,0.14942,1.711,-1,1
97,0.15113,1.7122,-1,1
98,0.15285,1.7133,-1,1
99,0.15629,1.7149,-1,1
100,0.15801,1.7159,-1,1
101,0.15973,1.7165,-1,1
102,0.16145,1.7169,-1,1
103,0.16317,1.7183,-1,1
104,0.1649,1.7197,-1,1
105,0.16662,1.7203,-1,1
106,0.16834,1.7203,-1,1
107,0.17006,1.7206,-1,1
108,0.17178,1.7215,-1,1
109,0.17351,1.7216,-1,1
110,0.17695,1.7216,-1,1
111,0.17867,1.7218,-1,1
112,0.17867,1.7223,-1,1
113,0.1804,1.7221,-1,1
114,0.18212,1.7218,-1,1
115,0.18384,1.7215,-1,1
116,0.18556,1.7217,-1,1
117,0.18728,1.722,-1,1
118,0.18901,1.7216,-1,1
119,0.19245,1.7211,-1,1
120,0.19416,1.7209,-1,1
121,0.19589,1.7212,-1,1
122,0.19761,1.7211,-1,1
123,0.19761,1.721,-1,1
124,0.19933,1.7209,-1,1
125,0.20105,1.7207,-1,1
126,0.20277,1.7207,-1,1
127,0.20449,1.7204,-1,1
128,0.20621,1.7205,-1,1
129,0.20793,1.7207,-1,1
130,0.20965,1.7206,-1,1
131,0.21137,1.7201,-1,1
132,0.21481,1.7196,-1,1
133,0.21653,1.7192,-1,1
134,0.21825,1.7191,-1,1
135,0.21997,1.7195,-1,1
136,0.22169,1.7194,-1,1
137,0.2234,1.7189,-1,1
138,0.22512,1.7187,-1,1
139,0.22684,1.7187,-1,1
140,0.22856,1.7189,-1,1
141,0.23028,1.7186,-1,1
142,0.232,1.7185,-1,1
143,0.23543,1.7189,-1,1
144,0.23543,1.7187,-1,1
145,0.23715,1.718,-1,1
146,0.23887,1.7175,-1,1
147,0.2423,1.7176,-1,1
148,0.2423,1.7177,-1,1
149,0.24574,1.7175,-1,1
150,0.24745,1.7165,-1,1
151,0.24916,1.716,-1,1
152,0.25087,1.7156,-1,1
153,0.25259,1.7151,-1,1
154,0.2543,1.7148,-1,1
155,0.25601,1.7145,-1,1
156,0.25772,1.7141,-1,1
157,0.25943,1.7134,-1,1
158,0.26115,1.7126,-1,1
159,0.26286,1.7118,-1,1
160,0.26456,1.7115,-1,1
161,0.26627,1.7112,-1,1
162,0.26798,1.7108,-1,1
163,0.26969,1.7102,-1,1
164,0.2714,1.7097,-1,1
165,0.2731,1.7092,-1,1
166,0.27481,1.7087,-1,1
167,0.27651,1.7078,-1,1
168,0.27822,1.707,-1,1
169,0.27992,1.7067,-1,1
170,0.28163,1.7067,-1,1
171,0.28503,1.706,-1,1
172,0.28673,1.705,-1,1
173,0.28843,1.7043,-1,1
174,0.29014,1.7036,-1,1
175,0.29184,1.703,-1,1
176,0.29353,1.7022,-1,1
177,0.29523,1.7017,-1,1
178,0.29693,1.7012,-1,1
179,0.29863,1.7006,-1,1
180,0.30033,1.6995,-1,1
181,0.30202,1.6988,-1,1
182,0.30372,1.6983,-1,1
183,0.30541,1.6975,-1,1
184,0.3071,1.6967,-1,1
185,0.3088,1.6957,-1,1
186,0.31049,1.695,-1,1
187,0.31218,1.6944,-1,1
188,0.31387,1.6935,-1,1
189,0.31556,1.6924,-1,1
190,0.31724,1.6916,-1,1
191,0.31893,1.6908,-1,1
192,0.32062,1.6901,-1,1
193,0.3223,1.6893,-1,1
194,0.32399,1.6882,-1,1
195,0.32567,1.6874,-1,1
196,0.32903,1.6865,-1,1
197,0.32903,1.6857,-1,1
198,0.33072,1.6847,-1,1
199,0.3324,1.6838,-1,1
200,0.33407,1.6828,-1,1
201,0.33575,1.6818,-1,1
202,0.33743,1.6808,-1,1
203,0.3391,1.6797,-1,1
204,0.34077,1.6788,-1,1
205,0.34245,1.6779,-1,1
206,0.34579,1.6767,-1,1
207,0.34746,1.6752,-1,1
208,0.34746,1.6741,-1,1
209,0.34913,1.6727,-1,1
210,0.3508,1.6715,-1,1
211,0.35246,1.6703,-1,1
212,0.35412,1.669,-1,1
213,0.35579,1.6679,-1,1
214,0.35745,1.6666,-1,1
215,0.36077,1.665,-1,1
216,0.36243,1.6636,-1,1
217,0.36408,1.6624,-1,1
218,0.36574,1.6612,-1,1
219,0.36574,1.6601,-1,1
220,0.36739,1.659,-1,1
221,0.36904,1.6576,-1,1
222,0.37069,1.6558,-1,1
223,0.37234,1.6542,-1,1
224,0.37399,1.653,-1,1
225,0.37564,1.6522,-1,1
226,0.37728,1.651,-1,1
227,0.37892,1.6491,-1,1
228,0.3822,1.6474,-1,1
229,0.38384,1.646,-1,1
230,0.38384,1.6443,-1,1
231,0.38547,1.643,-1,1
232,0.38711,1.6417,-1,1
233,0.38874,1.64,-1,1
234,0.39037,1.6383,-1,1
235,0.392,1.6364,-1,1
236,0.39363,1.6348,-1,1
237,0.39525,1.6338,-1,1
238,0.39851,1.6323,-1,1
239,0.40013,1.6305,-1,1
240,0.40175,1.6288,-1,1
241,0.40337,1.6269,-1,1
242,0.40499,1.6255,-1,1
243,0.4066,1.624,-1,1
244,0.40822,1.6221,-1,1
245,0.40983,1.6203,-1,1
246,0.41144,1.6183,-1,1
247,0.41304,1.6163,-1,1
248,0.41465,1.6144,-1,1
249,0.41785,1.6121,-1,1
250,0.41945,1.6098,-1,1
251,0.42105,1.6076,-1,1
252,0.42264,1.6052,-1,1
253,0.42423,1.6026,-1,1
254,0.42582,1.6002,-1,1
255,0.42741,1.5975,-1,1
256,0.42899,1.5952,-1,1
257,0.43058,1.5929,-1,1
258,0.43216,1.5905,-1,1
259,0.43373,1.5881,-1,1
260,0.43531,1.5857,-1,1
261,0.43688,1.5834,-1,1
262,0.43845,1.5811,-1,1
263,0.44002,1.5791,-1,1
264,0.44159,1.5767,-1,1
265,0.44315,1.5746,-1,1
266,0.44471,1.5721,-1,1
267,0.44627,1.5695,-1,1
268,0.44783,1.5668,-1,1
269,0.44938,1.5642,-1,1
270,0.45247,1.5614,-1,1
271,0.45402,1.5584,-1,1
272,0.45556,1.5554,-1,1
273,0.4571,1.5522,-1,1
274,0.45863,1.5494,-1,1
275,0.46017,1.5462,-1,1
276,0.4617,1.5435,-1,1
277,0.46322,1.5404,-1,1
278,0.46475,1.5372,-1,1
279,0.46627,1.5343,-1,1
280,0.46931,1.5315,-1,1
281,0.47082,1.5285,-1,1
282,0.47233,1.5252,-1,1
283,0.47384,1.522,-1,1
284,0.47534,1.5185,-1,1
285,0.47684,1.5156,-1,1
286,0.47834,1.5123,-1,1
287,0.47984,1.5091,-1,1
288,0.48133,1.506,-1,1
289,0.48282,1.5029,-1,1
290,0.48431,1.4999,-1,1
291,0.48579,1.4971,-1,1
292,0.48727,1.4941,-1,1
293,0.48875,1.4911,-1,1
294,0.49022,1.4881,-1,1
295,0.49169,1.4851,-1,1
296,0.49316,1.4824,-1,1
297,0.49463,1.4794,-1,1
298,0.49609,1.4762,-1,1
299,0.49755,1.4731,-1,1
300,0.49901,1.4703,-1,1
301,0.50047,1.4676,-1,1
302,0.50192,1.465,-1,1
303,0.50337,1.462,-1,1
304,0.50481,1.459,-1,1
305,0.50625,1.456,-1,1
306,0.5077,1.4533,-1,1
307,0.50914,1.4511,-1,1
308,0.51058,1.4486,-1,1
309,0.512,1.4455,-1,1
310,0.51343,1.4421,-1,1
311,0.51486,1.4394,-1,1
312,0.51629,1.4372,-1,1
313,0.51772,1.4351,-1,1
314,0.51913,1.4326,-1,1
315,0.52055,1.4294,-1,1
316,0.52196,1.426,-1,1
317,0.52337,1.4233,-1,1
318,0.5262,1.4207,-1,1
319,0.5276,1.4179,-1,1
320,0.52899,1.415,-1,1
321,0.53039,1.4115,-1,1
322,0.53179,1.4084,-1,1
323,0.53319,1.4059,-1,1
324,0.53458,1.4034,-1,1
325,0.53597,1.4008,-1,1
326,0.53735,1.3979,-1,1
327,0.53874,1.3947,-1,1
328,0.54012,1.392,-1,1
329,0.5415,1.3896,-1,1
330,0.54288,1.3873,-1,1
331,0.54562,1.3847,-1,1
332,0.54699,1.3816,-1,1
333,0.54835,1.378,-1,1
334,0.54835,1.3749,-1,1
335,0.54971,1.3725,-1,1
336,0.55108,1.3703,-1,1
337,0.55244,1.3682,-1,1
338,0.5538,1.3659,-1,1
339,0.55515,1.3638,-1,1
340,0.5565,1.3607,-1,1
341,0.55784,1.358,-1,1
342,0.56054,1.3558,-1,1
343,0.56188,1.3541,-1,1
344,0.56322,1.3521,-1,1
345,0.56322,1.3494,-1,1
346,0.56456,1.3467,-1,1
347,0.56721,1.3433,-1,1
348,0.56721,1.3407,-1,1
349,0.56988,1.3381,-1,1
350,0.5712,1.3362,-1,1
351,0.57252,1.3334,-1,1
352,0.57383,1.3299,-1,1
353,0.57514,1.3266,-1,1
354,0.57646,1.324,-1,1
355,0.57777,1.3219,-1,1
356,0.57908,1.3192,-1,1
357,0.58038,1.3163,-1,1
358,0.58167,1.3124,-1,1
359,0.58297,1.3092,-1,1
360,0.58556,1.3064,-1,1
361,0.58685,1.3036,-1,1
362,0.58813,1.3003,-1,1
363,0.58941,1.2964,-1,1
364,0.59068,1.2926,-1,1
365,0.59197,1.2895,-1,1
366,0.59325,1.2867,-1,1
367,0.59452,1.284,-1,1
368,0.59578,1.2805,-1,1
369,0.59703,1.2762,-1,1
370,0.59829,1.2723,-1,1
371,0.59955,1.2698,-1,1
372,0.60082,1.2682,-1,1
373,0.60207,1.2663,-1,1
374,0.60332,1.2632,-1,1
375,0.60455,1.2584,-1,1
376,0.60578,1.2538,-1,1
377,0.60702,1.2505,-1,1
378,0.60827,1.2495,-1,1
379,0.60952,1.2484,-1,1
380,0.61075,1.246,-1,1
381,0.61197,1.2418,-1,1
382,0.61318,1.2367,-1,1
383,0.6144,1.2326,-1,1
384,0.61562,1.2304,-1,1
385,0.61685,1.2299,-1,1
386,0.61807,1.2286,-1,1
387,0.61928,1.2256,-1,1
388,0.62048,1.2203,-1,1
389,0.62167,1.2152,-1,1
390,0.62287,1.2119,-1,1
391,0.62407,1.2105,-1,1
392,0.62528,1.2098,-1,1
393,0.62648,1.2079,-1,1
394,0.62766,1.204,-1,1
395,0.62884,1.1986,-1,1
396,0.63001,1.1942,-1,1
397,0.6312,1.1915,-1,1
398,0.63238,1.1906,-1,1
399,0.63356,1.1893,-1,1
400,0.63473,1.1861,-1,1
401,0.63589,1.1814,-1,1
402,0.63705,1.1768,-1,1
403,0.63821,1.1734,-1,1
404,0.63937,1.1714,-1,1
405,0.64054,1.17,-1,1
406,0.64169,1.1677,-1,1
407,0.64283,1.1638,-1,1
408,0.64397,1.1591,-1,1
409,0.64511,1.1552,-1,1
410,0.64626,1.1527,-1,1
411,0.6474,1.1508,-1,1
412,0.64853,1.1483,-1,1
413,0.64966,1.1449,-1,1
414,0.65078,1.1409,-1,1
415,0.65191,1.137,-1,1
416,0.65303,1.1337,-1,1
417,0.65415,1.1312,-1,1
418,0.65526,1.1285,-1,1
419,0.65748,1.1253,-1,1
420,0.65859,1.1215,-1,1
421,0.65969,1.1176,-1,1
422,0.65969,1.1141,-1,1
423,0.66079,1.1109,-1,1
424,0.66298,1.1077,-1,1
425,0.66407,1.1045,-1,1
426,0.66516,1.1014,-1,1
427,0.66624,1.098,-1,1
428,0.66732,1.0948,-1,1
429,0.6684,1.0913,-1,1
430,0.66947,1.0877,-1,1
431,0.67054,1.0844,-1,1
432,0.67161,1.0813,-1,1
433,0.67267,1.0783,-1,1
434,0.67374,1.0755,-1,1
435,0.6748,1.0723,-1,1
436,0.67585,1.0682,-1,1
437,0.6769,1.0645,-1,1
438,0.67899,1.0609,-1,1
439,0.68003,1.0577,-1,1
440,0.68107,1.0546,-1,1
441,0.68211,1.0512,-1,1
442,0.68314,1.0476,-1,1
443,0.68417,1.0437,-1,1
444,0.68519,1.0392,-1,1
445,0.6862,1.0351,-1,1
446,0.68722,1.0319,-1,1
447,0.68823,1.0284,-1,1
448,0.68924,1.0244,-1,1
449,0.69025,1.0202,-1,1
450,0.69224,1.016,-1,1
451,0.69323,1.0116,-1,1
452,0.69422,1.0073,-1,1
453,0.69521,1.0031,-1,1
454,0.69619,0.9992,-1,1
455,0.69716,0.9952,-1,1
456,0.69814,0.9908,-1,1
457,0.6991,0.9864,-1,1
458,0.70007,0.9822,-1,1
459,0.70103,0.9783,-1,1
460,0.70198,0.9742,-1,1
461,0.70294,0.9704,-1,1
462,0.70388,0.9664,-1,1
463,0.70483,0.9623,-1,1
464,0.70577,0.9582,-1,1
465,0.7067,0.954,-1,1
466,0.70764,0.9501,-1,1
467,0.70856,0.9457,-1,1
468,0.70948,0.9415,-1,1
469,0.7104,0.9374,-1,1
470,0.71131,0.9334,-1,1
471,0.71223,0.9291,-1,1
472,0.71313,0.9249,-1,1
473,0.71403,0.9206,-1,1
474,0.71493,0.9161,-1,1
475,0.71582,0.9117,-1,1
476,0.71671,0.9073,-1,1
477,0.71759,0.9032,-1,1
478,0.71847,0.8991,-1,1
479,0.71935,0.8948,-1,1
480,0.72022,0.8904,-1,1
481,0.72109,0.8862,-1,1
482,0.72195,0.8818,-1,1
483,0.72281,0.8774,-1,1
484,0.72366,0.8732,-1,1
485,0.72451,0.869,-1,1
486,0.72536,0.8648,-1,1
487,0.7262,0.8606,-1,1
488,0.72704,0.8564,-1,1
489,0.72787,0.8517,-1,1
490,0.72952,0.847,-1,1
491,0.73034,0.8421,-1,1
492,0.73115,0.8372,-1,1
493,0.73197,0.8326,-1,1
494,0.73277,0.8278,-1,1
495,0.73357,0.8232,-1,1
496,0.73437,0.8184,-1,1
497,0.73517,0.8136,-1,1
498,0.73596,0.8088,-1,1
499,0.73674,0.8043,-1,1
500,0.73752,0.8001,-1,1
501,0.7383,0.7957,-1,1
502,0.73984,0.7909,-1,1
503,0.7406,0.7861,-1,1
504,0.74136,0.7815,-1,1
505,0.74211,0.7765,-1,1
506,0.74286,0.7716,-1,1
507,0.74361,0.767,-1,1
508,0.74435,0.7622,-1,1
509,0.74509,0.7574,-1,1
510,0.74582,0.7525,-1,1
511,0.74654,0.7473,-1,1
512,0.74726,0.7428,-1,1
513,0.74798,0.7385,-1,1
514,0.7487,0.7341,-1,1
515,0.74941,0.7301,-1,1
516,0.75012,0.7257,-1,1
517,0.75082,0.721,-1,1
518,0.75151,0.7163,-1,1
519,0.75221,0.7119,-1,1
520,0.7529,0.7077,-1,1
521,0.75358,0.7041,-1,1
522,0.75426,0.7001,-1,1
523,0.75494,0.6956,-1,1
524,0.75561,0.6909,-1,1
525,0.75627,0.6863,-1,1
526,0.75694,0.6819,-1,1
527,0.7576,0.6779,-1,1
528,0.75825,0.674,-1,1
529,0.75955,0.6694,-1,1
530,0.76019,0.6645,-1,1
531,0.76083,0.6597,-1,1
532,0.76147,0.6553,-1,1
533,0.7621,0.6512,-1,1
534,0.76273,0.647,-1,1
535,0.76335,0.6424,-1,1
536,0.76397,0.6378,-1,1
537,0.76458,0.6331,-1,1
538,0.76519,0.6286,-1,1
539,0.7658,0.6247,-1,1
540,0.76701,0.6207,-1,1
541,0.7676,0.6164,-1,1
542,0.76819,0.6118,-1,1
543,0.76878,0.6072,-1,1
544,0.76937,0.6031,-1,1
545,0.76995,0.5994,-1,1
546,0.77053,0.5958,-1,1
547,0.77111,0.592,-1,1
548,0.77168,0.5881,-1,1
549,0.77225,0.5841,-1,1
550,0.77281,0.5803,-1,1
551,0.77337,0.577,-1,1
552,0.77393,0.5739,-1,1
553,0.77449,0.5708,-1,1
554,0.77504,0.5676,-1,1
555,0.77559,0.5642,-1,1
556,0.77614,0.5611,-1,1
557,0.77669,0.5581,-1,1
558,0.77723,0.5552,-1,1
559,0.77777,0.5525,-1,1
560,0.77831,0.5497,-1,1
561,0.77884,0.5466,-1,1
562,0.77937,0.5436,-1,1
563,0.7799,0.5408,-1,1
564,0.78043,0.5382,-1,1
565,0.78095,0.5358,-1,1
566,0.78148,0.5333,-1,1
567,0.782,0.5308,-1,1
568,0.78252,0.5282,-1,1
569,0.78303,0.5257,-1,1
570,0.78354,0.5235,-1,1
571,0.78406,0.5217,-1,1
572,0.78457,0.5199,-1,1
573,0.78508,0.518,-1,1
574,0.78559,0.5161,-1,1
575,0.78609,0.514,-1,1
576,0.7866,0.5119,-1,1
577,0.7871,0.5099,-1,1
578,0.7876,0.5083,-1,1
579,0.7881,0.5069,-1,1
580,0.7886,0.5056,-1,1
581,0.7891,0.5041,-1,1
582,0.7896,0.5027,-1,1
583,0.79009,0.5014,-1,1
584,0.79059,0.5003,-1,1
585,0.79109,0.4994,-1,1
586,0.79158,0.4986,-1,1
587,0.79208,0.4981,-1,1
588,0.79257,0.4973,-1,1
589,0.79306,0.4966,-1,1
590,0.79356,0.4959,-1,1
591,0.79405,0.4954,-1,1
592,0.79455,0.495,-1,1
593,0.79504,0.4947,-1,1
594,0.79553,0.4944,-1,1
595,0.79603,0.4941,-1,1
596,0.79652,0.4942,-1,1
597,0.79702,0.4942,-1,1
598,0.79752,0.4948,-1,1
599,0.79802,0.4953,-1,1
600,0.79901,0.4959,-1,1
601,0.79952,0.4966,-1,1
602,0.80002,0.4975,-1,1
603,0.80052,0.4985,-1,1
604,0.80103,0.4997,-1,1
605,0.80154,0.5011,-1,1
606,0.80204,0.5024,-1,1
607,0.80256,0.504,-1,1
608,0.80307,0.5054,-1,1
609,0.80359,0.5072,-1,1
610,0.80411,0.5091,-1,1
611,0.80463,0.5113,-1,1
612,0.80568,0.5138,-1,1
613,0.80621,0.5166,-1,1
614,0.80675,0.5195,-1,1
615,0.80729,0.5226,-1,1
616,0.80783,0.526,-1,1
617,0.80838,0.5295,-1,1
618,0.80893,0.5333,-1,1
619,0.80948,0.5371,-1,1
620,0.81004,0.5411,-1,1
621,0.81061,0.5452,-1,1
622,0.81118,0.5492,-1,1
623,0.81175,0.5533,-1,1
624,0.81233,0.5577,-1,1
625,0.81291,0.5628,-1,1
626,0.8141,0.568,-1,1
627,0.8147,0.5734,-1,1
628,0.81531,0.579,-1,1
629,0.81592,0.5848,-1,1
630,0.81654,0.5909,-1,1
631,0.81716,0.5971,-1,1
632,0.8178,0.6039,-1,1
633,0.81844,0.6107,-1,1
634,0.81909,0.6174,-1,1
635,0.81974,0.624,-1,1
636,0.8204,0.6309,-1,1
637,0.82108,0.638,-1,1
638,0.82176,0.6452,-1,1
639,0.82244,0.6526,-1,1
640,0.82314,0.6602,-1,1
641,0.82384,0.6679,-1,1
642,0.82456,0.6757,-1,1
643,0.82528,0.6839,-1,1
644,0.82601,0.6926,-1,1
645,0.82675,0.7012,-1,1
646,0.8275,0.71,-1,1
647,0.82827,0.7199,-1,1
648,0.82904,0.7302,-1,1
649,0.82982,0.7405,-1,1
650,0.83141,0.751,-1,1
651,0.83222,0.7618,-1,1
652,0.83304,0.7727,-1,1
653,0.83388,0.7836,-1,1
654,0.83472,0.7945,-1,1
655,0.83557,0.8055,-1,1
656,0.83643,0.8166,-1,1
657,0.83731,0.8271,-1,1
658,0.83819,0.8375,-1,1
659,0.83909,0.8479,-1,1
660,0.83999,0.8582,-1,1
661,0.84091,0.8686,-1,1
662,0.84184,0.8793,-1,1
663,0.84278,0.89,-1,1
664,0.84373,0.9008,-1,1
665,0.84468,0.9116,-1,1
666,0.84565,0.9222,-1,1
667,0.84664,0.9328,-1,1
668,0.84763,0.9444,-1,1
669,0.84863,0.9552,-1,1
670,0.84964,0.9661,-1,1
671,0.85067,0.9769,-1,1
672,0.8517,0.9877,-1,1
673,0.85275,0.9986,-1,1
674,0.85381,1.0094,-1,1
675,0.85595,1.0207,-1,1
676,0.85704,1.0326,-1,1
677,0.85814,1.0445,-1,1
678,0.85925,1.0552,-1,1
679,0.86036,1.0668,-1,1
680,0.86149,1.0784,-1,1
681,0.86263,1.0899,-1,1
682,0.86378,1.1007,-1,1
683,0.86493,1.1114,-1,1
684,0.8661,1.1223,-1,1
685,0.86728,1.1329,-1,1
686,0.86847,1.1436,-1,1
687,0.86966,1.1539,-1,1
688,0.87208,1.164,-1,1
689,0.8733,1.1743,-1,1
690,0.87453,1.1844,-1,1
691,0.87577,1.1947,-1,1
692,0.87702,1.2051,-1,1
693,0.87827,1.2153,-1,1
694,0.87953,1.2246,-1,1
695,0.8808,1.2336,-1,1
696,0.88208,1.2419,-1,1
697,0.88337,1.2505,-1,1
698,0.88467,1.2594,-1,1
699,0.88597,1.2678,-1,1
700,0.88728,1.2755,-1,1
701,0.88859,1.2825,-1,1
702,0.88991,1.2895,-1,1
703,0.89124,1.2969,-1,1
704,0.89259,1.3051,-1,1
705,0.89393,1.313,-1,1
706,0.89528,1.32,-1,1
707,0.89663,1.3261,-1,1
708,0.89799,1.3316,-1,1
709,0.89935,1.3378,-1,1
710,0.90073,1.345,-1,1
711,0.90211,1.3523,-1,1
712,0.9035,1.3585,-1,1
713,0.90488,1.3635,-1,1
714,0.90626,1.3677,-1,1
715,0.90766,1.3726,-1,1
716,0.90907,1.3787,-1,1
717,0.91048,1.3849,-1,1
718,0.91189,1.3908,-1,1
719,0.9133,1.3949,-1,1
720,0.91471,1.3981,-1,1
721,0.91613,1.4016,-1,1
722,0.91757,1.4068,-1,1
723,0.919,1.4126,-1,1
724,0.92044,1.418,-1,1
725,0.92188,1.4218,-1,1
726,0.92331,1.4242,-1,1
727,0.92475,1.4271,-1,1
728,0.9262,1.4308,-1,1
729,0.92766,1.4356,-1,1
730,0.92911,1.4401,-1,1
731,0.93057,1.4436,-1,1
732,0.93202,1.4457,-1,1
733,0.93348,1.448,-1,1
734,0.93495,1.4509,-1,1
735,0.93642,1.4542,-1,1
736,0.93789,1.4578,-1,1
737,0.93936,1.4609,-1,1
738,0.94083,1.4633,-1,1
739,0.94231,1.4652,-1,1
740,0.94526,1.467,-1,1
741,0.94674,1.4694,-1,1
742,0.94822,1.4725,-1,1
743,0.94971,1.4751,-1,1
744,0.9512,1.4772,-1,1
745,0.95268,1.4787,-1,1
746,0.95416,1.4799,-1,1
747,0.95565,1.4812,-1,1
748,0.95714,1.4831,-1,1
749,0.95864,1.4855,-1,1
750,0.96013,1.4874,-1,1
751,0.96162,1.4885,-1,1
752,0.96311,1.4888,-1,1
753,0.9646,1.4891,-1,1
754,0.9661,1.4904,-1,1
755,0.9676,1.4923,-1,1
756,0.9691,1.4939,-1,1
757,0.97059,1.4946,-1,1
758,0.97209,1.4944,-1,1
759,0.97358,1.4944,-1,1
760,0.97658,1.4952,-1,1
761,0.97808,1.496,-1,1
762,0.97958,1.4969,-1,1
763,0.98108,1.4977,-1,1
764,0.98257,1.4972,-1,1
765,0.98407,1.4966,-1,1
766,0.98557,1.4966,-1,1
767,0.98706,1.497,-1,1
768,0.98856,1.498,-1,1
769,0.99006,1.498,-1,1
770,0.99304,1.4966,-1,1
771,0.99454,1.4964,-1,1
772,0.99604,1.4963,-1,1
773,0.99754,1.4963,-1,1
774,0.99903,1.4963,-1,1
775,1.00052,1.4956,-1,1
776,1.00201,1.4945,-1,1
777,1.0035,1.4938,-1,1
778,1.00499,1.4933,-1,1
779,1.00649,1.493,-1,1
780,1.00798,1.4931,-1,1
781,1.00946,1.4921,-1,1
782,1.01095,1.4909,-1,1
783,1.01243,1.4898,-1,1
784,1.01393,1.4893,-1,1
785,1.01541,1.4889,-1,1
786,1.01689,1.4886,-1,1
787,1.01837,1.4876,-1,1
788,1.01986,1.4865,-1,1
789,1.02134,1.4851,-1,1
790,1.02282,1.4842,-1,1
791,1.02429,1.4831,-1,1
792,1.02724,1.4824,-1,1
793,1.02872,1.4814,-1,1
794,1.03019,1.4795,-1,1
795,1.03166,1.4776,-1,1
796,1.03312,1.4758,-1,1
797,1.03459,1.4746,-1,1
798,1.03606,1.4733,-1,1
799,1.03753,1.472,-1,1
800,1.03899,1.47,-1,1
801,1.04044,1.4678,-1,1
802,1.0419,1.4657,-1,1
803,1.04336,1.464,-1,1
804,1.04482,1.4622,-1,1
805,1.04772,1.4602,-1,1
806,1.04917,1.4581,-1,1
807,1.05062,1.4561,-1,1
808,1.05206,1.4538,-1,1
809,1.05351,1.4516,-1,1
810,1.05495,1.4498,-1,1
811,1.05639,1.4483,-1,1
812,1.05782,1.4461,-1,1
813,1.05926,1.4435,-1,1
814,1.06069,1.4416,-1,1
815,1.06213,1.4404,-1,1
816,1.06356,1.4388,-1,1
817,1.06498,1.4366,-1,1
818,1.06641,1.4342,-1,1
819,1.06783,1.4319,-1,1
820,1.06925,1.4297,-1,1
821,1.07067,1.4278,-1,1
822,1.0735,1.4257,-1,1
823,1.07491,1.4236,-1,1
824,1.07632,1.4212,-1,1
825,1.07772,1.4182,-1,1
826,1.07912,1.4152,-1,1
827,1.08052,1.4126,-1,1
828,1.08192,1.41,-1,1
829,1.08332,1.4074,-1,1
830,1.08471,1.4049,-1,1
831,1.0861,1.4018,-1,1
832,1.08748,1.3985,-1,1
833,1.09025,1.3955,-1,1
834,1.09163,1.3928,-1,1
835,1.09301,1.3902,-1,1
836,1.09438,1.3874,-1,1
837,1.09574,1.3837,-1,1
838,1.09711,1.3804,-1,1
839,1.09848,1.3775,-1,1
840,1.09984,1.3748,-1,1
