cnt,pos,speed,Dir,Force,
1,0,1.0025,-1,1
2,0.00105,1.0111,-1,1
3,0.00211,1.0196,-1,1
4,0.00318003,1.0282,-1,1
5,0.00426006,1.0366,-1,1
6,0.0053401,1.0452,-1,1
7,0.00643015,1.0535,-1,1
8,0.00753021,1.0619,-1,1
9,0.00863028,1.0702,-1,1
10,0.00974989,1.0789,-1,1
11,0.01088,1.0876,-1,1
12,0.0120101,1.0962,-1,1
13,0.0131502,1.1042,-1,1
14,0.0142999,1.1117,-1,1
15,0.01545,1.1196,-1,1
16,0.0166101,1.1275,-1,1
17,0.0177903,1.1356,-1,1
18,0.01897,1.1438,-1,1
19,0.0201602,1.1519,-1,1
20,0.0213499,1.1593,-1,1
21,0.0225401,1.1661,-1,1
22,0.0237403,1.1726,-1,1
23,0.02495,1.1793,-1,1
24,0.0261703,1.1874,-1,1
25,0.02739,1.1949,-1,1
26,0.02985,1.202,-1,1
27,0.02985,1.2084,-1,1
28,0.0310903,1.2143,-1,1
29,0.03233,1.2195,-1,1
30,0.0348401,1.2262,-1,1
31,0.0360999,1.2332,-1,1
32,0.0373602,1.2394,-1,1
33,0.03863,1.2452,-1,1
34,0.0398903,1.2492,-1,1
35,0.0411701,1.255,-1,1
36,0.04246,1.2605,-1,1
37,0.0437503,1.2662,-1,1
38,0.0450401,1.2715,-1,1
39,0.04633,1.2765,-1,1
40,0.0476203,1.2796,-1,1
41,0.0489202,1.2827,-1,1
42,0.05022,1.2874,-1,1
43,0.0515399,1.2924,-1,1
44,0.0528603,1.2972,-1,1
45,0.05548,1.2997,-1,1
46,0.05548,1.3021,-1,1
47,0.0567899,1.304,-1,1
48,0.0581203,1.3069,-1,1
49,0.0594501,1.3113,-1,1
50,0.0607901,1.3161,-1,1
51,0.06212,1.32,-1,1
52,0.0634499,1.3219,-1,1
53,0.0647702,1.3228,-1,1
54,0.06744,1.3256,-1,1
55,0.0688,1.3297,-1,1
56,0.0701499,1.3335,-1,1
57,0.0714903,1.3366,-1,1
58,0.0728202,1.3376,-1,1
59,0.0741501,1.3376,-1,1
60,0.0755,1.3383,-1,1
61,0.0768499,1.3403,-1,1
62,0.0782099,1.3432,-1,1
63,0.0795603,1.3458,-1,1
64,0.0809002,1.3455,-1,1
65,0.0822301,1.3437,-1,1
66,0.08358,1.3441,-1,1
67,0.0849299,1.3455,-1,1
68,0.0862899,1.3479,-1,1
69,0.0876303,1.3486,-1,1
70,0.0889802,1.3483,-1,1
71,0.09165,1.3468,-1,1
72,0.0929999,1.3457,-1,1
73,0.0943499,1.3455,-1,1
74,0.0956903,1.3461,-1,1
75,0.0970302,1.3465,-1,1
76,0.0983701,1.3448,-1,1
77,0.0997,1.3429,-1,1
78,0.10104,1.3411,-1,1
79,0.10238,1.3407,-1,1
80,0.10371,1.34,-1,1
81,0.10504,1.3392,-1,1
82,0.10637,1.3378,-1,1
83,0.10771,1.3361,-1,1
84,0.10903,1.3345,-1,1
85,0.11036,1.333,-1,1
86,0.11168,1.3314,-1,1
87,0.113,1.3297,-1,1
88,0.11432,1.3283,-1,1
89,0.11565,1.3273,-1,1
90,0.11697,1.3259,-1,1
91,0.11828,1.324,-1,1
92,0.11959,1.3215,-1,1
93,0.1209,1.319,-1,1
94,0.12221,1.3171,-1,1
95,0.12352,1.3161,-1,1
96,0.12483,1.3152,-1,1
97,0.12613,1.3134,-1,1
98,0.12742,1.3101,-1,1
99,0.12871,1.3063,-1,1
100,0.13001,1.304,-1,1
101,0.13131,1.3027,-1,1
102,0.13261,1.3017,-1,1
103,0.1339,1.2999,-1,1
104,0.13517,1.2964,-1,1
105,0.13644,1.2923,-1,1
106,0.13772,1.289,-1,1
107,0.13901,1.2871,-1,1
108,0.14029,1.2861,-1,1
109,0.14156,1.2845,-1,1
110,0.14282,1.281,-1,1
111,0.14408,1.2765,-1,1
112,0.14533,1.2726,-1,1
113,0.1466,1.2704,-1,1
114,0.14787,1.2694,-1,1
115,0.14912,1.2677,-1,1
116,0.15037,1.2644,-1,1
117,0.15161,1.2599,-1,1
118,0.15284,1.2555,-1,1
119,0.15409,1.2526,-1,1
120,0.15533,1.2509,-1,1
121,0.15657,1.2494,-1,1
122,0.1578,1.2464,-1,1
123,0.15902,1.2418,-1,1
124,0.16024,1.2368,-1,1
125,0.16268,1.2338,-1,1
126,0.1639,1.2313,-1,1
127,0.16511,1.2285,-1,1
128,0.16631,1.2247,-1,1
129,0.16751,1.2199,-1,1
130,0.16871,1.2151,-1,1
131,0.16991,1.2111,-1,1
132,0.17111,1.2086,-1,1
133,0.1723,1.2061,-1,1
134,0.17349,1.2028,-1,1
135,0.17466,1.1977,-1,1
136,0.17583,1.193,-1,1
137,0.17701,1.1896,-1,1
138,0.17819,1.1875,-1,1
139,0.17936,1.1855,-1,1
140,0.18053,1.1826,-1,1
141,0.18169,1.1785,-1,1
142,0.18284,1.1732,-1,1
143,0.18399,1.1687,-1,1
144,0.18514,1.1659,-1,1
145,0.1863,1.1639,-1,1
146,0.18745,1.1616,-1,1
147,0.18972,1.157,-1,1
148,0.19085,1.1519,-1,1
149,0.19197,1.147,-1,1
150,0.1931,1.1432,-1,1
151,0.19423,1.1403,-1,1
152,0.19536,1.1377,-1,1
153,0.19647,1.1339,-1,1
154,0.19757,1.1288,-1,1
155,0.19867,1.1233,-1,1
156,0.19978,1.1188,-1,1
157,0.20089,1.1167,-1,1
158,0.20199,1.1146,-1,1
159,0.20309,1.1116,-1,1
160,0.20417,1.107,-1,1
161,0.20525,1.1016,-1,1
162,0.20632,1.0967,-1,1
163,0.2074,1.0936,-1,1
164,0.20849,1.0919,-1,1
165,0.20957,1.0903,-1,1
166,0.21065,1.0856,-1,1
167,0.21275,1.0796,-1,1
168,0.2138,1.0739,-1,1
169,0.21486,1.0699,-1,1
170,0.21592,1.0676,-1,1
171,0.21698,1.0658,-1,1
172,0.21803,1.0632,-1,1
173,0.21906,1.0589,-1,1
174,0.22009,1.0532,-1,1
175,0.22112,1.0473,-1,1
176,0.22215,1.0444,-1,1
177,0.22318,1.0429,-1,1
178,0.22422,1.0416,-1,1
179,0.22524,1.0388,-1,1
180,0.22626,1.0345,-1,1
181,0.22727,1.0297,-1,1
182,0.22828,1.0253,-1,1
183,0.22929,1.0223,-1,1
184,0.2303,1.0206,-1,1
185,0.23131,1.0194,-1,1
186,0.23232,1.0173,-1,1
187,0.23332,1.014,-1,1
188,0.23431,1.0095,-1,1
189,0.2353,1.0052,-1,1
190,0.23628,1.0022,-1,1
191,0.23728,1.0005,-1,1
192,0.23827,0.9994,-1,1
193,0.23926,0.9974,-1,1
194,0.24024,0.9944,-1,1
195,0.24122,0.9906,-1,1
196,0.24219,0.9869,-1,1
197,0.24316,0.9839,-1,1
198,0.24413,0.982,-1,1
199,0.2451,0.9807,-1,1
200,0.24607,0.979,-1,1
201,0.24704,0.9764,-1,1
202,0.248,0.9731,-1,1
203,0.24896,0.9699,-1,1
204,0.24991,0.9672,-1,1
205,0.25087,0.9652,-1,1
206,0.25182,0.9637,-1,1
207,0.25277,0.9618,-1,1
208,0.25373,0.9597,-1,1
209,0.25467,0.957,-1,1
210,0.25562,0.9544,-1,1
211,0.25656,0.952,-1,1
212,0.2575,0.95,-1,1
213,0.25844,0.9483,-1,1
214,0.25938,0.9464,-1,1
215,0.26031,0.9445,-1,1
216,0.26125,0.9423,-1,1
217,0.26218,0.9405,-1,1
218,0.26311,0.9387,-1,1
219,0.26404,0.9368,-1,1
220,0.26497,0.935,-1,1
221,0.26589,0.9332,-1,1
222,0.26681,0.9311,-1,1
223,0.26773,0.9293,-1,1
224,0.26865,0.9278,-1,1
225,0.26957,0.9261,-1,1
226,0.27049,0.9247,-1,1
227,0.27141,0.9229,-1,1
228,0.27232,0.9206,-1,1
229,0.27323,0.9189,-1,1
230,0.27414,0.9172,-1,1
231,0.27505,0.9157,-1,1
232,0.27596,0.9147,-1,1
233,0.27686,0.9133,-1,1
234,0.27777,0.9113,-1,1
235,0.27867,0.9095,-1,1
236,0.28047,0.9075,-1,1
237,0.28137,0.9058,-1,1
238,0.28227,0.9045,-1,1
239,0.28316,0.9033,-1,1
240,0.28406,0.9019,-1,1
241,0.28496,0.9004,-1,1
242,0.28585,0.8987,-1,1
243,0.28674,0.8971,-1,1
244,0.28763,0.896,-1,1
245,0.28852,0.895,-1,1
246,0.28941,0.894,-1,1
247,0.2903,0.8927,-1,1
248,0.29118,0.8916,-1,1
249,0.29207,0.8902,-1,1
250,0.29295,0.8891,-1,1
251,0.29384,0.888,-1,1
252,0.29472,0.887,-1,1
253,0.2956,0.8857,-1,1
254,0.29648,0.8847,-1,1
255,0.29824,0.8836,-1,1
256,0.29912,0.8825,-1,1
257,0.29912,0.8815,-1,1
258,0.29999,0.8805,-1,1
259,0.30087,0.8795,-1,1
260,0.30174,0.8784,-1,1
261,0.30261,0.8773,-1,1
262,0.30349,0.8763,-1,1
263,0.30436,0.8756,-1,1
264,0.30523,0.8746,-1,1
265,0.3061,0.8735,-1,1
266,0.30784,0.8727,-1,1
267,0.3087,0.8718,-1,1
268,0.30957,0.8708,-1,1
269,0.31043,0.8696,-1,1
270,0.31129,0.8685,-1,1
271,0.31216,0.8677,-1,1
272,0.31302,0.867,-1,1
273,0.31389,0.8664,-1,1
274,0.31475,0.8655,-1,1
275,0.31561,0.8646,-1,1
276,0.31647,0.8633,-1,1
277,0.31733,0.8624,-1,1
278,0.31819,0.8616,-1,1
279,0.3199,0.8609,-1,1
280,0.3199,0.86,-1,1
281,0.32075,0.859,-1,1
282,0.32161,0.8579,-1,1
283,0.32247,0.857,-1,1
284,0.32417,0.8561,-1,1
285,0.32502,0.855,-1,1
286,0.32587,0.8541,-1,1
287,0.32672,0.8532,-1,1
288,0.32757,0.8524,-1,1
289,0.32842,0.8518,-1,1
290,0.32927,0.8512,-1,1
291,0.33011,0.8504,-1,1
292,0.33096,0.8498,-1,1
293,0.33181,0.8491,-1,1
294,0.33266,0.8485,-1,1
295,0.3335,0.8479,-1,1
296,0.33434,0.847,-1,1
297,0.33518,0.8461,-1,1
298,0.33603,0.8455,-1,1
299,0.33687,0.845,-1,1
300,0.33771,0.8444,-1,1
301,0.33855,0.8437,-1,1
302,0.33939,0.8427,-1,1
303,0.34023,0.8418,-1,1
304,0.34107,0.8412,-1,1
305,0.34191,0.8407,-1,1
306,0.34274,0.8404,-1,1
307,0.34358,0.8399,-1,1
308,0.34442,0.839,-1,1
309,0.34525,0.8382,-1,1
310,0.34609,0.8378,-1,1
311,0.34693,0.8376,-1,1
312,0.34776,0.8374,-1,1
313,0.3486,0.8368,-1,1
314,0.34943,0.8361,-1,1
315,0.35026,0.8355,-1,1
316,0.3511,0.8351,-1,1
317,0.35193,0.835,-1,1
318,0.35276,0.8349,-1,1
319,0.35443,0.8346,-1,1
320,0.35526,0.8342,-1,1
321,0.3561,0.8336,-1,1
322,0.35693,0.8331,-1,1
323,0.35776,0.8328,-1,1
324,0.35859,0.8326,-1,1
325,0.35942,0.8326,-1,1
326,0.36025,0.8326,-1,1
327,0.36109,0.8324,-1,1
328,0.36192,0.8322,-1,1
329,0.36358,0.8322,-1,1
330,0.36442,0.8322,-1,1
331,0.36525,0.8322,-1,1
332,0.36608,0.832,-1,1
333,0.36691,0.8318,-1,1
334,0.36774,0.8315,-1,1
335,0.36857,0.8312,-1,1
336,0.3694,0.8311,-1,1
337,0.37023,0.8312,-1,1
338,0.37107,0.8314,-1,1
339,0.3719,0.8316,-1,1
340,0.37273,0.8315,-1,1
341,0.37357,0.8317,-1,1
342,0.3744,0.832,-1,1
343,0.37523,0.8323,-1,1
344,0.37607,0.8328,-1,1
345,0.3769,0.8334,-1,1
346,0.37774,0.8339,-1,1
347,0.37858,0.8346,-1,1
348,0.37942,0.8353,-1,1
349,0.38026,0.836,-1,1
350,0.3811,0.8368,-1,1
351,0.38194,0.8374,-1,1
352,0.38278,0.8383,-1,1
353,0.38363,0.8394,-1,1
354,0.38447,0.8408,-1,1
355,0.38532,0.8421,-1,1
356,0.38617,0.8434,-1,1
357,0.38703,0.8449,-1,1
358,0.38788,0.8465,-1,1
359,0.38874,0.8481,-1,1
360,0.3896,0.8498,-1,1
361,0.39046,0.8516,-1,1
362,0.39132,0.8535,-1,1
363,0.39218,0.8556,-1,1
364,0.39305,0.8577,-1,1
365,0.39392,0.86,-1,1
366,0.3948,0.8625,-1,1
367,0.39568,0.8649,-1,1
368,0.39656,0.8673,-1,1
369,0.39744,0.87,-1,1
370,0.39833,0.8729,-1,1
371,0.39922,0.8759,-1,1
372,0.40011,0.8788,-1,1
373,0.401,0.882,-1,1
374,0.40191,0.8855,-1,1
375,0.40281,0.8893,-1,1
376,0.40372,0.8928,-1,1
377,0.40464,0.8963,-1,1
378,0.40556,0.9,-1,1
379,0.40648,0.9037,-1,1
380,0.40741,0.9077,-1,1
381,0.40834,0.9119,-1,1
382,0.40927,0.9164,-1,1
383,0.41021,0.9209,-1,1
384,0.41116,0.9253,-1,1
385,0.41211,0.9295,-1,1
386,0.41306,0.934,-1,1
387,0.41402,0.9385,-1,1
388,0.41499,0.9431,-1,1
389,0.41595,0.9475,-1,1
390,0.41693,0.9522,-1,1
391,0.41791,0.957,-1,1
392,0.41889,0.9621,-1,1
393,0.41988,0.967,-1,1
394,0.42088,0.9718,-1,1
395,0.42188,0.9769,-1,1
396,0.42288,0.9818,-1,1
397,0.42389,0.9869,-1,1
398,0.42491,0.9921,-1,1
399,0.42593,0.9977,-1,1
400,0.42696,1.0033,-1,1
401,0.428,1.0093,-1,1
402,0.42904,1.015,-1,1
403,0.43009,1.0207,-1,1
404,0.43115,1.0267,-1,1
405,0.4322,1.0324,-1,1
406,0.43327,1.0385,-1,1
407,0.43434,1.0446,-1,1
408,0.43542,1.0508,-1,1
409,0.4365,1.0569,-1,1
410,0.43759,1.0628,-1,1
411,0.43868,1.0684,-1,1
412,0.43978,1.074,-1,1
413,0.44089,1.0797,-1,1
414,0.442,1.0851,-1,1
415,0.44311,1.0908,-1,1
416,0.44424,1.0967,-1,1
417,0.44537,1.1028,-1,1
418,0.44651,1.1089,-1,1
419,0.44765,1.1153,-1,1
420,0.44881,1.1219,-1,1
421,0.44997,1.1289,-1,1
422,0.45114,1.1362,-1,1
423,0.45232,1.1436,-1,1
424,0.45351,1.1511,-1,1
425,0.4547,1.1586,-1,1
426,0.4559,1.166,-1,1
427,0.4571,1.1734,-1,1
428,0.45832,1.1809,-1,1
429,0.45954,1.1882,-1,1
430,0.46077,1.1956,-1,1
431,0.462,1.2022,-1,1
432,0.46323,1.2087,-1,1
433,0.46448,1.2156,-1,1
434,0.46573,1.2228,-1,1
435,0.467,1.2298,-1,1
436,0.46826,1.2369,-1,1
437,0.46954,1.2435,-1,1
438,0.47081,1.2497,-1,1
439,0.4721,1.2562,-1,1
440,0.47339,1.2627,-1,1
441,0.47469,1.2699,-1,1
442,0.476,1.2771,-1,1
443,0.47731,1.2835,-1,1
444,0.47863,1.2895,-1,1
445,0.47995,1.2954,-1,1
446,0.48128,1.3015,-1,1
447,0.48262,1.3081,-1,1
448,0.48396,1.315,-1,1
449,0.48531,1.3213,-1,1
450,0.48666,1.3269,-1,1
451,0.48802,1.3324,-1,1
452,0.48938,1.3379,-1,1
453,0.49075,1.3439,-1,1
454,0.49213,1.3499,-1,1
455,0.49351,1.3559,-1,1
456,0.49489,1.3611,-1,1
457,0.49628,1.3662,-1,1
458,0.49768,1.3712,-1,1
459,0.49908,1.3765,-1,1
460,0.50048,1.3819,-1,1
461,0.50189,1.387,-1,1
462,0.5033,1.3918,-1,1
463,0.50472,1.3966,-1,1
464,0.50614,1.4012,-1,1
465,0.50757,1.4057,-1,1
466,0.50899,1.4108,-1,1
467,0.51187,1.4158,-1,1
468,0.51331,1.4207,-1,1
469,0.51475,1.4251,-1,1
470,0.5162,1.4292,-1,1
471,0.51765,1.4332,-1,1
472,0.5191,1.4372,-1,1
473,0.52056,1.4412,-1,1
474,0.52202,1.4453,-1,1
475,0.52349,1.4491,-1,1
476,0.52641,1.4522,-1,1
477,0.52788,1.4552,-1,1
478,0.52936,1.4584,-1,1
479,0.53083,1.4616,-1,1
480,0.53231,1.4647,-1,1
481,0.53378,1.4673,-1,1
482,0.53526,1.4698,-1,1
483,0.53674,1.4722,-1,1
484,0.53823,1.4744,-1,1
485,0.53972,1.4767,-1,1
486,0.5412,1.4786,-1,1
487,0.54268,1.48,-1,1
488,0.54417,1.4812,-1,1
489,0.54566,1.4825,-1,1
490,0.54715,1.4839,-1,1
491,0.54864,1.4853,-1,1
492,0.55012,1.4861,-1,1
493,0.55161,1.4868,-1,1
494,0.5531,1.4874,-1,1
495,0.5546,1.4879,-1,1
496,0.55609,1.4885,-1,1
497,0.55757,1.4885,-1,1
498,0.55906,1.4889,-1,1
499,0.56055,1.4891,-1,1
500,0.56204,1.4889,-1,1
501,0.56353,1.4889,-1,1
502,0.56501,1.4884,-1,1
503,0.5665,1.4879,-1,1
504,0.56948,1.4882,-1,1
505,0.57097,1.488,-1,1
506,0.57245,1.4874,-1,1
507,0.57393,1.4867,-1,1
508,0.57541,1.4858,-1,1
509,0.5769,1.4853,-1,1
510,0.57839,1.4857,-1,1
511,0.57987,1.4851,-1,1
512,0.58135,1.4847,-1,1
513,0.58282,1.4836,-1,1
514,0.5843,1.4821,-1,1
515,0.58579,1.4818,-1,1
516,0.58727,1.4819,-1,1
517,0.58875,1.4817,-1,1
518,0.59022,1.4802,-1,1
519,0.59169,1.4787,-1,1
520,0.59316,1.477,-1,1
521,0.59464,1.4767,-1,1
522,0.59612,1.4769,-1,1
523,0.59759,1.4761,-1,1
524,0.59905,1.4745,-1,1
525,0.60052,1.4728,-1,1
526,0.60199,1.4716,-1,1
527,0.60346,1.4714,-1,1
528,0.60493,1.4711,-1,1
529,0.60639,1.4699,-1,1
530,0.60785,1.4683,-1,1
531,0.60931,1.467,-1,1
532,0.61078,1.4658,-1,1
533,0.61224,1.4655,-1,1
534,0.6137,1.465,-1,1
535,0.61516,1.4638,-1,1
536,0.61661,1.4624,-1,1
537,0.61807,1.4614,-1,1
538,0.61953,1.461,-1,1
539,0.62099,1.4605,-1,1
540,0.62244,1.4596,-1,1
541,0.62389,1.458,-1,1
542,0.62535,1.4569,-1,1
543,0.6268,1.4562,-1,1
544,0.62826,1.4557,-1,1
545,0.6297,1.4549,-1,1
546,0.63115,1.4536,-1,1
547,0.6326,1.4519,-1,1
548,0.63404,1.4505,-1,1
549,0.63549,1.4499,-1,1
550,0.63694,1.4496,-1,1
551,0.63838,1.4485,-1,1
552,0.64126,1.4467,-1,1
553,0.6427,1.4451,-1,1
554,0.64414,1.4439,-1,1
555,0.64558,1.4427,-1,1
556,0.64701,1.4416,-1,1
557,0.64844,1.4402,-1,1
558,0.64987,1.4385,-1,1
559,0.6513,1.4368,-1,1
560,0.65416,1.4352,-1,1
561,0.65559,1.4338,-1,1
562,0.65701,1.4326,-1,1
563,0.65844,1.4309,-1,1
564,0.65986,1.429,-1,1
565,0.66128,1.4278,-1,1
566,0.6627,1.4265,-1,1
567,0.66413,1.4254,-1,1
568,0.66554,1.4243,-1,1
569,0.66696,1.4231,-1,1
570,0.6698,1.4216,-1,1
571,0.67122,1.4209,-1,1
572,0.67263,1.42,-1,1
573,0.67405,1.4194,-1,1
574,0.67547,1.4186,-1,1
575,0.67688,1.4177,-1,1
576,0.6783,1.4171,-1,1
577,0.67971,1.4167,-1,1
578,0.68113,1.4166,-1,1
579,0.68255,1.4163,-1,1
580,0.68538,1.4161,-1,1
581,0.68679,1.4156,-1,1
582,0.6882,1.4156,-1,1
583,0.68962,1.4156,-1,1
584,0.69104,1.4159,-1,1
585,0.69245,1.4158,-1,1
586,0.69387,1.4158,-1,1
587,0.69528,1.4156,-1,1
588,0.6967,1.4156,-1,1
589,0.69812,1.4155,-1,1
590,0.69953,1.416,-1,1
591,0.70095,1.4165,-1,1
592,0.70237,1.4165,-1,1
593,0.70378,1.4164,-1,1
594,0.7052,1.4166,-1,1
595,0.70662,1.4171,-1,1
596,0.70804,1.4174,-1,1
597,0.70946,1.4182,-1,1
598,0.71088,1.4184,-1,1
599,0.7123,1.4189,-1,1
600,0.71373,1.4193,-1,1
601,0.71515,1.4198,-1,1
602,0.71657,1.4207,-1,1
603,0.71799,1.4213,-1,1
604,0.71942,1.422,-1,1
605,0.72085,1.4226,-1,1
606,0.72227,1.4235,-1,1
607,0.7237,1.4241,-1,1
608,0.72513,1.4249,-1,1
609,0.72799,1.4259,-1,1
610,0.72942,1.4268,-1,1
611,0.73085,1.4277,-1,1
612,0.73228,1.4282,-1,1
613,0.73371,1.4292,-1,1
614,0.73515,1.4299,-1,1
615,0.73658,1.4309,-1,1
616,0.73802,1.4321,-1,1
617,0.73946,1.4329,-1,1
618,0.74089,1.4338,-1,1
619,0.74233,1.4344,-1,1
620,0.74377,1.4351,-1,1
621,0.74521,1.4363,-1,1
622,0.74666,1.4376,-1,1
623,0.74954,1.4387,-1,1
624,0.75099,1.4397,-1,1
625,0.75243,1.4407,-1,1
626,0.75388,1.4416,-1,1
627,0.75533,1.4431,-1,1
628,0.75678,1.4444,-1,1
629,0.75823,1.4457,-1,1
630,0.75968,1.4469,-1,1
631,0.76114,1.4479,-1,1
632,0.76259,1.449,-1,1
633,0.76404,1.4501,-1,1
634,0.76696,1.4516,-1,1
635,0.76842,1.453,-1,1
636,0.76988,1.4541,-1,1
637,0.77134,1.4551,-1,1
638,0.7728,1.4562,-1,1
639,0.77426,1.4573,-1,1
640,0.77572,1.4585,-1,1
641,0.77719,1.4599,-1,1
642,0.77866,1.4611,-1,1
643,0.78012,1.4623,-1,1
644,0.78159,1.4631,-1,1
645,0.78306,1.4639,-1,1
646,0.78453,1.4649,-1,1
647,0.786,1.4662,-1,1
648,0.78747,1.4675,-1,1
649,0.78895,1.4685,-1,1
650,0.79042,1.4694,-1,1
651,0.79189,1.4699,-1,1
652,0.79336,1.4706,-1,1
653,0.79484,1.4719,-1,1
654,0.79632,1.4731,-1,1
655,0.7978,1.4739,-1,1
656,0.79927,1.4746,-1,1
657,0.80223,1.4751,-1,1
658,0.80371,1.4759,-1,1
659,0.80519,1.4767,-1,1
660,0.80519,1.4773,-1,1
661,0.80667,1.4778,-1,1
662,0.80815,1.4784,-1,1
663,0.81111,1.4785,-1,1
664,0.81259,1.4791,-1,1
665,0.81407,1.4795,-1,1
666,0.81555,1.4797,-1,1
667,0.81702,1.4794,-1,1
668,0.81998,1.4794,-1,1
669,0.81998,1.4798,-1,1
670,0.82146,1.4803,-1,1
671,0.82294,1.4804,-1,1
672,0.82442,1.4799,-1,1
673,0.82588,1.4787,-1,1
674,0.82735,1.4773,-1,1
675,0.82883,1.477,-1,1
676,0.83031,1.4765,-1,1
677,0.83325,1.4755,-1,1
678,0.83471,1.4735,-1,1
679,0.83617,1.4716,-1,1
680,0.83617,1.4703,-1,1
681,0.83764,1.4694,-1,1
682,0.83911,1.4689,-1,1
683,0.84058,1.4682,-1,1
684,0.84203,1.467,-1,1
685,0.84495,1.4649,-1,1
686,0.84641,1.4634,-1,1
687,0.84786,1.4625,-1,1
688,0.84931,1.4615,-1,1
689,0.85076,1.4598,-1,1
690,0.85221,1.4574,-1,1
691,0.85221,1.4553,-1,1
692,0.85366,1.4533,-1,1
693,0.8551,1.452,-1,1
694,0.85655,1.4504,-1,1
695,0.85798,1.4484,-1,1
696,0.85942,1.4464,-1,1
697,0.86086,1.4444,-1,1
698,0.8623,1.4423,-1,1
699,0.86515,1.4402,-1,1
700,0.86658,1.4379,-1,1
701,0.86658,1.4354,-1,1
702,0.868,1.433,-1,1
703,0.86942,1.4307,-1,1
704,0.87085,1.4288,-1,1
705,0.87226,1.4267,-1,1
706,0.87367,1.4239,-1,1
707,0.87508,1.4208,-1,1
708,0.87789,1.4187,-1,1
709,0.8793,1.4167,-1,1
710,0.8807,1.4142,-1,1
711,0.88209,1.4109,-1,1
712,0.88348,1.4074,-1,1
713,0.88487,1.4039,-1,1
714,0.88626,1.4003,-1,1
715,0.88764,1.3971,-1,1
716,0.88901,1.3938,-1,1
717,0.89039,1.3904,-1,1
718,0.89176,1.3865,-1,1
719,0.89313,1.3829,-1,1
720,0.89449,1.3797,-1,1
721,0.89585,1.3765,-1,1
722,0.89721,1.3729,-1,1
723,0.89856,1.3688,-1,1
724,0.89991,1.3652,-1,1
725,0.90125,1.3617,-1,1
726,0.9026,1.3586,-1,1
727,0.90393,1.3548,-1,1
728,0.90526,1.3505,-1,1
729,0.90659,1.346,-1,1
730,0.90791,1.3421,-1,1
731,0.90924,1.339,-1,1
732,0.91056,1.3357,-1,1
733,0.91188,1.3321,-1,1
734,0.91318,1.3274,-1,1
735,0.91448,1.3225,-1,1
736,0.91578,1.3178,-1,1
737,0.91708,1.3148,-1,1
738,0.91838,1.312,-1,1
739,0.91967,1.3085,-1,1
740,0.92095,1.3037,-1,1
741,0.92223,1.2984,-1,1
742,0.9235,1.2935,-1,1
743,0.92478,1.2899,-1,1
744,0.92605,1.287,-1,1
745,0.92732,1.284,-1,1
746,0.92858,1.2799,-1,1
747,0.92983,1.2744,-1,1
748,0.93107,1.269,-1,1
749,0.93232,1.2647,-1,1
750,0.93357,1.2615,-1,1
751,0.93481,1.2584,-1,1
752,0.93605,1.2547,-1,1
753,0.93727,1.2498,-1,1
754,0.9385,1.2447,-1,1
755,0.93972,1.2398,-1,1
756,0.94094,1.236,-1,1
757,0.94215,1.2326,-1,1
758,0.94336,1.229,-1,1
759,0.94457,1.2248,-1,1
760,0.94577,1.2199,-1,1
761,0.94696,1.2154,-1,1
762,0.94816,1.2117,-1,1
763,0.94935,1.2079,-1,1
764,0.95054,1.2041,-1,1
765,0.95172,1.1999,-1,1
766,0.95289,1.1953,-1,1
767,0.95406,1.1912,-1,1
768,0.95524,1.1878,-1,1
769,0.95641,1.1844,-1,1
770,0.95758,1.1809,-1,1
771,0.95873,1.1764,-1,1
772,0.95988,1.1714,-1,1
773,0.96103,1.1673,-1,1
774,0.96218,1.1641,-1,1
775,0.96334,1.1619,-1,1
776,0.96448,1.1592,-1,1
777,0.96562,1.1552,-1,1
778,0.96674,1.1501,-1,1
779,0.96786,1.1452,-1,1
780,0.96899,1.1423,-1,1
781,0.97126,1.1403,-1,1
782,0.97238,1.1379,-1,1
783,0.97349,1.134,-1,1
784,0.97459,1.1285,-1,1
785,0.97569,1.1226,-1,1
786,0.97679,1.1184,-1,1
787,0.97791,1.1165,-1,1
788,0.97902,1.1154,-1,1
789,0.98012,1.1134,-1,1
790,0.98121,1.1077,-1,1
791,0.98336,1.1017,-1,1
792,0.98445,1.0977,-1,1
793,0.98554,1.0962,-1,1
794,0.98664,1.0958,-1,1
795,0.98772,1.0946,-1,1
796,0.98879,1.091,-1,1
797,0.98985,1.0852,-1,1
798,0.9909,1.0792,-1,1
799,0.99197,1.0755,-1,1
800,0.99305,1.0755,-1,1
801,0.99412,1.0759,-1,1
802,0.99519,1.0744,-1,1
803,0.99625,1.0702,-1,1
804,0.99729,1.0648,-1,1
805,0.99832,1.06,-1,1
806,0.99937,1.0576,-1,1
807,1.00043,1.058,-1,1
808,1.00149,1.0591,-1,1
809,1.00255,1.0584,-1,1
810,1.00359,1.0547,-1,1
811,1.00564,1.0491,-1,1
812,1.00667,1.0451,-1,1
813,1.00771,1.0439,-1,1
814,1.00876,1.0446,-1,1
815,1.00981,1.0457,-1,1
816,1.01084,1.0448,-1,1
817,1.01186,1.0406,-1,1
818,1.01287,1.035,-1,1
819,1.01388,1.0305,-1,1
820,1.0149,1.0286,-1,1
821,1.01594,1.0296,-1,1
822,1.01697,1.0302,-1,1
823,1.018,1.029,-1,1
824,1.01902,1.0248,-1,1
825,1.02002,1.0201,-1,1
826,1.02102,1.0169,-1,1
827,1.02203,1.0154,-1,1
828,1.02304,1.016,-1,1
829,1.02407,1.017,-1,1
830,1.02509,1.0171,-1,1
831,1.0261,1.0153,-1,1
832,1.02711,1.0122,-1,1
833,1.0281,1.0089,-1,1
834,1.0291,1.0086,-1,1
835,1.03111,1.0095,-1,1
836,1.03212,1.0106,-1,1
837,1.03212,1.0114,-1,1
838,1.03314,1.0111,-1,1
839,1.03414,1.0091,-1,1
840,1.03514,1.0067,-1,1
