cnt,pos,speed,Dir,Force,
1,0,1.0046,-1,1
2,0.00102997,1.0093,-1,1
3,0.00206995,1.0136,-1,1
4,0.00309992,1.0181,-1,1
5,0.0041399,1.0229,-1,1
6,0.0051899,1.0274,-1,1
7,0.0062499,1.0321,-1,1
8,0.0072999,1.0372,-1,1
9,0.00835991,1.0425,-1,1
10,0.00942993,1.0471,-1,1
11,0.0105,1.0513,-1,1
12,0.01157,1.0553,-1,1
13,0.01265,1.06,-1,1
14,0.01373,1.065,-1,1
15,0.0148201,1.0697,-1,1
16,0.0159202,1.0741,-1,1
17,0.0170202,1.0781,-1,1
18,0.0181103,1.0825,-1,1
19,0.0192199,1.0868,-1,1
20,0.02033,1.0918,-1,1
21,0.02145,1.0966,-1,1
22,0.0225701,1.1016,-1,1
23,0.0237002,1.1065,-1,1
24,0.0248299,1.1111,-1,1
25,0.02596,1.1153,-1,1
26,0.0270901,1.1193,-1,1
27,0.0282402,1.1238,-1,1
28,0.0293899,1.1287,-1,1
29,0.0317001,1.1337,-1,1
30,0.0328603,1.1382,-1,1
31,0.0328603,1.143,-1,1
32,0.03403,1.1473,-1,1
33,0.0351901,1.1512,-1,1
34,0.0363703,1.1555,-1,1
35,0.03755,1.1604,-1,1
36,0.0387402,1.1659,-1,1
37,0.0399299,1.171,-1,1
38,0.0411301,1.1753,-1,1
39,0.0423203,1.1794,-1,1
40,0.0447302,1.1839,-1,1
41,0.0459499,1.189,-1,1
42,0.0459499,1.195,-1,1
43,0.0471702,1.2008,-1,1
44,0.0483999,1.2063,-1,1
45,0.0496302,1.2112,-1,1
46,0.0508599,1.215,-1,1
47,0.0520902,1.2193,-1,1
48,0.05334,1.225,-1,1
49,0.0545902,1.2309,-1,1
50,0.0571098,1.2366,-1,1
51,0.0583701,1.241,-1,1
52,0.0583701,1.2448,-1,1
53,0.0596399,1.2493,-1,1
54,0.0609102,1.2535,-1,1
55,0.0621901,1.2584,-1,1
56,0.0634799,1.2647,-1,1
57,0.0647702,1.2704,-1,1
58,0.0660601,1.2743,-1,1
59,0.0673599,1.2778,-1,1
60,0.0686502,1.282,-1,1
61,0.07128,1.2878,-1,1
62,0.0725999,1.2938,-1,1
63,0.0725999,1.2989,-1,1
64,0.0739202,1.3037,-1,1
65,0.0752401,1.3076,-1,1
66,0.07656,1.3106,-1,1
67,0.0778899,1.3145,-1,1
68,0.0792298,1.3196,-1,1
69,0.0805802,1.3246,-1,1
70,0.0819302,1.3281,-1,1
71,0.08461,1.3307,-1,1
72,0.0859699,1.3338,-1,1
73,0.0873299,1.3383,-1,1
74,0.0873299,1.3437,-1,1
75,0.0887098,1.3491,-1,1
76,0.0900803,1.3539,-1,1
77,0.0914402,1.357,-1,1
78,0.0928001,1.359,-1,1
79,0.0941801,1.3619,-1,1
80,0.0955601,1.3665,-1,1
81,0.0969501,1.3711,-1,1
82,0.09834,1.3739,-1,1
83,0.1011,1.3753,-1,1
84,0.10249,1.3771,-1,1
85,0.10249,1.3806,-1,1
86,0.1039,1.3844,-1,1
87,0.10531,1.3891,-1,1
88,0.10672,1.3933,-1,1
89,0.10812,1.3957,-1,1
90,0.10951,1.3968,-1,1
91,0.11092,1.3987,-1,1
92,0.11378,1.4034,-1,1
93,0.1152,1.4076,-1,1
94,0.11661,1.4102,-1,1
95,0.11803,1.4111,-1,1
96,0.11946,1.413,-1,1
97,0.12089,1.416,-1,1
98,0.12234,1.4197,-1,1
99,0.12378,1.4239,-1,1
100,0.12521,1.4275,-1,1
101,0.12809,1.4311,-1,1
102,0.12955,1.4335,-1,1
103,0.131,1.437,-1,1
104,0.13246,1.4409,-1,1
105,0.13391,1.4445,-1,1
106,0.13537,1.4476,-1,1
107,0.13684,1.4503,-1,1
108,0.1383,1.453,-1,1
109,0.13977,1.4558,-1,1
110,0.14124,1.4594,-1,1
111,0.14272,1.4625,-1,1
112,0.1442,1.4652,-1,1
113,0.14569,1.4682,-1,1
114,0.14717,1.4711,-1,1
115,0.14865,1.4745,-1,1
116,0.15014,1.4778,-1,1
117,0.15164,1.4809,-1,1
118,0.15315,1.4845,-1,1
119,0.15465,1.488,-1,1
120,0.15615,1.4911,-1,1
121,0.15766,1.4939,-1,1
122,0.15917,1.4972,-1,1
123,0.16069,1.5006,-1,1
124,0.16221,1.5043,-1,1
125,0.16525,1.5077,-1,1
126,0.16678,1.5114,-1,1
127,0.16831,1.5152,-1,1
128,0.16985,1.5184,-1,1
129,0.17139,1.5218,-1,1
130,0.17292,1.5253,-1,1
131,0.17447,1.5295,-1,1
132,0.17602,1.5331,-1,1
133,0.17757,1.5362,-1,1
134,0.17912,1.5394,-1,1
135,0.18223,1.5434,-1,1
136,0.1838,1.5474,-1,1
137,0.18537,1.5504,-1,1
138,0.18693,1.553,-1,1
139,0.1885,1.5559,-1,1
140,0.19007,1.5597,-1,1
141,0.19165,1.5631,-1,1
142,0.19324,1.5665,-1,1
143,0.19481,1.5692,-1,1
144,0.19639,1.5718,-1,1
145,0.19798,1.5744,-1,1
146,0.19957,1.5771,-1,1
147,0.20117,1.58,-1,1
148,0.20276,1.583,-1,1
149,0.20436,1.586,-1,1
150,0.20596,1.5885,-1,1
151,0.20756,1.5909,-1,1
152,0.20917,1.5933,-1,1
153,0.21077,1.596,-1,1
154,0.21238,1.5991,-1,1
155,0.214,1.6021,-1,1
156,0.21562,1.6045,-1,1
157,0.21724,1.6069,-1,1
158,0.21886,1.6094,-1,1
159,0.22048,1.6122,-1,1
160,0.22211,1.6152,-1,1
161,0.22374,1.618,-1,1
162,0.22537,1.6204,-1,1
163,0.22701,1.6232,-1,1
164,0.22864,1.6259,-1,1
165,0.23029,1.6287,-1,1
166,0.23193,1.6315,-1,1
167,0.23358,1.6341,-1,1
168,0.23522,1.6366,-1,1
169,0.23687,1.6391,-1,1
170,0.23853,1.6417,-1,1
171,0.24019,1.6444,-1,1
172,0.24184,1.647,-1,1
173,0.2435,1.6493,-1,1
174,0.24516,1.6515,-1,1
175,0.24682,1.6535,-1,1
176,0.24849,1.6557,-1,1
177,0.25016,1.658,-1,1
178,0.25183,1.6604,-1,1
179,0.2535,1.6625,-1,1
180,0.25517,1.6644,-1,1
181,0.25685,1.6662,-1,1
182,0.25852,1.668,-1,1
183,0.2602,1.6698,-1,1
184,0.26356,1.6722,-1,1
185,0.26524,1.6741,-1,1
186,0.26693,1.6756,-1,1
187,0.26861,1.6772,-1,1
188,0.27029,1.6788,-1,1
189,0.27198,1.6803,-1,1
190,0.27366,1.6814,-1,1
191,0.27535,1.6825,-1,1
192,0.27704,1.6839,-1,1
193,0.27873,1.6855,-1,1
194,0.28042,1.6862,-1,1
195,0.28211,1.6869,-1,1
196,0.28549,1.6877,-1,1
197,0.28718,1.6885,-1,1
198,0.28887,1.689,-1,1
199,0.29056,1.6895,-1,1
200,0.29225,1.6902,-1,1
201,0.29395,1.6907,-1,1
202,0.29564,1.6908,-1,1
203,0.29733,1.6907,-1,1
204,0.29901,1.6905,-1,1
205,0.3007,1.6906,-1,1
206,0.30239,1.6903,-1,1
207,0.30408,1.6899,-1,1
208,0.30577,1.6896,-1,1
209,0.30746,1.6895,-1,1
210,0.30914,1.689,-1,1
211,0.31083,1.6883,-1,1
212,0.31251,1.6877,-1,1
213,0.3142,1.687,-1,1
214,0.31588,1.6867,-1,1
215,0.31756,1.6859,-1,1
216,0.31924,1.6851,-1,1
217,0.32092,1.6843,-1,1
218,0.32261,1.6838,-1,1
219,0.32429,1.683,-1,1
220,0.32597,1.6823,-1,1
221,0.32764,1.6814,-1,1
222,0.32932,1.6806,-1,1
223,0.33099,1.6799,-1,1
224,0.33267,1.6787,-1,1
225,0.33434,1.6775,-1,1
226,0.33601,1.6766,-1,1
227,0.33768,1.6757,-1,1
228,0.33935,1.6746,-1,1
229,0.34102,1.6731,-1,1
230,0.34268,1.6714,-1,1
231,0.34434,1.6698,-1,1
232,0.346,1.6682,-1,1
233,0.34766,1.6664,-1,1
234,0.34931,1.6647,-1,1
235,0.35097,1.663,-1,1
236,0.35262,1.661,-1,1
237,0.35427,1.6587,-1,1
238,0.35591,1.6561,-1,1
239,0.35755,1.6535,-1,1
240,0.35919,1.6511,-1,1
241,0.36083,1.6487,-1,1
242,0.36246,1.6461,-1,1
243,0.36409,1.6432,-1,1
244,0.36571,1.6399,-1,1
245,0.36733,1.6365,-1,1
246,0.36896,1.6335,-1,1
247,0.37058,1.6308,-1,1
248,0.37219,1.6279,-1,1
249,0.37379,1.6243,-1,1
250,0.37539,1.6202,-1,1
251,0.37699,1.6165,-1,1
252,0.37859,1.6132,-1,1
253,0.38019,1.6101,-1,1
254,0.38178,1.6068,-1,1
255,0.38337,1.6032,-1,1
256,0.38495,1.5991,-1,1
257,0.38653,1.5952,-1,1
258,0.3881,1.5914,-1,1
259,0.38968,1.5883,-1,1
260,0.39125,1.5854,-1,1
261,0.39281,1.5819,-1,1
262,0.39437,1.5779,-1,1
263,0.39593,1.574,-1,1
264,0.39749,1.5703,-1,1
265,0.39904,1.567,-1,1
266,0.40059,1.564,-1,1
267,0.40213,1.5605,-1,1
268,0.40367,1.5569,-1,1
269,0.40521,1.5531,-1,1
270,0.40674,1.5494,-1,1
271,0.40827,1.5459,-1,1
272,0.4098,1.5426,-1,1
273,0.41132,1.5391,-1,1
274,0.41284,1.5355,-1,1
275,0.41435,1.5317,-1,1
276,0.41586,1.5277,-1,1
277,0.41737,1.5237,-1,1
278,0.41887,1.5198,-1,1
279,0.42037,1.5161,-1,1
280,0.42187,1.5125,-1,1
281,0.42336,1.5085,-1,1
282,0.42485,1.5049,-1,1
283,0.42634,1.5012,-1,1
284,0.42782,1.4978,-1,1
285,0.4293,1.4943,-1,1
286,0.43077,1.4909,-1,1
287,0.43225,1.4873,-1,1
288,0.43372,1.4842,-1,1
289,0.43518,1.4811,-1,1
290,0.43664,1.4776,-1,1
291,0.4381,1.4745,-1,1
292,0.43956,1.4708,-1,1
293,0.44101,1.4671,-1,1
294,0.44246,1.4637,-1,1
295,0.4439,1.4604,-1,1
296,0.44534,1.4569,-1,1
297,0.44678,1.4536,-1,1
298,0.44822,1.4498,-1,1
299,0.44964,1.446,-1,1
300,0.45107,1.4423,-1,1
301,0.45249,1.4385,-1,1
302,0.45391,1.4348,-1,1
303,0.45532,1.4312,-1,1
304,0.45673,1.4273,-1,1
305,0.45814,1.4236,-1,1
306,0.45955,1.4201,-1,1
307,0.46095,1.4167,-1,1
308,0.46235,1.4137,-1,1
309,0.46376,1.411,-1,1
310,0.46516,1.4086,-1,1
311,0.46656,1.4066,-1,1
312,0.46795,1.4046,-1,1
313,0.46935,1.4028,-1,1
314,0.47074,1.4009,-1,1
315,0.47213,1.3992,-1,1
316,0.47352,1.3972,-1,1
317,0.4749,1.395,-1,1
318,0.47628,1.3924,-1,1
319,0.47765,1.3897,-1,1
320,0.47903,1.387,-1,1
321,0.4804,1.3842,-1,1
322,0.48177,1.3814,-1,1
323,0.48313,1.3783,-1,1
324,0.48449,1.3751,-1,1
325,0.48585,1.3718,-1,1
326,0.48721,1.3692,-1,1
327,0.48857,1.3666,-1,1
328,0.48992,1.3642,-1,1
329,0.49127,1.3614,-1,1
330,0.49261,1.3585,-1,1
331,0.4953,1.3558,-1,1
332,0.49664,1.353,-1,1
333,0.49798,1.3502,-1,1
334,0.49931,1.3473,-1,1
335,0.50064,1.3444,-1,1
336,0.50197,1.3414,-1,1
337,0.5033,1.3389,-1,1
338,0.50462,1.3363,-1,1
339,0.50595,1.3338,-1,1
340,0.50726,1.3308,-1,1
341,0.50857,1.3274,-1,1
342,0.50989,1.3245,-1,1
343,0.5112,1.3223,-1,1
344,0.51251,1.3201,-1,1
345,0.51382,1.317,-1,1
346,0.51641,1.3133,-1,1
347,0.51771,1.3099,-1,1
348,0.51771,1.3072,-1,1
349,0.51901,1.305,-1,1
350,0.52031,1.3033,-1,1
351,0.5216,1.3011,-1,1
352,0.52288,1.2978,-1,1
353,0.52544,1.2943,-1,1
354,0.52672,1.2917,-1,1
355,0.528,1.2899,-1,1
356,0.52928,1.2882,-1,1
357,0.53055,1.2852,-1,1
358,0.53181,1.2817,-1,1
359,0.53308,1.2783,-1,1
360,0.53434,1.2749,-1,1
361,0.53561,1.2724,-1,1
362,0.53686,1.2701,-1,1
363,0.53812,1.2676,-1,1
364,0.53937,1.2645,-1,1
365,0.54187,1.2615,-1,1
366,0.54312,1.2585,-1,1
367,0.54436,1.256,-1,1
368,0.54559,1.2532,-1,1
369,0.54683,1.2502,-1,1
370,0.54807,1.2476,-1,1
371,0.5493,1.2448,-1,1
372,0.55054,1.2425,-1,1
373,0.55176,1.2396,-1,1
374,0.55299,1.2366,-1,1
375,0.5542,1.2334,-1,1
376,0.55543,1.2312,-1,1
377,0.55665,1.2294,-1,1
378,0.55787,1.2278,-1,1
379,0.55909,1.2258,-1,1
380,0.56029,1.2227,-1,1
381,0.5615,1.2197,-1,1
382,0.56271,1.2171,-1,1
383,0.56392,1.2157,-1,1
384,0.56513,1.2146,-1,1
385,0.56633,1.2132,-1,1
386,0.56753,1.2104,-1,1
387,0.56872,1.2072,-1,1
388,0.56992,1.2046,-1,1
389,0.57112,1.203,-1,1
390,0.57232,1.2025,-1,1
391,0.57351,1.2013,-1,1
392,0.5747,1.1992,-1,1
393,0.57588,1.1964,-1,1
394,0.57707,1.1936,-1,1
395,0.57825,1.1919,-1,1
396,0.57945,1.1916,-1,1
397,0.58064,1.1915,-1,1
398,0.58182,1.19,-1,1
399,0.58299,1.1873,-1,1
400,0.58416,1.1844,-1,1
401,0.58534,1.1826,-1,1
402,0.58652,1.182,-1,1
403,0.5877,1.182,-1,1
404,0.59005,1.1806,-1,1
405,0.59121,1.1781,-1,1
406,0.59237,1.1752,-1,1
407,0.59355,1.1732,-1,1
408,0.59472,1.1728,-1,1
409,0.59589,1.1727,-1,1
410,0.59706,1.172,-1,1
411,0.59822,1.17,-1,1
412,0.59937,1.1673,-1,1
413,0.60053,1.1646,-1,1
414,0.60286,1.1646,-1,1
415,0.60402,1.1649,-1,1
416,0.60518,1.1642,-1,1
417,0.60633,1.1619,-1,1
418,0.60748,1.1591,-1,1
419,0.60863,1.1571,-1,1
420,0.60978,1.1562,-1,1
421,0.61094,1.1563,-1,1
422,0.6121,1.1564,-1,1
423,0.61324,1.1554,-1,1
424,0.61439,1.1528,-1,1
425,0.61553,1.1507,-1,1
426,0.61782,1.1497,-1,1
427,0.61896,1.1496,-1,1
428,0.62011,1.1492,-1,1
429,0.62125,1.1477,-1,1
430,0.62238,1.1456,-1,1
431,0.62351,1.1431,-1,1
432,0.62465,1.1408,-1,1
433,0.62578,1.1395,-1,1
434,0.62691,1.1387,-1,1
435,0.62805,1.1376,-1,1
436,0.62918,1.1358,-1,1
437,0.6303,1.1336,-1,1
438,0.63142,1.1315,-1,1
439,0.63254,1.1299,-1,1
440,0.63367,1.1284,-1,1
441,0.63479,1.1272,-1,1
442,0.63591,1.126,-1,1
443,0.63702,1.1243,-1,1
444,0.63814,1.1222,-1,1
445,0.63925,1.1198,-1,1
446,0.64035,1.1176,-1,1
447,0.64146,1.1159,-1,1
448,0.64257,1.1143,-1,1
449,0.64477,1.1124,-1,1
450,0.64477,1.1104,-1,1
451,0.64697,1.1079,-1,1
452,0.64806,1.1052,-1,1
453,0.64915,1.1025,-1,1
454,0.64915,1.1002,-1,1
455,0.65133,1.0982,-1,1
456,0.65242,1.0962,-1,1
457,0.6535,1.0936,-1,1
458,0.65458,1.0908,-1,1
459,0.65565,1.0881,-1,1
460,0.65673,1.0853,-1,1
461,0.65779,1.0824,-1,1
462,0.65886,1.0799,-1,1
463,0.65993,1.0777,-1,1
464,0.66099,1.0752,-1,1
465,0.66206,1.0725,-1,1
466,0.66311,1.0694,-1,1
467,0.66416,1.0661,-1,1
468,0.66521,1.0632,-1,1
469,0.66731,1.0606,-1,1
470,0.66836,1.058,-1,1
471,0.6694,1.0557,-1,1
472,0.6694,1.0529,-1,1
473,0.67044,1.0501,-1,1
474,0.67148,1.0471,-1,1
475,0.67251,1.044,-1,1
476,0.67354,1.0415,-1,1
477,0.67457,1.0393,-1,1
478,0.67662,1.0366,-1,1
479,0.67764,1.0336,-1,1
480,0.67866,1.0308,-1,1
481,0.67967,1.0278,-1,1
482,0.67967,1.0247,-1,1
483,0.68068,1.0216,-1,1
484,0.68169,1.019,-1,1
485,0.68269,1.0165,-1,1
486,0.6837,1.0137,-1,1
487,0.6847,1.0111,-1,1
488,0.68569,1.0082,-1,1
489,0.68768,1.0054,-1,1
490,0.68866,1.0023,-1,1
491,0.68965,0.9994,-1,1
492,0.69063,0.9966,-1,1
493,0.69063,0.9937,-1,1
494,0.69161,0.9904,-1,1
495,0.69259,0.9874,-1,1
496,0.69356,0.9846,-1,1
497,0.69453,0.9814,-1,1
498,0.6955,0.9786,-1,1
499,0.69646,0.9757,-1,1
500,0.69742,0.9727,-1,1
501,0.69838,0.9699,-1,1
502,0.70029,0.967,-1,1
503,0.70124,0.964,-1,1
504,0.70124,0.9609,-1,1
505,0.70218,0.9576,-1,1
506,0.70312,0.9544,-1,1
507,0.70406,0.9514,-1,1
508,0.705,0.9481,-1,1
509,0.70593,0.9452,-1,1
510,0.70686,0.9426,-1,1
511,0.70779,0.9394,-1,1
512,0.70872,0.9362,-1,1
513,0.71055,0.9328,-1,1
514,0.71147,0.9297,-1,1
515,0.71147,0.9266,-1,1
516,0.71238,0.9235,-1,1
517,0.71329,0.9204,-1,1
518,0.71419,0.9176,-1,1
519,0.71509,0.9146,-1,1
520,0.71599,0.9113,-1,1
521,0.71689,0.9084,-1,1
522,0.71778,0.9057,-1,1
523,0.71867,0.9027,-1,1
524,0.72044,0.8995,-1,1
525,0.72132,0.8964,-1,1
526,0.72132,0.8928,-1,1
527,0.7222,0.8896,-1,1
528,0.72307,0.8863,-1,1
529,0.72394,0.883,-1,1
530,0.7248,0.8799,-1,1
531,0.72567,0.8768,-1,1
532,0.72653,0.8736,-1,1
533,0.72739,0.8707,-1,1
534,0.72824,0.8673,-1,1
535,0.72993,0.8639,-1,1
536,0.73078,0.8608,-1,1
537,0.73078,0.8573,-1,1
538,0.73162,0.8542,-1,1
539,0.73246,0.851,-1,1
540,0.73329,0.8475,-1,1
541,0.73412,0.8438,-1,1
542,0.73494,0.8403,-1,1
543,0.73577,0.8365,-1,1
544,0.73658,0.8331,-1,1
545,0.73821,0.8297,-1,1
546,0.73902,0.8262,-1,1
547,0.73983,0.8228,-1,1
548,0.73983,0.8191,-1,1
549,0.74063,0.8157,-1,1
550,0.74143,0.8123,-1,1
551,0.74223,0.8091,-1,1
552,0.74302,0.8056,-1,1
553,0.74381,0.8028,-1,1
554,0.7446,0.8001,-1,1
555,0.74538,0.7972,-1,1
556,0.74616,0.7939,-1,1
557,0.74771,0.7907,-1,1
558,0.74849,0.7877,-1,1
559,0.74926,0.7845,-1,1
560,0.75003,0.7815,-1,1
561,0.75079,0.7782,-1,1
562,0.75155,0.7751,-1,1
563,0.75231,0.7716,-1,1
564,0.75306,0.7686,-1,1
565,0.75382,0.7658,-1,1
566,0.75532,0.7631,-1,1
567,0.75607,0.7601,-1,1
568,0.75681,0.7571,-1,1
569,0.75756,0.7541,-1,1
570,0.7583,0.7515,-1,1
571,0.75904,0.7492,-1,1
572,0.75977,0.7468,-1,1
573,0.76051,0.7445,-1,1
574,0.76124,0.7419,-1,1
575,0.76197,0.7394,-1,1
576,0.7627,0.7376,-1,1
577,0.76343,0.7362,-1,1
578,0.76416,0.7346,-1,1
579,0.76488,0.7329,-1,1
580,0.76561,0.731,-1,1
581,0.76633,0.7292,-1,1
582,0.76705,0.7278,-1,1
583,0.76777,0.7267,-1,1
584,0.76849,0.7256,-1,1
585,0.76921,0.7245,-1,1
586,0.76993,0.7228,-1,1
587,0.77064,0.7213,-1,1
588,0.77136,0.7202,-1,1
589,0.77208,0.7196,-1,1
590,0.7728,0.7193,-1,1
591,0.77352,0.7187,-1,1
592,0.77423,0.718,-1,1
593,0.77494,0.717,-1,1
594,0.77565,0.7162,-1,1
595,0.77637,0.7158,-1,1
596,0.77709,0.716,-1,1
597,0.77781,0.7161,-1,1
598,0.77924,0.7159,-1,1
599,0.77995,0.7156,-1,1
600,0.78067,0.7154,-1,1
601,0.78139,0.7159,-1,1
602,0.78211,0.7165,-1,1
603,0.78283,0.7174,-1,1
604,0.78355,0.7182,-1,1
605,0.78427,0.7185,-1,1
606,0.78499,0.719,-1,1
607,0.78572,0.72,-1,1
608,0.78645,0.7216,-1,1
609,0.78718,0.7231,-1,1
610,0.78791,0.7241,-1,1
611,0.78864,0.7254,-1,1
612,0.78937,0.7268,-1,1
613,0.79011,0.7282,-1,1
614,0.79085,0.7302,-1,1
615,0.79159,0.7325,-1,1
616,0.79233,0.7344,-1,1
617,0.79307,0.7358,-1,1
618,0.79382,0.7373,-1,1
619,0.79457,0.7392,-1,1
620,0.79532,0.7418,-1,1
621,0.79684,0.7442,-1,1
622,0.79759,0.7463,-1,1
623,0.79759,0.7488,-1,1
624,0.79835,0.7508,-1,1
625,0.79912,0.7531,-1,1
626,0.79989,0.7561,-1,1
627,0.80066,0.7595,-1,1
628,0.80144,0.7625,-1,1
629,0.80222,0.7652,-1,1
630,0.80299,0.7681,-1,1
631,0.80378,0.7713,-1,1
632,0.80536,0.7751,-1,1
633,0.80616,0.7788,-1,1
634,0.80616,0.7826,-1,1
635,0.80696,0.786,-1,1
636,0.80776,0.7888,-1,1
637,0.80856,0.7919,-1,1
638,0.80937,0.7954,-1,1
639,0.81019,0.7993,-1,1
640,0.81101,0.8028,-1,1
641,0.81183,0.806,-1,1
642,0.81265,0.8094,-1,1
643,0.81431,0.8132,-1,1
644,0.81515,0.8175,-1,1
645,0.81599,0.8218,-1,1
646,0.81599,0.8264,-1,1
647,0.81684,0.8303,-1,1
648,0.81769,0.834,-1,1
649,0.81854,0.8378,-1,1
650,0.8194,0.8421,-1,1
651,0.82027,0.8466,-1,1
652,0.822,0.8508,-1,1
653,0.82288,0.8548,-1,1
654,0.82376,0.8589,-1,1
655,0.82465,0.8636,-1,1
656,0.82554,0.8683,-1,1
657,0.82643,0.873,-1,1
658,0.82733,0.878,-1,1
659,0.82824,0.883,-1,1
660,0.82915,0.8881,-1,1
661,0.83006,0.8929,-1,1
662,0.83098,0.8979,-1,1
663,0.83283,0.9032,-1,1
664,0.83377,0.9088,-1,1
665,0.83471,0.914,-1,1
666,0.83565,0.9192,-1,1
667,0.8366,0.9247,-1,1
668,0.83755,0.9302,-1,1
669,0.83852,0.9361,-1,1
670,0.83948,0.9416,-1,1
671,0.84045,0.9472,-1,1
672,0.84143,0.9525,-1,1
673,0.84241,0.9576,-1,1
674,0.84339,0.9625,-1,1
675,0.84438,0.9675,-1,1
676,0.84538,0.9726,-1,1
677,0.84638,0.9778,-1,1
678,0.84738,0.9831,-1,1
679,0.8484,0.9883,-1,1
680,0.84942,0.9935,-1,1
681,0.85044,0.9985,-1,1
682,0.85146,1.0034,-1,1
683,0.85249,1.0082,-1,1
684,0.85352,1.013,-1,1
685,0.85457,1.0183,-1,1
686,0.85562,1.0237,-1,1
687,0.85667,1.0289,-1,1
688,0.85772,1.0338,-1,1
689,0.85878,1.0379,-1,1
690,0.85984,1.0422,-1,1
691,0.86091,1.0468,-1,1
692,0.86198,1.052,-1,1
693,0.86306,1.0572,-1,1
694,0.86415,1.0621,-1,1
695,0.86523,1.0664,-1,1
696,0.86632,1.0704,-1,1
697,0.86741,1.0745,-1,1
698,0.86851,1.0786,-1,1
699,0.86961,1.0832,-1,1
700,0.87072,1.0878,-1,1
701,0.87183,1.0925,-1,1
702,0.87295,1.0966,-1,1
703,0.87406,1.1002,-1,1
704,0.87518,1.1035,-1,1
705,0.8763,1.1072,-1,1
706,0.87744,1.1115,-1,1
707,0.87857,1.1157,-1,1
708,0.87971,1.1198,-1,1
709,0.88085,1.1234,-1,1
710,0.88198,1.1264,-1,1
711,0.88312,1.1291,-1,1
712,0.88427,1.1322,-1,1
713,0.88542,1.136,-1,1
714,0.88658,1.1401,-1,1
715,0.88774,1.1436,-1,1
716,0.8889,1.1463,-1,1
717,0.89006,1.1488,-1,1
718,0.89122,1.1513,-1,1
719,0.89239,1.1542,-1,1
720,0.89356,1.1575,-1,1
721,0.89473,1.1609,-1,1
722,0.89591,1.164,-1,1
723,0.89709,1.1663,-1,1
724,0.89826,1.168,-1,1
725,0.89944,1.1698,-1,1
726,0.90062,1.1719,-1,1
727,0.9018,1.1744,-1,1
728,0.90299,1.1769,-1,1
729,0.90418,1.1792,-1,1
730,0.90537,1.1812,-1,1
731,0.90656,1.1826,-1,1
732,0.90775,1.1836,-1,1
733,0.90894,1.185,-1,1
734,0.91013,1.1868,-1,1
735,0.91133,1.1889,-1,1
736,0.91253,1.1909,-1,1
737,0.91373,1.1923,-1,1
738,0.91492,1.1933,-1,1
739,0.91612,1.1937,-1,1
740,0.91731,1.1939,-1,1
741,0.91851,1.1951,-1,1
742,0.91972,1.1969,-1,1
743,0.92092,1.1985,-1,1
744,0.92212,1.1993,-1,1
745,0.92332,1.1992,-1,1
746,0.92452,1.1988,-1,1
747,0.92571,1.1989,-1,1
748,0.92692,1.1998,-1,1
749,0.92813,1.2014,-1,1
750,0.92934,1.2028,-1,1
751,0.93054,1.2027,-1,1
752,0.93173,1.2016,-1,1
753,0.93293,1.2006,-1,1
754,0.93413,1.2007,-1,1
755,0.93534,1.2019,-1,1
756,0.93655,1.2033,-1,1
757,0.93775,1.2037,-1,1
758,0.93895,1.2029,-1,1
759,0.94014,1.2011,-1,1
760,0.94133,1.1994,-1,1
761,0.94253,1.1992,-1,1
762,0.94374,1.2004,-1,1
763,0.94494,1.2013,-1,1
764,0.94614,1.2012,-1,1
765,0.94733,1.1995,-1,1
766,0.94852,1.197,-1,1
767,0.94971,1.1953,-1,1
768,0.9509,1.195,-1,1
769,0.9521,1.196,-1,1
770,0.95331,1.1975,-1,1
771,0.9545,1.1972,-1,1
772,0.95569,1.1949,-1,1
773,0.95686,1.1923,-1,1
774,0.95805,1.1905,-1,1
775,0.95924,1.1906,-1,1
776,0.96044,1.1921,-1,1
777,0.96164,1.1933,-1,1
778,0.96283,1.1926,-1,1
779,0.964,1.1899,-1,1
780,0.96517,1.1865,-1,1
781,0.96635,1.185,-1,1
782,0.96754,1.1857,-1,1
783,0.96874,1.1873,-1,1
784,0.96992,1.1878,-1,1
785,0.9711,1.1862,-1,1
786,0.97227,1.1828,-1,1
787,0.97343,1.1795,-1,1
788,0.97461,1.1782,-1,1
789,0.97579,1.1794,-1,1
790,0.97698,1.1811,-1,1
791,0.97816,1.1809,-1,1
792,0.97933,1.1784,-1,1
793,0.98048,1.1745,-1,1
794,0.98164,1.1716,-1,1
795,0.98281,1.1712,-1,1
796,0.98399,1.1727,-1,1
797,0.98517,1.174,-1,1
798,0.98634,1.173,-1,1
799,0.98749,1.1696,-1,1
800,0.98864,1.1656,-1,1
801,0.98979,1.1634,-1,1
802,0.99096,1.1638,-1,1
803,0.99214,1.1655,-1,1
804,0.9933,1.1662,-1,1
805,0.99446,1.1642,-1,1
806,0.9956,1.1604,-1,1
807,0.99674,1.1568,-1,1
808,0.99789,1.1555,-1,1
809,0.99906,1.1567,-1,1
810,1.00023,1.1587,-1,1
811,1.00138,1.1587,-1,1
812,1.00253,1.155,-1,1
813,1.0048,1.1514,-1,1
814,1.00595,1.1499,-1,1
815,1.00711,1.1507,-1,1
816,1.00827,1.1524,-1,1
817,1.00942,1.1531,-1,1
818,1.01055,1.1513,-1,1
819,1.01168,1.1474,-1,1
820,1.01281,1.144,-1,1
821,1.01396,1.1434,-1,1
822,1.01512,1.146,-1,1
823,1.01627,1.1462,-1,1
824,1.01854,1.1439,-1,1
825,1.01966,1.1402,-1,1
826,1.0208,1.1379,-1,1
827,1.02195,1.1381,-1,1
828,1.02311,1.1402,-1,1
829,1.02425,1.1422,-1,1
830,1.02538,1.1419,-1,1
831,1.0265,1.139,-1,1
832,1.02763,1.1358,-1,1
833,1.02877,1.1371,-1,1
834,1.03108,1.1396,-1,1
835,1.03222,1.1412,-1,1
836,1.03335,1.1403,-1,1
837,1.03446,1.1371,-1,1
838,1.03559,1.1344,-1,1
