cnt,pos,speed,Dir,Force,
1,0,1.0923,-1,1
2,0.00111008,1.0937,-1,1
3,0.00330019,1.0943,-1,1
4,0.00330019,1.0949,-1,1
5,0.00440025,1.0959,-1,1
6,0.00549984,1.0971,-1,1
7,0.0065999,1.0985,-1,1
8,0.00770998,1.1,-1,1
9,0.00882006,1.1011,-1,1
10,0.00992012,1.1017,-1,1
11,0.0110202,1.1021,-1,1
12,0.0121303,1.103,-1,1
13,0.0143499,1.1043,-1,1
14,0.01545,1.1054,-1,1
15,0.0165601,1.1062,-1,1
16,0.0176702,1.1069,-1,1
17,0.0187802,1.1076,-1,1
18,0.0198998,1.1081,-1,1
19,0.0210099,1.1089,-1,1
20,0.02212,1.1099,-1,1
21,0.0232401,1.1109,-1,1
22,0.0243502,1.1116,-1,1
23,0.0265799,1.1121,-1,1
24,0.0276999,1.1129,-1,1
25,0.02882,1.1138,-1,1
26,0.0299401,1.1148,-1,1
27,0.0310602,1.1156,-1,1
28,0.0321798,1.1166,-1,1
29,0.0332999,1.1174,-1,1
30,0.03442,1.1179,-1,1
31,0.0355401,1.1186,-1,1
32,0.0366602,1.1197,-1,1
33,0.0377898,1.121,-1,1
34,0.0389199,1.1219,-1,1
35,0.04004,1.1225,-1,1
36,0.0411701,1.1231,-1,1
37,0.0422902,1.124,-1,1
38,0.0434198,1.125,-1,1
39,0.04568,1.1261,-1,1
40,0.0468202,1.1274,-1,1
41,0.0479498,1.1282,-1,1
42,0.0490699,1.1282,-1,1
43,0.0502,1.1282,-1,1
44,0.0513301,1.129,-1,1
45,0.0524602,1.13,-1,1
46,0.0547299,1.1308,-1,1
47,0.0547299,1.1312,-1,1
48,0.0569901,1.131,-1,1
49,0.0581203,1.1306,-1,1
50,0.0592499,1.1306,-1,1
51,0.06039,1.1311,-1,1
52,0.0615201,1.1321,-1,1
53,0.0626602,1.1328,-1,1
54,0.0637898,1.1326,-1,1
55,0.0649199,1.132,-1,1
56,0.0660501,1.1316,-1,1
57,0.0671802,1.1316,-1,1
58,0.0683198,1.1322,-1,1
59,0.0694499,1.133,-1,1
60,0.07059,1.1333,-1,1
61,0.0717201,1.1327,-1,1
62,0.0728402,1.132,-1,1
63,0.0739698,1.1315,-1,1
64,0.07511,1.132,-1,1
65,0.0773802,1.1326,-1,1
66,0.0785098,1.1331,-1,1
67,0.0796399,1.1328,-1,1
68,0.0796399,1.132,-1,1
69,0.08077,1.1312,-1,1
70,0.0830302,1.1311,-1,1
71,0.0841699,1.1317,-1,1
72,0.0853,1.1325,-1,1
73,0.0864301,1.1325,-1,1
74,0.0875602,1.1316,-1,1
75,0.0886898,1.1311,-1,1
76,0.0898199,1.1307,-1,1
77,0.09095,1.1308,-1,1
78,0.0920801,1.1312,-1,1
79,0.0932102,1.1316,-1,1
80,0.0943398,1.1312,-1,1
81,0.09547,1.1304,-1,1
82,0.0966001,1.1294,-1,1
83,0.0988503,1.129,-1,1
84,0.0999799,1.129,-1,1
85,0.10111,1.129,-1,1
86,0.10224,1.1292,-1,1
87,0.10224,1.1291,-1,1
88,0.10337,1.1289,-1,1
89,0.10449,1.1282,-1,1
90,0.10562,1.1274,-1,1
91,0.10674,1.127,-1,1
92,0.10786,1.1271,-1,1
93,0.10899,1.1275,-1,1
94,0.11012,1.1275,-1,1
95,0.11238,1.127,-1,1
96,0.1135,1.126,-1,1
97,0.11462,1.1251,-1,1
98,0.11462,1.1246,-1,1
99,0.11574,1.1245,-1,1
100,0.11687,1.1252,-1,1
101,0.118,1.1259,-1,1
102,0.11913,1.1257,-1,1
103,0.12137,1.1245,-1,1
104,0.12249,1.1238,-1,1
105,0.12361,1.1239,-1,1
106,0.12474,1.1246,-1,1
107,0.12587,1.1256,-1,1
108,0.127,1.1257,-1,1
109,0.12812,1.1252,-1,1
110,0.12923,1.1241,-1,1
111,0.13036,1.1234,-1,1
112,0.13149,1.1238,-1,1
113,0.13262,1.1253,-1,1
114,0.13375,1.1262,-1,1
115,0.13487,1.1261,-1,1
116,0.136,1.1255,-1,1
117,0.13712,1.1247,-1,1
118,0.13824,1.1247,-1,1
119,0.13938,1.126,-1,1
120,0.14051,1.1279,-1,1
121,0.14165,1.1292,-1,1
122,0.14278,1.1296,-1,1
123,0.14391,1.1293,-1,1
124,0.14504,1.1293,-1,1
125,0.14617,1.13,-1,1
126,0.14731,1.1314,-1,1
127,0.14845,1.1336,-1,1
128,0.1496,1.1357,-1,1
129,0.15075,1.1371,-1,1
130,0.15189,1.1375,-1,1
131,0.15303,1.1378,-1,1
132,0.15417,1.1388,-1,1
133,0.15532,1.1407,-1,1
134,0.15647,1.1433,-1,1
135,0.15763,1.1462,-1,1
136,0.15879,1.1483,-1,1
137,0.15995,1.1495,-1,1
138,0.1611,1.1502,-1,1
139,0.16226,1.1512,-1,1
140,0.16342,1.1535,-1,1
141,0.1646,1.157,-1,1
142,0.16578,1.1607,-1,1
143,0.16695,1.1632,-1,1
144,0.16812,1.1647,-1,1
145,0.16929,1.1656,-1,1
146,0.17047,1.1674,-1,1
147,0.17165,1.1702,-1,1
148,0.17285,1.1747,-1,1
149,0.17405,1.1791,-1,1
150,0.17524,1.182,-1,1
151,0.17643,1.1834,-1,1
152,0.17762,1.1844,-1,1
153,0.17882,1.1871,-1,1
154,0.18004,1.1916,-1,1
155,0.18126,1.1969,-1,1
156,0.18248,1.2012,-1,1
157,0.18369,1.204,-1,1
158,0.1849,1.2052,-1,1
159,0.18612,1.2069,-1,1
160,0.18735,1.211,-1,1
161,0.1886,1.2169,-1,1
162,0.18985,1.2227,-1,1
163,0.19109,1.2266,-1,1
164,0.19232,1.2285,-1,1
165,0.19356,1.2299,-1,1
166,0.19481,1.2332,-1,1
167,0.19608,1.2391,-1,1
168,0.19736,1.2459,-1,1
169,0.19863,1.2517,-1,1
170,0.1999,1.2545,-1,1
171,0.20116,1.2561,-1,1
172,0.20243,1.2586,-1,1
173,0.20372,1.2638,-1,1
174,0.20503,1.2709,-1,1
175,0.20634,1.2779,-1,1
176,0.20764,1.2825,-1,1
177,0.20893,1.2846,-1,1
178,0.21022,1.2864,-1,1
179,0.21154,1.2923,-1,1
180,0.21421,1.2997,-1,1
181,0.21554,1.3063,-1,1
182,0.21686,1.3112,-1,1
183,0.21818,1.3143,-1,1
184,0.21953,1.318,-1,1
185,0.22089,1.3233,-1,1
186,0.22225,1.33,-1,1
187,0.22361,1.3365,-1,1
188,0.22496,1.3419,-1,1
189,0.22631,1.3438,-1,1
190,0.22768,1.3472,-1,1
191,0.22907,1.3533,-1,1
192,0.23046,1.3601,-1,1
193,0.23184,1.3661,-1,1
194,0.23322,1.3695,-1,1
195,0.2346,1.3717,-1,1
196,0.236,1.3748,-1,1
197,0.2374,1.38,-1,1
198,0.23882,1.3861,-1,1
199,0.24022,1.3916,-1,1
200,0.24163,1.395,-1,1
201,0.24304,1.3981,-1,1
202,0.24446,1.4019,-1,1
203,0.24588,1.4064,-1,1
204,0.24731,1.4115,-1,1
205,0.24874,1.4161,-1,1
206,0.25017,1.4198,-1,1
207,0.2516,1.4222,-1,1
208,0.25449,1.4256,-1,1
209,0.25593,1.4295,-1,1
210,0.25738,1.4339,-1,1
211,0.25883,1.4368,-1,1
212,0.26028,1.4394,-1,1
213,0.26174,1.4423,-1,1
214,0.26466,1.4457,-1,1
215,0.26613,1.4493,-1,1
216,0.2676,1.4531,-1,1
217,0.26907,1.4569,-1,1
218,0.27054,1.4596,-1,1
219,0.27201,1.4622,-1,1
220,0.27349,1.4649,-1,1
221,0.27497,1.468,-1,1
222,0.27645,1.4713,-1,1
223,0.27794,1.4742,-1,1
224,0.27942,1.4763,-1,1
225,0.28091,1.4784,-1,1
226,0.28239,1.48,-1,1
227,0.28389,1.4825,-1,1
228,0.28539,1.4851,-1,1
229,0.28689,1.4875,-1,1
230,0.28838,1.4894,-1,1
231,0.28987,1.4904,-1,1
232,0.29137,1.4916,-1,1
233,0.29287,1.4935,-1,1
234,0.29438,1.4959,-1,1
235,0.29589,1.4978,-1,1
236,0.29739,1.4993,-1,1
237,0.29889,1.5,-1,1
238,0.3004,1.5009,-1,1
239,0.30191,1.5022,-1,1
240,0.30341,1.5035,-1,1
241,0.30492,1.5051,-1,1
242,0.30643,1.5056,-1,1
243,0.30794,1.506,-1,1
244,0.30944,1.5062,-1,1
245,0.31096,1.5071,-1,1
246,0.31247,1.508,-1,1
247,0.31398,1.5089,-1,1
248,0.31549,1.5093,-1,1
249,0.317,1.5093,-1,1
250,0.31851,1.5095,-1,1
251,0.32002,1.51,-1,1
252,0.32153,1.511,-1,1
253,0.32305,1.5117,-1,1
254,0.32456,1.5122,-1,1
255,0.32608,1.512,-1,1
256,0.32759,1.5119,-1,1
257,0.3291,1.5118,-1,1
258,0.33061,1.5123,-1,1
259,0.33213,1.5127,-1,1
260,0.33364,1.513,-1,1
261,0.33514,1.5125,-1,1
262,0.33666,1.5122,-1,1
263,0.33817,1.5118,-1,1
264,0.33968,1.5119,-1,1
265,0.34119,1.5119,-1,1
266,0.3427,1.5118,-1,1
267,0.34421,1.5116,-1,1
268,0.34572,1.5108,-1,1
269,0.34723,1.5103,-1,1
270,0.34874,1.5101,-1,1
271,0.35024,1.5101,-1,1
272,0.35175,1.5096,-1,1
273,0.35326,1.509,-1,1
274,0.35476,1.508,-1,1
275,0.35626,1.5074,-1,1
276,0.35777,1.5068,-1,1
277,0.35927,1.5064,-1,1
278,0.36077,1.5058,-1,1
279,0.36228,1.505,-1,1
280,0.36378,1.5041,-1,1
281,0.36528,1.5035,-1,1
282,0.36678,1.5032,-1,1
283,0.36828,1.5025,-1,1
284,0.36978,1.5021,-1,1
285,0.37128,1.5014,-1,1
286,0.37277,1.5007,-1,1
287,0.37427,1.4999,-1,1
288,0.37577,1.4998,-1,1
289,0.37727,1.4996,-1,1
290,0.37876,1.4987,-1,1
291,0.38026,1.4982,-1,1
292,0.38176,1.4974,-1,1
293,0.38325,1.4971,-1,1
294,0.38475,1.4967,-1,1
295,0.38624,1.4964,-1,1
296,0.38774,1.4961,-1,1
297,0.38923,1.4956,-1,1
298,0.39072,1.4949,-1,1
299,0.39222,1.4946,-1,1
300,0.39371,1.4949,-1,1
301,0.39521,1.4945,-1,1
302,0.3967,1.4941,-1,1
303,0.39819,1.494,-1,1
304,0.39969,1.4939,-1,1
305,0.40268,1.4937,-1,1
306,0.40417,1.4933,-1,1
307,0.40566,1.4937,-1,1
308,0.40716,1.494,-1,1
309,0.40866,1.4942,-1,1
310,0.41015,1.4943,-1,1
311,0.41164,1.4942,-1,1
312,0.41314,1.4944,-1,1
313,0.41464,1.4948,-1,1
314,0.41614,1.4954,-1,1
315,0.41764,1.4962,-1,1
316,0.41914,1.4969,-1,1
317,0.42063,1.4967,-1,1
318,0.42363,1.4974,-1,1
319,0.42513,1.4982,-1,1
320,0.42513,1.499,-1,1
321,0.42664,1.5003,-1,1
322,0.42814,1.5008,-1,1
323,0.42963,1.5007,-1,1
324,0.43113,1.5007,-1,1
325,0.43264,1.5012,-1,1
326,0.43415,1.5025,-1,1
327,0.43565,1.5037,-1,1
328,0.43716,1.5038,-1,1
329,0.44017,1.5039,-1,1
330,0.44017,1.5043,-1,1
331,0.44168,1.5049,-1,1
332,0.44319,1.5061,-1,1
333,0.4447,1.5074,-1,1
334,0.44621,1.5083,-1,1
335,0.44772,1.5089,-1,1
336,0.44924,1.5092,-1,1
337,0.45075,1.5095,-1,1
338,0.45225,1.51,-1,1
339,0.45527,1.5103,-1,1
340,0.45679,1.5107,-1,1
341,0.4583,1.5106,-1,1
342,0.4583,1.5105,-1,1
343,0.4598,1.5103,-1,1
344,0.46131,1.5101,-1,1
345,0.46283,1.5102,-1,1
346,0.46434,1.5102,-1,1
347,0.46585,1.5101,-1,1
348,0.46887,1.5099,-1,1
349,0.46887,1.5098,-1,1
350,0.47188,1.5095,-1,1
351,0.47339,1.5094,-1,1
352,0.4749,1.5089,-1,1
353,0.4749,1.5085,-1,1
354,0.4764,1.5081,-1,1
355,0.4779,1.5072,-1,1
356,0.47941,1.5068,-1,1
357,0.48092,1.5066,-1,1
358,0.48242,1.506,-1,1
359,0.48543,1.5055,-1,1
360,0.48693,1.5049,-1,1
361,0.48843,1.5044,-1,1
362,0.48994,1.5044,-1,1
363,0.48994,1.5039,-1,1
364,0.49144,1.5034,-1,1
365,0.49294,1.5033,-1,1
366,0.49444,1.5027,-1,1
367,0.49595,1.5024,-1,1
368,0.49745,1.5021,-1,1
369,0.49894,1.5014,-1,1
370,0.50044,1.5008,-1,1
371,0.50193,1.5,-1,1
372,0.50492,1.499,-1,1
373,0.50641,1.498,-1,1
374,0.50641,1.4972,-1,1
375,0.5079,1.4961,-1,1
376,0.5094,1.4952,-1,1
377,0.51089,1.4942,-1,1
378,0.51238,1.4933,-1,1
379,0.51386,1.4922,-1,1
380,0.51535,1.4909,-1,1
381,0.51683,1.4901,-1,1
382,0.51832,1.4891,-1,1
383,0.52129,1.4884,-1,1
384,0.52277,1.4874,-1,1
385,0.52277,1.4863,-1,1
386,0.52425,1.4851,-1,1
387,0.52573,1.484,-1,1
388,0.52722,1.4834,-1,1
389,0.52869,1.4826,-1,1
390,0.53017,1.4817,-1,1
391,0.53312,1.4807,-1,1
392,0.5346,1.4801,-1,1
393,0.53607,1.4793,-1,1
394,0.53754,1.4784,-1,1
395,0.53902,1.4774,-1,1
396,0.54049,1.4762,-1,1
397,0.54196,1.4753,-1,1
398,0.54343,1.4741,-1,1
399,0.5449,1.473,-1,1
400,0.54636,1.4718,-1,1
401,0.54783,1.4706,-1,1
402,0.54929,1.4696,-1,1
403,0.55076,1.4686,-1,1
404,0.55222,1.4674,-1,1
405,0.55368,1.4659,-1,1
406,0.55513,1.4646,-1,1
407,0.55659,1.4631,-1,1
408,0.55805,1.4619,-1,1
409,0.55951,1.4609,-1,1
410,0.56095,1.4593,-1,1
411,0.5624,1.4574,-1,1
412,0.56385,1.4556,-1,1
413,0.5653,1.4544,-1,1
414,0.56675,1.4529,-1,1
415,0.56819,1.4511,-1,1
416,0.56962,1.4492,-1,1
417,0.57106,1.4472,-1,1
418,0.5725,1.4451,-1,1
419,0.57394,1.4432,-1,1
420,0.57537,1.4417,-1,1
421,0.5768,1.4398,-1,1
422,0.57823,1.4375,-1,1
423,0.57965,1.4349,-1,1
424,0.58108,1.4329,-1,1
425,0.5825,1.4314,-1,1
426,0.58392,1.4295,-1,1
427,0.58534,1.4273,-1,1
428,0.58675,1.425,-1,1
429,0.58817,1.4227,-1,1
430,0.58958,1.4206,-1,1
431,0.59098,1.4186,-1,1
432,0.59239,1.4162,-1,1
433,0.59379,1.4141,-1,1
434,0.5952,1.4121,-1,1
435,0.5966,1.4098,-1,1
436,0.598,1.4076,-1,1
437,0.59939,1.4051,-1,1
438,0.60078,1.4024,-1,1
439,0.60217,1.4001,-1,1
440,0.60356,1.3982,-1,1
441,0.60495,1.3964,-1,1
442,0.60633,1.3942,-1,1
443,0.60771,1.3913,-1,1
444,0.60908,1.3883,-1,1
445,0.61046,1.3861,-1,1
446,0.61184,1.3844,-1,1
447,0.61321,1.3828,-1,1
448,0.61458,1.3806,-1,1
449,0.61594,1.3776,-1,1
450,0.61731,1.3746,-1,1
451,0.61867,1.3723,-1,1
452,0.62004,1.3708,-1,1
453,0.6214,1.3684,-1,1
454,0.62275,1.3656,-1,1
455,0.62545,1.3625,-1,1
456,0.6268,1.3598,-1,1
457,0.62815,1.3573,-1,1
458,0.62949,1.355,-1,1
459,0.63083,1.3526,-1,1
460,0.63217,1.3499,-1,1
461,0.6335,1.347,-1,1
462,0.63484,1.3441,-1,1
463,0.63618,1.3424,-1,1
464,0.6375,1.3403,-1,1
465,0.63882,1.3377,-1,1
466,0.64015,1.3349,-1,1
467,0.64147,1.3325,-1,1
468,0.64411,1.3301,-1,1
469,0.64543,1.3273,-1,1
470,0.64543,1.3244,-1,1
471,0.64673,1.3213,-1,1
472,0.64804,1.3182,-1,1
473,0.64935,1.3158,-1,1
474,0.65067,1.3146,-1,1
475,0.65197,1.3132,-1,1
476,0.65327,1.3098,-1,1
477,0.65456,1.3064,-1,1
478,0.65715,1.3043,-1,1
479,0.65845,1.3034,-1,1
480,0.65975,1.3024,-1,1
481,0.65975,1.3,-1,1
482,0.66103,1.2976,-1,1
483,0.6623,1.2939,-1,1
484,0.66358,1.2902,-1,1
485,0.66487,1.288,-1,1
486,0.66615,1.2869,-1,1
487,0.66743,1.2846,-1,1
488,0.66996,1.281,-1,1
489,0.67122,1.2768,-1,1
490,0.67249,1.2737,-1,1
491,0.67376,1.2724,-1,1
492,0.67376,1.2704,-1,1
493,0.67502,1.2691,-1,1
494,0.67627,1.2667,-1,1
495,0.67752,1.2627,-1,1
496,0.67876,1.2593,-1,1
497,0.68001,1.2574,-1,1
498,0.68126,1.2556,-1,1
499,0.68374,1.2537,-1,1
500,0.68497,1.2501,-1,1
501,0.6862,1.2458,-1,1
502,0.6862,1.2423,-1,1
503,0.68742,1.2389,-1,1
504,0.68865,1.2363,-1,1
505,0.68988,1.2344,-1,1
506,0.6911,1.2319,-1,1
507,0.69232,1.2285,-1,1
508,0.69352,1.2248,-1,1
509,0.69473,1.2212,-1,1
510,0.69593,1.2188,-1,1
511,0.69834,1.2164,-1,1
512,0.69954,1.2135,-1,1
513,0.70073,1.21,-1,1
514,0.70073,1.2059,-1,1
515,0.70192,1.202,-1,1
516,0.7031,1.1982,-1,1
517,0.70428,1.1945,-1,1
518,0.70546,1.1918,-1,1
519,0.70664,1.1889,-1,1
520,0.70781,1.1852,-1,1
521,0.71014,1.1811,-1,1
522,0.7113,1.177,-1,1
523,0.71246,1.1733,-1,1
524,0.71246,1.1701,-1,1
525,0.71361,1.1668,-1,1
526,0.71477,1.164,-1,1
527,0.71592,1.1611,-1,1
528,0.71706,1.1574,-1,1
529,0.7182,1.1535,-1,1
530,0.71933,1.1496,-1,1
531,0.72046,1.1464,-1,1
532,0.72159,1.1434,-1,1
533,0.72384,1.1401,-1,1
534,0.72495,1.1364,-1,1
535,0.72495,1.1321,-1,1
536,0.72606,1.1278,-1,1
537,0.72717,1.1232,-1,1
538,0.72827,1.1189,-1,1
539,0.72937,1.1154,-1,1
540,0.73047,1.1125,-1,1
541,0.73157,1.1092,-1,1
542,0.73266,1.1055,-1,1
543,0.73374,1.1009,-1,1
544,0.73589,1.0965,-1,1
545,0.73696,1.0927,-1,1
546,0.73696,1.0887,-1,1
547,0.73804,1.0854,-1,1
548,0.7391,1.0821,-1,1
549,0.74017,1.0783,-1,1
550,0.74122,1.0739,-1,1
551,0.74332,1.0689,-1,1
552,0.74436,1.0645,-1,1
553,0.74541,1.0612,-1,1
554,0.74645,1.0578,-1,1
555,0.74748,1.0539,-1,1
556,0.74851,1.0498,-1,1
557,0.74954,1.0452,-1,1
558,0.75056,1.0403,-1,1
559,0.75157,1.0356,-1,1
560,0.75259,1.0316,-1,1
561,0.7536,1.0284,-1,1
562,0.75461,1.024,-1,1
563,0.75661,1.0192,-1,1
564,0.7576,1.0146,-1,1
565,0.75859,1.0105,-1,1
566,0.75958,1.0063,-1,1
567,0.76057,1.0023,-1,1
568,0.76155,0.9984,-1,1
569,0.76252,0.9945,-1,1
570,0.7635,0.9902,-1,1
571,0.76447,0.9857,-1,1
572,0.76543,0.9821,-1,1
573,0.7664,0.9789,-1,1
574,0.76736,0.9755,-1,1
575,0.76831,0.9712,-1,1
576,0.77021,0.9671,-1,1
577,0.77116,0.9631,-1,1
578,0.7721,0.9594,-1,1
579,0.77304,0.9555,-1,1
580,0.77397,0.9516,-1,1
581,0.7749,0.9476,-1,1
582,0.77582,0.9434,-1,1
583,0.77675,0.9396,-1,1
584,0.77767,0.9358,-1,1
585,0.7795,0.9321,-1,1
586,0.78041,0.9282,-1,1
587,0.78131,0.924,-1,1
588,0.78222,0.92,-1,1
589,0.78311,0.916,-1,1
590,0.78401,0.9122,-1,1
591,0.7849,0.9084,-1,1
592,0.78579,0.9049,-1,1
593,0.78667,0.9008,-1,1
594,0.78756,0.8967,-1,1
595,0.78843,0.893,-1,1
596,0.7893,0.8896,-1,1
597,0.79018,0.8863,-1,1
598,0.79104,0.8829,-1,1
599,0.79191,0.8795,-1,1
600,0.79277,0.8758,-1,1
601,0.79362,0.8722,-1,1
602,0.79447,0.8686,-1,1
603,0.79533,0.8654,-1,1
604,0.79618,0.8621,-1,1
605,0.79702,0.8588,-1,1
606,0.79785,0.855,-1,1
607,0.79869,0.8514,-1,1
608,0.79952,0.8476,-1,1
609,0.80035,0.8443,-1,1
610,0.80118,0.841,-1,1
611,0.802,0.8377,-1,1
612,0.80282,0.8341,-1,1
613,0.80363,0.8303,-1,1
614,0.80444,0.8265,-1,1
615,0.80525,0.8231,-1,1
616,0.80605,0.8198,-1,1
617,0.80685,0.8164,-1,1
618,0.80765,0.8131,-1,1
619,0.80845,0.8096,-1,1
620,0.80924,0.8063,-1,1
621,0.81003,0.8031,-1,1
622,0.81082,0.8001,-1,1
623,0.8116,0.7968,-1,1
624,0.81238,0.7937,-1,1
625,0.81316,0.7906,-1,1
626,0.81393,0.7878,-1,1
627,0.81471,0.7852,-1,1
628,0.81548,0.7825,-1,1
629,0.81624,0.7796,-1,1
630,0.81701,0.7769,-1,1
631,0.81777,0.7743,-1,1
632,0.81854,0.7722,-1,1
633,0.8193,0.7704,-1,1
634,0.82007,0.7686,-1,1
635,0.82082,0.7664,-1,1
636,0.82158,0.7644,-1,1
637,0.82233,0.7625,-1,1
638,0.82309,0.761,-1,1
639,0.82384,0.76,-1,1
640,0.8246,0.7591,-1,1
641,0.82535,0.7579,-1,1
642,0.82611,0.7565,-1,1
643,0.82686,0.7554,-1,1
644,0.82761,0.7547,-1,1
645,0.82837,0.7547,-1,1
646,0.82912,0.7546,-1,1
647,0.82987,0.7544,-1,1
648,0.83063,0.7542,-1,1
649,0.83138,0.754,-1,1
650,0.83214,0.7543,-1,1
651,0.83291,0.7555,-1,1
652,0.83367,0.7566,-1,1
653,0.83443,0.7573,-1,1
654,0.83519,0.758,-1,1
655,0.83596,0.7591,-1,1
656,0.83673,0.761,-1,1
657,0.83751,0.7632,-1,1
658,0.83828,0.7654,-1,1
659,0.83906,0.7676,-1,1
660,0.83984,0.7696,-1,1
661,0.84063,0.7719,-1,1
662,0.84142,0.775,-1,1
663,0.84222,0.7787,-1,1
664,0.84302,0.7825,-1,1
665,0.84382,0.7859,-1,1
666,0.84462,0.7891,-1,1
667,0.84544,0.793,-1,1
668,0.84626,0.7976,-1,1
669,0.84709,0.8027,-1,1
670,0.84792,0.8079,-1,1
671,0.84876,0.8128,-1,1
672,0.8496,0.8176,-1,1
673,0.85045,0.823,-1,1
674,0.85131,0.8293,-1,1
675,0.85218,0.836,-1,1
676,0.85305,0.8427,-1,1
677,0.85393,0.8492,-1,1
678,0.85482,0.8558,-1,1
679,0.85572,0.8629,-1,1
680,0.85663,0.8707,-1,1
681,0.85754,0.8786,-1,1
682,0.85847,0.8868,-1,1
683,0.8594,0.8947,-1,1
684,0.86034,0.9028,-1,1
685,0.8613,0.9116,-1,1
686,0.86226,0.9207,-1,1
687,0.86323,0.9301,-1,1
688,0.86421,0.9393,-1,1
689,0.86521,0.9487,-1,1
690,0.86621,0.9583,-1,1
691,0.86723,0.9685,-1,1
692,0.86826,0.9786,-1,1
693,0.86929,0.9892,-1,1
694,0.87034,0.9998,-1,1
695,0.8714,1.0104,-1,1
696,0.87248,1.0213,-1,1
697,0.87356,1.0323,-1,1
698,0.87465,1.0438,-1,1
699,0.87576,1.0555,-1,1
700,0.87688,1.067,-1,1
701,0.87802,1.0787,-1,1
702,0.87916,1.0907,-1,1
703,0.88032,1.1029,-1,1
704,0.88149,1.115,-1,1
705,0.88267,1.1269,-1,1
706,0.88387,1.1393,-1,1
707,0.88508,1.1517,-1,1
708,0.8863,1.1642,-1,1
709,0.88753,1.1765,-1,1
710,0.88877,1.1887,-1,1
711,0.89003,1.201,-1,1
712,0.89129,1.2131,-1,1
713,0.89257,1.2264,-1,1
714,0.89387,1.2399,-1,1
715,0.89649,1.2534,-1,1
716,0.89649,1.2662,-1,1
717,0.89915,1.2791,-1,1
718,0.90049,1.2918,-1,1
719,0.90185,1.3045,-1,1
720,0.90323,1.3175,-1,1
721,0.90461,1.3301,-1,1
722,0.906,1.3424,-1,1
723,0.9074,1.3531,-1,1
724,0.91024,1.3653,-1,1
725,0.91167,1.3772,-1,1
726,0.91167,1.389,-1,1
727,0.91311,1.3996,-1,1
728,0.91456,1.4094,-1,1
729,0.91601,1.4188,-1,1
730,0.91748,1.4284,-1,1
731,0.92045,1.4389,-1,1
732,0.92195,1.449,-1,1
733,0.92344,1.4587,-1,1
734,0.92494,1.4663,-1,1
735,0.92646,1.4747,-1,1
736,0.92799,1.4835,-1,1
737,0.92952,1.4925,-1,1
738,0.93105,1.501,-1,1
739,0.93259,1.5092,-1,1
740,0.93414,1.5172,-1,1
741,0.9357,1.5243,-1,1
742,0.93883,1.5319,-1,1
743,0.9404,1.539,-1,1
744,0.94197,1.546,-1,1
745,0.94355,1.5524,-1,1
746,0.94514,1.5583,-1,1
747,0.94673,1.5642,-1,1
748,0.94833,1.5705,-1,1
749,0.94992,1.5765,-1,1
750,0.95152,1.5817,-1,1
751,0.95313,1.5865,-1,1
752,0.95474,1.5907,-1,1
753,0.95635,1.5952,-1,1
754,0.95796,1.5992,-1,1
755,0.95958,1.6026,-1,1
756,0.9612,1.6059,-1,1
757,0.96282,1.609,-1,1
758,0.96445,1.612,-1,1
759,0.96607,1.6149,-1,1
760,0.9677,1.6176,-1,1
761,0.96933,1.6199,-1,1
762,0.97096,1.6221,-1,1
763,0.97259,1.6243,-1,1
764,0.97423,1.6267,-1,1
765,0.97587,1.6287,-1,1
766,0.9775,1.6301,-1,1
767,0.97914,1.6313,-1,1
768,0.98077,1.6327,-1,1
769,0.98241,1.6343,-1,1
770,0.98406,1.6357,-1,1
771,0.9857,1.6369,-1,1
772,0.98733,1.6375,-1,1
773,0.98897,1.6377,-1,1
774,0.99061,1.6379,-1,1
775,0.99225,1.6387,-1,1
776,0.9939,1.6395,-1,1
777,0.99554,1.6399,-1,1
778,0.99717,1.6396,-1,1
779,0.99881,1.6393,-1,1
780,1.00045,1.6391,-1,1
781,1.00209,1.6388,-1,1
782,1.00372,1.6389,-1,1
783,1.00536,1.639,-1,1
784,1.00699,1.6387,-1,1
785,1.00863,1.6379,-1,1
786,1.01027,1.6369,-1,1
787,1.0119,1.6362,-1,1
788,1.01353,1.6359,-1,1
789,1.01516,1.6353,-1,1
790,1.01679,1.6344,-1,1
791,1.01842,1.6333,-1,1
792,1.02004,1.6319,-1,1
793,1.02167,1.6308,-1,1
794,1.02329,1.6297,-1,1
795,1.02491,1.6281,-1,1
796,1.02653,1.6265,-1,1
797,1.02815,1.6252,-1,1
798,1.02977,1.6238,-1,1
799,1.03138,1.6223,-1,1
800,1.03299,1.6205,-1,1
801,1.0346,1.6185,-1,1
802,1.03621,1.6167,-1,1
803,1.03781,1.6149,-1,1
804,1.03942,1.6132,-1,1
805,1.04103,1.6113,-1,1
806,1.04262,1.6092,-1,1
807,1.04422,1.6068,-1,1
808,1.04581,1.6049,-1,1
809,1.04741,1.603,-1,1
810,1.04901,1.601,-1,1
811,1.05059,1.5988,-1,1
812,1.05218,1.5967,-1,1
813,1.05376,1.5945,-1,1
814,1.05535,1.5923,-1,1
815,1.05693,1.5901,-1,1
816,1.0585,1.588,-1,1
817,1.06007,1.5859,-1,1
818,1.06165,1.5835,-1,1
819,1.06322,1.5809,-1,1
820,1.06479,1.5784,-1,1
821,1.06635,1.576,-1,1
822,1.06791,1.5737,-1,1
823,1.06947,1.5714,-1,1
824,1.07103,1.5687,-1,1
825,1.07258,1.566,-1,1
826,1.07413,1.5632,-1,1
827,1.07568,1.5606,-1,1
828,1.07723,1.5583,-1,1
829,1.07878,1.5558,-1,1
830,1.08032,1.5529,-1,1
831,1.08185,1.5498,-1,1
832,1.08338,1.5468,-1,1
833,1.08491,1.5442,-1,1
834,1.08645,1.5416,-1,1
835,1.08797,1.5391,-1,1
836,1.08949,1.5361,-1,1
837,1.09101,1.5332,-1,1
838,1.09253,1.5298,-1,1
839,1.09405,1.527,-1,1
