cnt,pos,speed,Dir,Force,
1,0,1.003,-1,1
2,0.00103998,1.0096,-1,1
3,0.00208998,1.0162,-1,1
4,0.00314999,1.0234,-1,1
5,0.00421,1.0308,-1,1
6,0.00529003,1.039,-1,1
7,0.00744963,1.0475,-1,1
8,0.00854969,1.0554,-1,1
9,0.00963974,1.0629,-1,1
10,0.0107398,1.0702,-1,1
11,0.0107398,1.0773,-1,1
12,0.0118499,1.0838,-1,1
13,0.01296,1.0905,-1,1
14,0.01408,1.0969,-1,1
15,0.0152097,1.1029,-1,1
16,0.0163298,1.1073,-1,1
17,0.0174599,1.1112,-1,1
18,0.01859,1.1152,-1,1
19,0.0197301,1.1194,-1,1
20,0.0220299,1.1244,-1,1
21,0.02318,1.129,-1,1
22,0.0243297,1.1337,-1,1
23,0.0254798,1.1376,-1,1
24,0.0266399,1.1414,-1,1
25,0.0278001,1.1454,-1,1
26,0.0289798,1.1499,-1,1
27,0.0301499,1.1548,-1,1
28,0.0313296,1.1594,-1,1
29,0.0325098,1.1633,-1,1
30,0.03368,1.1657,-1,1
31,0.0348597,1.1682,-1,1
32,0.0360398,1.1713,-1,1
33,0.03724,1.1754,-1,1
34,0.0384297,1.1793,-1,1
35,0.0396299,1.1828,-1,1
36,0.0408297,1.1854,-1,1
37,0.0420198,1.1869,-1,1
38,0.04322,1.1885,-1,1
39,0.0444198,1.1908,-1,1
40,0.04562,1.1941,-1,1
41,0.0468397,1.1978,-1,1
42,0.0480499,1.2007,-1,1
43,0.0492597,1.2021,-1,1
44,0.0504599,1.2029,-1,1
45,0.0516701,1.2034,-1,1
46,0.0528798,1.2049,-1,1
47,0.0541,1.2078,-1,1
48,0.0553298,1.2111,-1,1
49,0.05655,1.2139,-1,1
50,0.0577698,1.2151,-1,1
51,0.05899,1.2153,-1,1
52,0.0602098,1.2158,-1,1
53,0.06143,1.2174,-1,1
54,0.0626597,1.2202,-1,1
55,0.0639,1.2237,-1,1
56,0.0651398,1.2264,-1,1
57,0.06637,1.2273,-1,1
58,0.0675898,1.2268,-1,1
59,0.06881,1.2261,-1,1
60,0.0700498,1.2274,-1,1
61,0.07129,1.2298,-1,1
62,0.0725298,1.2324,-1,1
63,0.07377,1.2336,-1,1
64,0.0749998,1.2332,-1,1
65,0.07622,1.2314,-1,1
66,0.0774398,1.23,-1,1
67,0.07868,1.2306,-1,1
68,0.0799198,1.2325,-1,1
69,0.0811601,1.2342,-1,1
70,0.0823898,1.2336,-1,1
71,0.0836101,1.2316,-1,1
72,0.0848198,1.2289,-1,1
73,0.08605,1.228,-1,1
74,0.0872898,1.2286,-1,1
75,0.0885201,1.23,-1,1
76,0.0897498,1.2302,-1,1
77,0.09096,1.2284,-1,1
78,0.0921798,1.2256,-1,1
79,0.09339,1.2234,-1,1
80,0.0946198,1.2234,-1,1
81,0.09585,1.2243,-1,1
82,0.0970798,1.2251,-1,1
83,0.09829,1.2238,-1,1
84,0.0994997,1.2209,-1,1
85,0.1007,1.2183,-1,1
86,0.10192,1.2175,-1,1
87,0.10315,1.2185,-1,1
88,0.10437,1.2193,-1,1
89,0.10558,1.2188,-1,1
90,0.10678,1.2162,-1,1
91,0.10798,1.2132,-1,1
92,0.10919,1.2113,-1,1
93,0.1104,1.2115,-1,1
94,0.11162,1.2125,-1,1
95,0.11283,1.2127,-1,1
96,0.11403,1.2106,-1,1
97,0.11522,1.2068,-1,1
98,0.11641,1.2037,-1,1
99,0.11761,1.2028,-1,1
100,0.11882,1.2037,-1,1
101,0.12003,1.2044,-1,1
102,0.12122,1.2031,-1,1
103,0.1224,1.1997,-1,1
104,0.12358,1.196,-1,1
105,0.12477,1.1936,-1,1
106,0.12596,1.1936,-1,1
107,0.12716,1.1946,-1,1
108,0.12835,1.1943,-1,1
109,0.12952,1.1915,-1,1
110,0.13069,1.1873,-1,1
111,0.13186,1.1839,-1,1
112,0.13305,1.1828,-1,1
113,0.13423,1.1832,-1,1
114,0.13542,1.1836,-1,1
115,0.13659,1.1819,-1,1
116,0.13775,1.1781,-1,1
117,0.14006,1.1744,-1,1
118,0.14123,1.1728,-1,1
119,0.14241,1.1729,-1,1
120,0.14357,1.1726,-1,1
121,0.14472,1.1706,-1,1
122,0.14587,1.1667,-1,1
123,0.14701,1.1624,-1,1
124,0.14816,1.1593,-1,1
125,0.14933,1.1587,-1,1
126,0.15049,1.1583,-1,1
127,0.15278,1.1563,-1,1
128,0.15392,1.1526,-1,1
129,0.15506,1.149,-1,1
130,0.15621,1.1473,-1,1
131,0.15736,1.1477,-1,1
132,0.15852,1.149,-1,1
133,0.15966,1.1494,-1,1
134,0.1608,1.1477,-1,1
135,0.16193,1.1441,-1,1
136,0.16306,1.1429,-1,1
137,0.16535,1.1436,-1,1
138,0.1665,1.1446,-1,1
139,0.16763,1.1441,-1,1
140,0.16875,1.1417,-1,1
141,0.16987,1.138,-1,1
142,0.171,1.135,-1,1
143,0.17213,1.1337,-1,1
144,0.17327,1.1342,-1,1
145,0.17441,1.1351,-1,1
146,0.17554,1.1324,-1,1
147,0.17665,1.1288,-1,1
148,0.17888,1.1262,-1,1
149,0.18001,1.1257,-1,1
150,0.18001,1.1272,-1,1
151,0.18115,1.1289,-1,1
152,0.18229,1.1299,-1,1
153,0.18342,1.1293,-1,1
154,0.18453,1.1271,-1,1
155,0.18565,1.1248,-1,1
156,0.18677,1.127,-1,1
157,0.18791,1.1303,-1,1
158,0.18905,1.1328,-1,1
159,0.19133,1.1331,-1,1
160,0.19246,1.1317,-1,1
161,0.19246,1.1306,-1,1
162,0.19358,1.1295,-1,1
163,0.19472,1.1304,-1,1
164,0.19587,1.1338,-1,1
165,0.19703,1.1382,-1,1
166,0.19818,1.1396,-1,1
167,0.19932,1.1391,-1,1
168,0.20045,1.1382,-1,1
169,0.20159,1.1391,-1,1
170,0.20392,1.1435,-1,1
171,0.2051,1.1484,-1,1
172,0.2051,1.1528,-1,1
173,0.20626,1.156,-1,1
174,0.20743,1.1571,-1,1
175,0.20859,1.1574,-1,1
176,0.20976,1.1594,-1,1
177,0.21095,1.1643,-1,1
178,0.21215,1.1711,-1,1
179,0.21336,1.1772,-1,1
180,0.21456,1.1801,-1,1
181,0.21696,1.183,-1,1
182,0.21817,1.1874,-1,1
183,0.21817,1.1936,-1,1
184,0.22064,1.2011,-1,1
185,0.22188,1.2089,-1,1
186,0.22312,1.2152,-1,1
187,0.22435,1.2196,-1,1
188,0.22559,1.2236,-1,1
189,0.22685,1.2291,-1,1
190,0.22812,1.2362,-1,1
191,0.22939,1.2435,-1,1
192,0.23067,1.2495,-1,1
193,0.23194,1.2537,-1,1
194,0.23322,1.2576,-1,1
195,0.23451,1.2626,-1,1
196,0.23581,1.2697,-1,1
197,0.23713,1.2778,-1,1
198,0.23844,1.2849,-1,1
199,0.23976,1.2908,-1,1
200,0.24108,1.2961,-1,1
201,0.24241,1.3019,-1,1
202,0.24376,1.3094,-1,1
203,0.24512,1.3178,-1,1
204,0.24648,1.326,-1,1
205,0.24784,1.3332,-1,1
206,0.24921,1.3395,-1,1
207,0.25059,1.346,-1,1
208,0.25198,1.3539,-1,1
209,0.25338,1.3624,-1,1
210,0.25479,1.3709,-1,1
211,0.2562,1.3785,-1,1
212,0.25762,1.3856,-1,1
213,0.25905,1.3931,-1,1
214,0.26049,1.4016,-1,1
215,0.26194,1.4105,-1,1
216,0.2634,1.4192,-1,1
217,0.26486,1.4275,-1,1
218,0.26634,1.4357,-1,1
219,0.26782,1.4442,-1,1
220,0.26932,1.4529,-1,1
221,0.27082,1.4618,-1,1
222,0.27232,1.4703,-1,1
223,0.27384,1.4789,-1,1
224,0.27536,1.4868,-1,1
225,0.27689,1.495,-1,1
226,0.27843,1.5029,-1,1
227,0.27997,1.5109,-1,1
228,0.28152,1.5185,-1,1
229,0.28308,1.5258,-1,1
230,0.28465,1.5329,-1,1
231,0.28622,1.5399,-1,1
232,0.28779,1.547,-1,1
233,0.28938,1.5537,-1,1
234,0.29097,1.5605,-1,1
235,0.29256,1.5669,-1,1
236,0.29416,1.5733,-1,1
237,0.29577,1.5795,-1,1
238,0.29738,1.5856,-1,1
239,0.299,1.5914,-1,1
240,0.30062,1.597,-1,1
241,0.30224,1.6027,-1,1
242,0.30388,1.6084,-1,1
243,0.30551,1.6135,-1,1
244,0.30715,1.6183,-1,1
245,0.30879,1.623,-1,1
246,0.31044,1.6279,-1,1
247,0.3121,1.6329,-1,1
248,0.31376,1.6378,-1,1
249,0.31542,1.6425,-1,1
250,0.31709,1.6467,-1,1
251,0.31875,1.6508,-1,1
252,0.32043,1.6553,-1,1
253,0.32211,1.6598,-1,1
254,0.32379,1.6642,-1,1
255,0.32548,1.6681,-1,1
256,0.32716,1.6717,-1,1
257,0.32885,1.6753,-1,1
258,0.33055,1.6788,-1,1
259,0.33225,1.6822,-1,1
260,0.33394,1.6858,-1,1
261,0.33564,1.6892,-1,1
262,0.33735,1.6919,-1,1
263,0.33905,1.6944,-1,1
264,0.34076,1.697,-1,1
265,0.34247,1.6998,-1,1
266,0.34419,1.7029,-1,1
267,0.3459,1.7053,-1,1
268,0.34762,1.7072,-1,1
269,0.34933,1.7091,-1,1
270,0.35105,1.711,-1,1
271,0.35277,1.7127,-1,1
272,0.35449,1.7138,-1,1
273,0.3562,1.7147,-1,1
274,0.35792,1.7154,-1,1
275,0.36136,1.7165,-1,1
276,0.36308,1.7168,-1,1
277,0.36479,1.7168,-1,1
278,0.36651,1.7171,-1,1
279,0.36823,1.7175,-1,1
280,0.36995,1.7179,-1,1
281,0.37167,1.7181,-1,1
282,0.37339,1.7183,-1,1
283,0.37511,1.7187,-1,1
284,0.37683,1.7193,-1,1
285,0.37855,1.7191,-1,1
286,0.38027,1.7193,-1,1
287,0.38371,1.7201,-1,1
288,0.38543,1.7206,-1,1
289,0.38543,1.7208,-1,1
290,0.38716,1.7209,-1,1
291,0.3906,1.7211,-1,1
292,0.39232,1.7217,-1,1
293,0.39405,1.7222,-1,1
294,0.39577,1.7224,-1,1
295,0.3975,1.7232,-1,1
296,0.39923,1.724,-1,1
297,0.40096,1.7246,-1,1
298,0.40268,1.725,-1,1
299,0.40441,1.7255,-1,1
300,0.40614,1.7261,-1,1
301,0.40787,1.7268,-1,1
302,0.4096,1.7277,-1,1
303,0.41133,1.7285,-1,1
304,0.41479,1.7293,-1,1
305,0.41653,1.7299,-1,1
306,0.41826,1.7303,-1,1
307,0.41999,1.7303,-1,1
308,0.42172,1.7304,-1,1
309,0.42345,1.7307,-1,1
310,0.42518,1.7309,-1,1
311,0.42691,1.731,-1,1
312,0.42864,1.7306,-1,1
313,0.43037,1.7304,-1,1
314,0.4321,1.7302,-1,1
315,0.43383,1.7298,-1,1
316,0.43555,1.7293,-1,1
317,0.43728,1.7292,-1,1
318,0.43901,1.729,-1,1
319,0.44073,1.7286,-1,1
320,0.44246,1.7282,-1,1
321,0.44419,1.7277,-1,1
322,0.44591,1.7272,-1,1
323,0.44763,1.7267,-1,1
324,0.44936,1.7261,-1,1
325,0.45108,1.7253,-1,1
326,0.4528,1.7246,-1,1
327,0.45452,1.724,-1,1
328,0.45624,1.7235,-1,1
329,0.45796,1.7227,-1,1
330,0.45968,1.7215,-1,1
331,0.46139,1.7205,-1,1
332,0.46311,1.72,-1,1
333,0.46483,1.7192,-1,1
334,0.46654,1.7183,-1,1
335,0.46825,1.717,-1,1
336,0.46996,1.716,-1,1
337,0.47167,1.7149,-1,1
338,0.47338,1.7137,-1,1
339,0.47509,1.7124,-1,1
340,0.47679,1.7111,-1,1
341,0.47849,1.7095,-1,1
342,0.48019,1.7078,-1,1
343,0.48189,1.7059,-1,1
344,0.48358,1.704,-1,1
345,0.48528,1.7026,-1,1
346,0.48697,1.7005,-1,1
347,0.48865,1.6983,-1,1
348,0.49034,1.6961,-1,1
349,0.49203,1.6939,-1,1
350,0.49371,1.6919,-1,1
351,0.49538,1.6897,-1,1
352,0.49706,1.687,-1,1
353,0.49873,1.6844,-1,1
354,0.5004,1.682,-1,1
355,0.50207,1.6796,-1,1
356,0.50374,1.6773,-1,1
357,0.5054,1.6742,-1,1
358,0.50705,1.671,-1,1
359,0.50871,1.6682,-1,1
360,0.51036,1.6656,-1,1
361,0.51201,1.663,-1,1
362,0.51366,1.6602,-1,1
363,0.5153,1.6572,-1,1
364,0.51694,1.6542,-1,1
365,0.51858,1.6512,-1,1
366,0.52022,1.6481,-1,1
367,0.52185,1.6452,-1,1
368,0.52348,1.6427,-1,1
369,0.52511,1.6401,-1,1
370,0.52673,1.637,-1,1
371,0.52835,1.6339,-1,1
372,0.52997,1.6307,-1,1
373,0.53158,1.6278,-1,1
374,0.5332,1.6251,-1,1
375,0.53481,1.622,-1,1
376,0.53641,1.6189,-1,1
377,0.53801,1.616,-1,1
378,0.53961,1.6129,-1,1
379,0.54121,1.6098,-1,1
380,0.5428,1.6068,-1,1
381,0.54439,1.6034,-1,1
382,0.54597,1.6004,-1,1
383,0.54756,1.5977,-1,1
384,0.54914,1.5947,-1,1
385,0.55072,1.5917,-1,1
386,0.55229,1.5885,-1,1
387,0.55386,1.5854,-1,1
388,0.55543,1.5824,-1,1
389,0.557,1.5796,-1,1
390,0.55857,1.577,-1,1
391,0.56013,1.5743,-1,1
392,0.56168,1.5711,-1,1
393,0.56324,1.568,-1,1
394,0.56479,1.565,-1,1
395,0.56635,1.5624,-1,1
396,0.56789,1.5599,-1,1
397,0.56943,1.5569,-1,1
398,0.57097,1.5539,-1,1
399,0.57251,1.5507,-1,1
400,0.57405,1.5478,-1,1
401,0.57559,1.5455,-1,1
402,0.57711,1.5429,-1,1
403,0.57864,1.5397,-1,1
404,0.58016,1.5364,-1,1
405,0.58168,1.5337,-1,1
406,0.58321,1.5312,-1,1
407,0.58472,1.5288,-1,1
408,0.58623,1.5257,-1,1
409,0.58774,1.5226,-1,1
410,0.58925,1.5197,-1,1
411,0.59076,1.517,-1,1
412,0.59226,1.5146,-1,1
413,0.59376,1.512,-1,1
414,0.59525,1.5092,-1,1
415,0.59824,1.5065,-1,1
416,0.59974,1.5035,-1,1
417,0.60122,1.5006,-1,1
418,0.60271,1.4982,-1,1
419,0.60419,1.4955,-1,1
420,0.60567,1.4928,-1,1
421,0.60715,1.4902,-1,1
422,0.60863,1.4876,-1,1
423,0.6101,1.4851,-1,1
424,0.61157,1.483,-1,1
425,0.61304,1.4805,-1,1
426,0.61599,1.4783,-1,1
427,0.61745,1.4761,-1,1
428,0.61891,1.4737,-1,1
429,0.61891,1.4716,-1,1
430,0.62037,1.4692,-1,1
431,0.62184,1.4673,-1,1
432,0.6233,1.466,-1,1
433,0.62476,1.4648,-1,1
434,0.62621,1.4628,-1,1
435,0.62766,1.4603,-1,1
436,0.62911,1.4587,-1,1
437,0.63057,1.4576,-1,1
438,0.63347,1.4564,-1,1
439,0.63491,1.4547,-1,1
440,0.63491,1.4527,-1,1
441,0.63635,1.4503,-1,1
442,0.63779,1.4483,-1,1
443,0.63924,1.4467,-1,1
444,0.64068,1.4458,-1,1
445,0.64212,1.4444,-1,1
446,0.64499,1.4422,-1,1
447,0.64642,1.4401,-1,1
448,0.64785,1.4387,-1,1
449,0.64929,1.4376,-1,1
450,0.65072,1.4365,-1,1
451,0.65214,1.4353,-1,1
452,0.65357,1.4334,-1,1
453,0.65499,1.4313,-1,1
454,0.65641,1.4291,-1,1
455,0.65783,1.4276,-1,1
456,0.65925,1.4262,-1,1
457,0.66067,1.4247,-1,1
458,0.66208,1.4228,-1,1
459,0.66349,1.4207,-1,1
460,0.6649,1.4188,-1,1
461,0.66631,1.4166,-1,1
462,0.66772,1.415,-1,1
463,0.66912,1.4133,-1,1
464,0.67053,1.4115,-1,1
465,0.67332,1.4091,-1,1
466,0.67472,1.4068,-1,1
467,0.67611,1.4046,-1,1
468,0.67751,1.4025,-1,1
469,0.6789,1.4006,-1,1
470,0.68028,1.3983,-1,1
471,0.68167,1.3961,-1,1
472,0.68305,1.3937,-1,1
473,0.68444,1.3914,-1,1
474,0.68582,1.3891,-1,1
475,0.68719,1.387,-1,1
476,0.68857,1.3847,-1,1
477,0.68994,1.3822,-1,1
478,0.69268,1.3797,-1,1
479,0.69405,1.3773,-1,1
480,0.69541,1.3752,-1,1
481,0.69678,1.3731,-1,1
482,0.69814,1.3707,-1,1
483,0.69949,1.368,-1,1
484,0.70085,1.3656,-1,1
485,0.70221,1.3636,-1,1
486,0.70356,1.3617,-1,1
487,0.70491,1.3595,-1,1
488,0.70625,1.3573,-1,1
489,0.7076,1.3547,-1,1
490,0.70894,1.3523,-1,1
491,0.71028,1.3503,-1,1
492,0.71162,1.3481,-1,1
493,0.71295,1.3459,-1,1
494,0.71428,1.3434,-1,1
495,0.71562,1.341,-1,1
496,0.71694,1.3385,-1,1
497,0.71827,1.3364,-1,1
498,0.71959,1.334,-1,1
499,0.72091,1.3318,-1,1
500,0.72223,1.3292,-1,1
501,0.72354,1.3263,-1,1
502,0.72486,1.3239,-1,1
503,0.72617,1.322,-1,1
504,0.72748,1.3197,-1,1
505,0.72879,1.3171,-1,1
506,0.73009,1.3143,-1,1
507,0.73139,1.3115,-1,1
508,0.73268,1.3089,-1,1
509,0.73398,1.3067,-1,1
510,0.73528,1.3045,-1,1
511,0.73656,1.302,-1,1
512,0.73785,1.299,-1,1
513,0.73913,1.2959,-1,1
514,0.74041,1.293,-1,1
515,0.74169,1.2903,-1,1
516,0.74297,1.288,-1,1
517,0.74424,1.2853,-1,1
518,0.74551,1.2824,-1,1
519,0.74677,1.2791,-1,1
520,0.74804,1.276,-1,1
521,0.7493,1.273,-1,1
522,0.75055,1.27,-1,1
523,0.7518,1.2668,-1,1
524,0.75305,1.2637,-1,1
525,0.7543,1.2607,-1,1
526,0.75554,1.2572,-1,1
527,0.75678,1.2539,-1,1
528,0.75801,1.2505,-1,1
529,0.75925,1.247,-1,1
530,0.76047,1.2432,-1,1
531,0.7617,1.2396,-1,1
532,0.76414,1.236,-1,1
533,0.76535,1.232,-1,1
534,0.76655,1.2276,-1,1
535,0.76776,1.2233,-1,1
536,0.76896,1.2192,-1,1
537,0.77016,1.2152,-1,1
538,0.77135,1.2113,-1,1
539,0.77254,1.2066,-1,1
540,0.77373,1.2021,-1,1
541,0.77609,1.1976,-1,1
542,0.77726,1.1933,-1,1
543,0.77843,1.1891,-1,1
544,0.77959,1.185,-1,1
545,0.78075,1.1805,-1,1
546,0.78191,1.1761,-1,1
547,0.78306,1.1713,-1,1
548,0.78421,1.1667,-1,1
549,0.78536,1.1629,-1,1
550,0.7865,1.159,-1,1
551,0.78876,1.1542,-1,1
552,0.78989,1.1495,-1,1
553,0.79102,1.145,-1,1
554,0.79214,1.1407,-1,1
555,0.79325,1.1361,-1,1
556,0.79436,1.1313,-1,1
557,0.79547,1.1268,-1,1
558,0.79657,1.122,-1,1
559,0.79766,1.1173,-1,1
560,0.79985,1.1124,-1,1
561,0.80094,1.108,-1,1
562,0.80202,1.1032,-1,1
563,0.80309,1.098,-1,1
564,0.80416,1.0929,-1,1
565,0.80523,1.0881,-1,1
566,0.80629,1.0838,-1,1
567,0.80735,1.0794,-1,1
568,0.80841,1.0752,-1,1
569,0.80946,1.0704,-1,1
570,0.81051,1.0656,-1,1
571,0.81154,1.0607,-1,1
572,0.81258,1.0562,-1,1
573,0.81361,1.0522,-1,1
574,0.81464,1.0484,-1,1
575,0.81567,1.0445,-1,1
576,0.81669,1.04,-1,1
577,0.81771,1.035,-1,1
578,0.81871,1.03,-1,1
579,0.81972,1.0256,-1,1
580,0.82072,1.0213,-1,1
581,0.82172,1.0176,-1,1
582,0.82272,1.0137,-1,1
583,0.82371,1.0094,-1,1
584,0.82469,1.0048,-1,1
585,0.82567,0.9998,-1,1
586,0.82664,0.9951,-1,1
587,0.82761,0.991,-1,1
588,0.82858,0.9871,-1,1
589,0.82955,0.9829,-1,1
590,0.83051,0.9788,-1,1
591,0.83146,0.9741,-1,1
592,0.83241,0.9696,-1,1
593,0.83336,0.9651,-1,1
594,0.8343,0.9605,-1,1
595,0.83523,0.9564,-1,1
596,0.83617,0.9523,-1,1
597,0.83709,0.9481,-1,1
598,0.83802,0.9437,-1,1
599,0.83894,0.9395,-1,1
600,0.83986,0.9352,-1,1
601,0.84077,0.9311,-1,1
602,0.84168,0.9268,-1,1
603,0.84258,0.9228,-1,1
604,0.84348,0.9188,-1,1
605,0.84438,0.9145,-1,1
606,0.84527,0.9101,-1,1
607,0.84616,0.906,-1,1
608,0.84704,0.902,-1,1
609,0.84792,0.8979,-1,1
610,0.8488,0.8938,-1,1
611,0.84967,0.8894,-1,1
612,0.85053,0.885,-1,1
613,0.85139,0.8805,-1,1
614,0.85225,0.8763,-1,1
615,0.8531,0.8724,-1,1
616,0.85395,0.8686,-1,1
617,0.8548,0.8645,-1,1
618,0.85564,0.8602,-1,1
619,0.85648,0.856,-1,1
620,0.85731,0.8517,-1,1
621,0.85814,0.8476,-1,1
622,0.85896,0.8435,-1,1
623,0.85978,0.8395,-1,1
624,0.8606,0.8353,-1,1
625,0.86141,0.8312,-1,1
626,0.86222,0.8271,-1,1
627,0.86303,0.823,-1,1
628,0.86383,0.819,-1,1
629,0.86463,0.8149,-1,1
630,0.86542,0.8109,-1,1
631,0.86621,0.807,-1,1
632,0.86699,0.8031,-1,1
633,0.86777,0.7989,-1,1
634,0.86855,0.7948,-1,1
635,0.86932,0.791,-1,1
636,0.8701,0.7873,-1,1
637,0.87087,0.7838,-1,1
638,0.87163,0.78,-1,1
639,0.87239,0.7759,-1,1
640,0.87314,0.7718,-1,1
641,0.87389,0.768,-1,1
642,0.87464,0.7643,-1,1
643,0.87538,0.7611,-1,1
644,0.87613,0.7579,-1,1
645,0.87687,0.7543,-1,1
646,0.8776,0.7504,-1,1
647,0.87833,0.7466,-1,1
648,0.87906,0.7432,-1,1
649,0.87979,0.7401,-1,1
650,0.88051,0.7373,-1,1
651,0.88123,0.7343,-1,1
652,0.88266,0.731,-1,1
653,0.88338,0.7277,-1,1
654,0.88409,0.7248,-1,1
655,0.8848,0.7221,-1,1
656,0.88551,0.7196,-1,1
657,0.88622,0.717,-1,1
658,0.88692,0.7144,-1,1
659,0.88763,0.7122,-1,1
660,0.88833,0.71,-1,1
661,0.88903,0.7084,-1,1
662,0.88973,0.707,-1,1
663,0.89113,0.7055,-1,1
664,0.89183,0.704,-1,1
665,0.89253,0.703,-1,1
666,0.89324,0.7024,-1,1
667,0.89394,0.7021,-1,1
668,0.89464,0.702,-1,1
669,0.89535,0.7018,-1,1
670,0.89605,0.7018,-1,1
671,0.89675,0.7018,-1,1
672,0.89746,0.7023,-1,1
673,0.89817,0.7033,-1,1
674,0.89888,0.7044,-1,1
675,0.89959,0.7054,-1,1
676,0.9003,0.7064,-1,1
677,0.90102,0.7076,-1,1
678,0.90174,0.7096,-1,1
679,0.90247,0.7119,-1,1
680,0.90319,0.7146,-1,1
681,0.90393,0.7173,-1,1
682,0.90466,0.7198,-1,1
683,0.90539,0.7223,-1,1
684,0.90613,0.7253,-1,1
685,0.90688,0.7287,-1,1
686,0.90763,0.7327,-1,1
687,0.90838,0.7368,-1,1
688,0.90914,0.7402,-1,1
689,0.90991,0.7442,-1,1
690,0.91068,0.7484,-1,1
691,0.91146,0.7531,-1,1
692,0.91224,0.7585,-1,1
693,0.91303,0.7639,-1,1
694,0.91382,0.7689,-1,1
695,0.91461,0.7738,-1,1
696,0.91542,0.7787,-1,1
697,0.91623,0.7842,-1,1
698,0.91705,0.7905,-1,1
699,0.91788,0.7968,-1,1
700,0.91871,0.8029,-1,1
701,0.91955,0.8087,-1,1
702,0.92039,0.8145,-1,1
703,0.92124,0.8209,-1,1
704,0.9221,0.8278,-1,1
705,0.92296,0.835,-1,1
706,0.92384,0.8422,-1,1
707,0.92472,0.8491,-1,1
708,0.92561,0.8561,-1,1
709,0.92651,0.8634,-1,1
710,0.92742,0.871,-1,1
711,0.92833,0.8786,-1,1
712,0.92925,0.8861,-1,1
713,0.93017,0.8936,-1,1
714,0.93111,0.9014,-1,1
715,0.93206,0.9098,-1,1
716,0.93302,0.9183,-1,1
717,0.93399,0.9268,-1,1
718,0.93496,0.9349,-1,1
719,0.93594,0.9427,-1,1
720,0.93692,0.9505,-1,1
721,0.93792,0.959,-1,1
722,0.93893,0.9679,-1,1
723,0.93994,0.977,-1,1
724,0.94097,0.9863,-1,1
725,0.94201,0.9949,-1,1
726,0.94305,1.0034,-1,1
727,0.9441,1.0117,-1,1
728,0.94516,1.0202,-1,1
729,0.94623,1.0288,-1,1
730,0.9473,1.0379,-1,1
731,0.94839,1.047,-1,1
732,0.94949,1.0564,-1,1
733,0.9506,1.0657,-1,1
734,0.95172,1.0741,-1,1
735,0.95283,1.082,-1,1
736,0.95395,1.0895,-1,1
737,0.95508,1.0976,-1,1
738,0.95622,1.1063,-1,1
739,0.95738,1.1156,-1,1
740,0.95855,1.1246,-1,1
741,0.95972,1.1328,-1,1
742,0.96089,1.1394,-1,1
743,0.96206,1.1454,-1,1
744,0.96323,1.1517,-1,1
745,0.96443,1.1595,-1,1
746,0.96563,1.1682,-1,1
747,0.96685,1.1768,-1,1
748,0.96806,1.1836,-1,1
749,0.96927,1.1886,-1,1
750,0.97048,1.193,-1,1
751,0.9717,1.198,-1,1
752,0.97294,1.2054,-1,1
753,0.97419,1.2135,-1,1
754,0.97544,1.2211,-1,1
755,0.97669,1.2261,-1,1
756,0.97793,1.2297,-1,1
757,0.97918,1.2327,-1,1
758,0.98044,1.238,-1,1
759,0.98172,1.2449,-1,1
760,0.983,1.2522,-1,1
761,0.98428,1.2579,-1,1
762,0.98555,1.2607,-1,1
763,0.98682,1.2625,-1,1
764,0.9881,1.2656,-1,1
765,0.9894,1.2711,-1,1
766,0.99071,1.2777,-1,1
767,0.99201,1.2834,-1,1
768,0.9933,1.2862,-1,1
769,0.99459,1.2874,-1,1
770,0.99589,1.2888,-1,1
771,0.9972,1.2937,-1,1
772,0.99985,1.2993,-1,1
773,0.99985,1.304,-1,1
774,1.00248,1.3064,-1,1
775,1.00379,1.3078,-1,1
776,1.00511,1.3094,-1,1
777,1.00645,1.3127,-1,1
778,1.00779,1.317,-1,1
779,1.00913,1.3209,-1,1
780,1.01178,1.324,-1,1
781,1.01178,1.3249,-1,1
782,1.01312,1.326,-1,1
783,1.01446,1.3287,-1,1
784,1.01581,1.3328,-1,1
785,1.01851,1.3362,-1,1
786,1.01985,1.3383,-1,1
787,1.0212,1.3396,-1,1
788,1.02255,1.341,-1,1
789,1.0239,1.3434,-1,1
790,1.02526,1.3458,-1,1
791,1.02661,1.3481,-1,1
792,1.02797,1.3506,-1,1
793,1.02934,1.3526,-1,1
794,1.0307,1.3539,-1,1
795,1.03206,1.3552,-1,1
796,1.03478,1.3567,-1,1
797,1.03614,1.3586,-1,1
798,1.03751,1.3608,-1,1
799,1.03888,1.3626,-1,1
800,1.04025,1.3637,-1,1
801,1.04161,1.364,-1,1
802,1.04297,1.3642,-1,1
803,1.04434,1.3647,-1,1
804,1.04572,1.366,-1,1
805,1.04709,1.3675,-1,1
806,1.04846,1.3684,-1,1
807,1.04982,1.3681,-1,1
808,1.05119,1.3672,-1,1
809,1.05256,1.3671,-1,1
810,1.05393,1.3682,-1,1
811,1.05531,1.37,-1,1
812,1.05668,1.3711,-1,1
813,1.05942,1.3708,-1,1
814,1.05942,1.3701,-1,1
815,1.06215,1.3697,-1,1
816,1.06353,1.3705,-1,1
817,1.06491,1.3716,-1,1
818,1.06628,1.3725,-1,1
819,1.06765,1.3723,-1,1
820,1.06901,1.3714,-1,1
821,1.07038,1.3706,-1,1
822,1.07175,1.3704,-1,1
823,1.0745,1.3713,-1,1
824,1.0745,1.3717,-1,1
825,1.07587,1.3715,-1,1
826,1.07861,1.3703,-1,1
827,1.07997,1.3692,-1,1
828,1.08134,1.3688,-1,1
829,1.08271,1.3693,-1,1
830,1.08408,1.37,-1,1
831,1.08545,1.3698,-1,1
832,1.08682,1.3691,-1,1
833,1.08817,1.3676,-1,1
834,1.08954,1.3665,-1,1
835,1.0909,1.3662,-1,1
836,1.09227,1.3668,-1,1
837,1.09364,1.3671,-1,1
838,1.095,1.3664,-1,1
839,1.09636,1.3646,-1,1
