cnt,pos,speed,Dir,Force,
1,0,1.0019,-1,1
2,0.00101995,1.0048,-1,1
3,0.00203991,1.0075,-1,1
4,0.00304985,1.0096,-1,1
5,0.00407004,1.0109,-1,1
6,0.00507998,1.0115,-1,1
7,0.00609994,1.0128,-1,1
8,0.00711989,1.0148,-1,1
9,0.00814986,1.0173,-1,1
10,0.00917983,1.0194,-1,1
11,0.0102,1.0206,-1,1
12,0.01123,1.0211,-1,1
13,0.0122499,1.0214,-1,1
14,0.0132699,1.022,-1,1
15,0.0142999,1.023,-1,1
16,0.0153298,1.0247,-1,1
17,0.01636,1.0265,-1,1
18,0.0174,1.028,-1,1
19,0.01843,1.0283,-1,1
20,0.01946,1.0279,-1,1
21,0.0204799,1.0277,-1,1
22,0.0215099,1.0279,-1,1
23,0.0225399,1.0286,-1,1
24,0.0235698,1.0299,-1,1
25,0.02461,1.031,-1,1
26,0.02564,1.0314,-1,1
27,0.02667,1.031,-1,1
28,0.0276999,1.0301,-1,1
29,0.0287199,1.0291,-1,1
30,0.0297399,1.0288,-1,1
31,0.0307798,1.0299,-1,1
32,0.03284,1.0308,-1,1
33,0.03284,1.0308,-1,1
34,0.03387,1.0295,-1,1
35,0.0349,1.0282,-1,1
36,0.0359199,1.0269,-1,1
37,0.0369399,1.0259,-1,1
38,0.0379598,1.0256,-1,1
39,0.03899,1.0262,-1,1
40,0.04002,1.0265,-1,1
41,0.0420699,1.0252,-1,1
42,0.0430799,1.0235,-1,1
43,0.0441,1.0221,-1,1
44,0.04512,1.0214,-1,1
45,0.04614,1.0211,-1,1
46,0.0471599,1.021,-1,1
47,0.0481799,1.021,-1,1
48,0.04919,1.0204,-1,1
49,0.05021,1.0189,-1,1
50,0.0512199,1.0172,-1,1
51,0.0532398,1.0155,-1,1
52,0.05425,1.0147,-1,1
53,0.0552599,1.0143,-1,1
54,0.0562699,1.0139,-1,1
55,0.0572798,1.0131,-1,1
56,0.05829,1.0119,-1,1
57,0.0592899,1.0102,-1,1
58,0.0602999,1.0085,-1,1
59,0.0613,1.0072,-1,1
60,0.06229,1.0061,-1,1
61,0.0632999,1.006,-1,1
62,0.0642998,1.0056,-1,1
63,0.06531,1.0049,-1,1
64,0.0663099,1.0038,-1,1
65,0.0672998,1.002,-1,1
66,0.0683,1.0005,-1,1
67,0.0692899,0.9998,-1,1
68,0.0702899,0.9994,-1,1
69,0.07129,0.9994,-1,1
70,0.0722899,0.9991,-1,1
71,0.07427,0.9979,-1,1
72,0.0752599,0.9964,-1,1
73,0.0762498,0.9951,-1,1
74,0.07725,0.9942,-1,1
75,0.0782399,0.9942,-1,1
76,0.0792298,0.9942,-1,1
77,0.08022,0.9936,-1,1
78,0.0812099,0.9928,-1,1
79,0.0822001,0.9916,-1,1
80,0.08319,0.9907,-1,1
81,0.08516,0.99,-1,1
82,0.0861499,0.9895,-1,1
83,0.0871298,0.989,-1,1
84,0.08812,0.9887,-1,1
85,0.0891099,0.9879,-1,1
86,0.09009,0.9871,-1,1
87,0.0910699,0.9863,-1,1
88,0.0920599,0.9856,-1,1
89,0.09304,0.9848,-1,1
90,0.0940199,0.9842,-1,1
91,0.095,0.9838,-1,1
92,0.0959799,0.9836,-1,1
93,0.0969698,0.9834,-1,1
94,0.09795,0.9825,-1,1
95,0.0989199,0.9817,-1,1
96,0.0999,0.9807,-1,1
97,0.10087,0.9801,-1,1
98,0.10185,0.9796,-1,1
99,0.10283,0.9794,-1,1
100,0.10381,0.9792,-1,1
101,0.10576,0.9783,-1,1
102,0.10673,0.9771,-1,1
103,0.1077,0.9758,-1,1
104,0.10867,0.9748,-1,1
105,0.10964,0.9741,-1,1
106,0.11061,0.9737,-1,1
107,0.11158,0.9733,-1,1
108,0.11255,0.9723,-1,1
109,0.11351,0.9709,-1,1
110,0.11448,0.9691,-1,1
111,0.11544,0.9681,-1,1
112,0.1164,0.9673,-1,1
113,0.11737,0.9665,-1,1
114,0.11833,0.9656,-1,1
115,0.11928,0.9643,-1,1
116,0.12024,0.9629,-1,1
117,0.1212,0.9612,-1,1
118,0.12215,0.9599,-1,1
119,0.12311,0.959,-1,1
120,0.12406,0.9584,-1,1
121,0.12501,0.9574,-1,1
122,0.12692,0.9559,-1,1
123,0.12786,0.9544,-1,1
124,0.12881,0.953,-1,1
125,0.12976,0.952,-1,1
126,0.13071,0.9512,-1,1
127,0.13165,0.9503,-1,1
128,0.13259,0.9492,-1,1
129,0.13353,0.9477,-1,1
130,0.13448,0.9464,-1,1
131,0.13542,0.9452,-1,1
132,0.13636,0.9445,-1,1
133,0.1373,0.943,-1,1
134,0.13917,0.9421,-1,1
135,0.1401,0.941,-1,1
136,0.1401,0.9396,-1,1
137,0.14104,0.9382,-1,1
138,0.14197,0.9371,-1,1
139,0.1429,0.9361,-1,1
140,0.14383,0.9348,-1,1
141,0.14476,0.9337,-1,1
142,0.14569,0.9324,-1,1
143,0.14755,0.9319,-1,1
144,0.14847,0.9307,-1,1
145,0.1494,0.9295,-1,1
146,0.15032,0.9282,-1,1
147,0.15124,0.9272,-1,1
148,0.15216,0.926,-1,1
149,0.15308,0.9251,-1,1
150,0.154,0.9244,-1,1
151,0.15493,0.9235,-1,1
152,0.15584,0.9226,-1,1
153,0.15676,0.9214,-1,1
154,0.15859,0.9203,-1,1
155,0.15951,0.9191,-1,1
156,0.16042,0.9179,-1,1
157,0.16133,0.9166,-1,1
158,0.16223,0.9154,-1,1
159,0.16314,0.9143,-1,1
160,0.16405,0.9129,-1,1
161,0.16496,0.9113,-1,1
162,0.16586,0.9096,-1,1
163,0.16676,0.9081,-1,1
164,0.16766,0.9066,-1,1
165,0.16856,0.9052,-1,1
166,0.16946,0.9039,-1,1
167,0.17035,0.9026,-1,1
168,0.17125,0.9013,-1,1
169,0.17214,0.8998,-1,1
170,0.17304,0.8983,-1,1
171,0.17393,0.897,-1,1
172,0.17482,0.8956,-1,1
173,0.1757,0.8939,-1,1
174,0.17658,0.8923,-1,1
175,0.17835,0.8908,-1,1
176,0.17923,0.8893,-1,1
177,0.18011,0.8876,-1,1
178,0.18099,0.8859,-1,1
179,0.18187,0.8841,-1,1
180,0.18274,0.8823,-1,1
181,0.18362,0.8803,-1,1
182,0.18449,0.8785,-1,1
183,0.18536,0.877,-1,1
184,0.18622,0.8753,-1,1
185,0.18709,0.8737,-1,1
186,0.18796,0.8721,-1,1
187,0.18882,0.8706,-1,1
188,0.18968,0.8688,-1,1
189,0.19054,0.867,-1,1
190,0.1914,0.8652,-1,1
191,0.19225,0.8635,-1,1
192,0.1931,0.8618,-1,1
193,0.19395,0.8599,-1,1
194,0.1948,0.8582,-1,1
195,0.19565,0.8562,-1,1
196,0.1965,0.8544,-1,1
197,0.19735,0.8525,-1,1
198,0.19819,0.8506,-1,1
199,0.19902,0.8484,-1,1
200,0.19986,0.8463,-1,1
201,0.20069,0.8443,-1,1
202,0.20153,0.8423,-1,1
203,0.20236,0.8403,-1,1
204,0.20319,0.838,-1,1
205,0.20484,0.8358,-1,1
206,0.20566,0.8333,-1,1
207,0.20648,0.8308,-1,1
208,0.20729,0.8281,-1,1
209,0.20811,0.8256,-1,1
210,0.20892,0.823,-1,1
211,0.20973,0.8206,-1,1
212,0.21054,0.8183,-1,1
213,0.21135,0.8161,-1,1
214,0.21215,0.8137,-1,1
215,0.21295,0.8112,-1,1
216,0.21454,0.8084,-1,1
217,0.21534,0.8057,-1,1
218,0.21613,0.8032,-1,1
219,0.21691,0.8005,-1,1
220,0.21769,0.7978,-1,1
221,0.21848,0.7953,-1,1
222,0.21926,0.7926,-1,1
223,0.22004,0.7899,-1,1
224,0.22082,0.7872,-1,1
225,0.22159,0.7842,-1,1
226,0.22236,0.7815,-1,1
227,0.22312,0.7787,-1,1
228,0.22389,0.7763,-1,1
229,0.22465,0.7739,-1,1
230,0.22541,0.7714,-1,1
231,0.22616,0.7684,-1,1
232,0.22692,0.7655,-1,1
233,0.22767,0.7626,-1,1
234,0.22842,0.7601,-1,1
235,0.22917,0.7577,-1,1
236,0.22991,0.7549,-1,1
237,0.23138,0.7517,-1,1
238,0.23211,0.7482,-1,1
239,0.23284,0.7452,-1,1
240,0.23357,0.7421,-1,1
241,0.23429,0.7391,-1,1
242,0.23502,0.7361,-1,1
243,0.23574,0.7327,-1,1
244,0.23645,0.729,-1,1
245,0.23716,0.7255,-1,1
246,0.23787,0.7225,-1,1
247,0.23858,0.72,-1,1
248,0.23928,0.717,-1,1
249,0.24068,0.7133,-1,1
250,0.24137,0.7101,-1,1
251,0.24207,0.7069,-1,1
252,0.24276,0.7038,-1,1
253,0.24276,0.7007,-1,1
254,0.24345,0.698,-1,1
255,0.24413,0.6951,-1,1
256,0.24481,0.6918,-1,1
257,0.24548,0.6886,-1,1
258,0.24615,0.6858,-1,1
259,0.2475,0.6833,-1,1
260,0.24816,0.6801,-1,1
261,0.24882,0.6768,-1,1
262,0.24947,0.6731,-1,1
263,0.25013,0.6699,-1,1
264,0.25078,0.6666,-1,1
265,0.25143,0.6633,-1,1
266,0.25208,0.6603,-1,1
267,0.25272,0.657,-1,1
268,0.25336,0.6534,-1,1
269,0.25399,0.6499,-1,1
270,0.25462,0.6465,-1,1
271,0.25588,0.6429,-1,1
272,0.2565,0.6396,-1,1
273,0.25712,0.636,-1,1
274,0.25774,0.6322,-1,1
275,0.25835,0.6284,-1,1
276,0.25896,0.6247,-1,1
277,0.25956,0.621,-1,1
278,0.26017,0.6177,-1,1
279,0.26077,0.6142,-1,1
280,0.26136,0.6108,-1,1
281,0.26195,0.6075,-1,1
282,0.26254,0.6041,-1,1
283,0.26313,0.6006,-1,1
284,0.26371,0.5971,-1,1
285,0.26429,0.5937,-1,1
286,0.26486,0.5903,-1,1
287,0.26543,0.587,-1,1
288,0.266,0.5836,-1,1
289,0.26657,0.5802,-1,1
290,0.26713,0.5765,-1,1
291,0.26824,0.5728,-1,1
292,0.26879,0.569,-1,1
293,0.26934,0.5654,-1,1
294,0.26988,0.5617,-1,1
295,0.27043,0.558,-1,1
296,0.27096,0.5541,-1,1
297,0.2715,0.5502,-1,1
298,0.27203,0.5464,-1,1
299,0.27255,0.5425,-1,1
300,0.27308,0.5387,-1,1
301,0.2736,0.535,-1,1
302,0.27463,0.5312,-1,1
303,0.27514,0.5274,-1,1
304,0.27514,0.5238,-1,1
305,0.27565,0.5205,-1,1
306,0.27615,0.5171,-1,1
307,0.27665,0.5136,-1,1
308,0.27714,0.51,-1,1
309,0.27764,0.5066,-1,1
310,0.27812,0.5035,-1,1
311,0.27861,0.5002,-1,1
312,0.27909,0.4972,-1,1
313,0.28005,0.494,-1,1
314,0.28052,0.4905,-1,1
315,0.28099,0.4866,-1,1
316,0.28146,0.483,-1,1
317,0.28192,0.4794,-1,1
318,0.28238,0.4759,-1,1
319,0.28284,0.4724,-1,1
320,0.2833,0.469,-1,1
321,0.28375,0.4654,-1,1
322,0.28464,0.4615,-1,1
323,0.28508,0.4579,-1,1
324,0.28552,0.4545,-1,1
325,0.28596,0.4512,-1,1
326,0.28639,0.448,-1,1
327,0.28682,0.4448,-1,1
328,0.28725,0.4417,-1,1
329,0.28768,0.4387,-1,1
330,0.2881,0.4356,-1,1
331,0.28852,0.4328,-1,1
332,0.28894,0.4303,-1,1
333,0.28936,0.4278,-1,1
334,0.28977,0.4254,-1,1
335,0.29019,0.4229,-1,1
336,0.29059,0.4202,-1,1
337,0.291,0.4177,-1,1
338,0.2914,0.4152,-1,1
339,0.29181,0.4127,-1,1
340,0.2922,0.4102,-1,1
341,0.2926,0.4078,-1,1
342,0.293,0.4053,-1,1
343,0.29378,0.4026,-1,1
344,0.29417,0.4,-1,1
345,0.29455,0.3976,-1,1
346,0.29494,0.3953,-1,1
347,0.29532,0.393,-1,1
348,0.2957,0.3907,-1,1
349,0.29608,0.3885,-1,1
350,0.29646,0.3863,-1,1
351,0.29684,0.3843,-1,1
352,0.29721,0.3825,-1,1
353,0.29759,0.381,-1,1
354,0.29796,0.3793,-1,1
355,0.29833,0.3775,-1,1
356,0.29907,0.3759,-1,1
357,0.29907,0.3743,-1,1
358,0.29944,0.3728,-1,1
359,0.2998,0.3714,-1,1
360,0.30017,0.3702,-1,1
361,0.30053,0.3687,-1,1
362,0.30089,0.3672,-1,1
363,0.30125,0.3657,-1,1
364,0.30161,0.3644,-1,1
365,0.30197,0.3632,-1,1
366,0.30268,0.3619,-1,1
367,0.30304,0.3607,-1,1
368,0.30339,0.3595,-1,1
369,0.30375,0.3582,-1,1
370,0.3041,0.357,-1,1
371,0.30445,0.3558,-1,1
372,0.3048,0.3549,-1,1
373,0.30515,0.354,-1,1
374,0.3055,0.3531,-1,1
375,0.30585,0.3522,-1,1
376,0.30655,0.3514,-1,1
377,0.30689,0.3506,-1,1
378,0.30724,0.3499,-1,1
379,0.30758,0.3491,-1,1
380,0.30793,0.3483,-1,1
381,0.30827,0.3477,-1,1
382,0.30862,0.3469,-1,1
383,0.30896,0.3462,-1,1
384,0.30931,0.3456,-1,1
385,0.30965,0.3451,-1,1
386,0.30999,0.3445,-1,1
387,0.31033,0.344,-1,1
388,0.31067,0.3435,-1,1
389,0.31102,0.3433,-1,1
390,0.31136,0.343,-1,1
391,0.3117,0.3427,-1,1
392,0.31204,0.3424,-1,1
393,0.31238,0.3422,-1,1
394,0.31272,0.342,-1,1
395,0.31307,0.342,-1,1
396,0.31341,0.342,-1,1
397,0.31375,0.342,-1,1
398,0.31444,0.3421,-1,1
399,0.31444,0.3422,-1,1
400,0.31512,0.3425,-1,1
401,0.31547,0.3426,-1,1
402,0.31581,0.3429,-1,1
403,0.31581,0.3431,-1,1
404,0.3165,0.3434,-1,1
405,0.31685,0.3436,-1,1
406,0.31719,0.3439,-1,1
407,0.31754,0.3442,-1,1
408,0.31788,0.3445,-1,1
409,0.31823,0.3447,-1,1
410,0.31857,0.345,-1,1
411,0.31892,0.3456,-1,1
412,0.31927,0.346,-1,1
413,0.31962,0.3464,-1,1
414,0.31997,0.3468,-1,1
415,0.32032,0.3473,-1,1
416,0.32067,0.3479,-1,1
417,0.32102,0.3486,-1,1
418,0.32172,0.3491,-1,1
419,0.32208,0.3496,-1,1
420,0.32243,0.3502,-1,1
421,0.32243,0.3509,-1,1
422,0.32278,0.3516,-1,1
423,0.32314,0.3523,-1,1
424,0.32349,0.3528,-1,1
425,0.32385,0.3533,-1,1
426,0.32456,0.354,-1,1
427,0.32492,0.3546,-1,1
428,0.32528,0.3553,-1,1
429,0.32564,0.356,-1,1
430,0.32599,0.3563,-1,1
431,0.32635,0.3569,-1,1
432,0.32672,0.3576,-1,1
433,0.32708,0.3581,-1,1
434,0.32744,0.3588,-1,1
435,0.3278,0.3595,-1,1
436,0.32853,0.3603,-1,1
437,0.32889,0.3611,-1,1
438,0.32926,0.3617,-1,1
439,0.32962,0.3623,-1,1
440,0.32999,0.3632,-1,1
441,0.33035,0.3638,-1,1
442,0.33072,0.3645,-1,1
443,0.33109,0.3654,-1,1
444,0.33146,0.3661,-1,1
445,0.33183,0.3668,-1,1
446,0.3322,0.3674,-1,1
447,0.33257,0.368,-1,1
448,0.33295,0.3689,-1,1
449,0.33332,0.3699,-1,1
450,0.33369,0.3708,-1,1
451,0.33407,0.3718,-1,1
452,0.33482,0.3727,-1,1
453,0.3352,0.3737,-1,1
454,0.33558,0.3748,-1,1
455,0.33558,0.3759,-1,1
456,0.33634,0.3769,-1,1
457,0.33673,0.3781,-1,1
458,0.33711,0.3792,-1,1
459,0.3375,0.3803,-1,1
460,0.33788,0.3813,-1,1
461,0.33827,0.3824,-1,1
462,0.33866,0.3835,-1,1
463,0.33905,0.3847,-1,1
464,0.33944,0.386,-1,1
465,0.33983,0.3872,-1,1
466,0.34023,0.3884,-1,1
467,0.34062,0.3897,-1,1
468,0.34102,0.3911,-1,1
469,0.34142,0.3926,-1,1
470,0.34222,0.3942,-1,1
471,0.34262,0.3956,-1,1
472,0.34262,0.3971,-1,1
473,0.34303,0.3984,-1,1
474,0.34343,0.3998,-1,1
475,0.34384,0.4014,-1,1
476,0.34425,0.4029,-1,1
477,0.34466,0.4044,-1,1
478,0.34549,0.406,-1,1
479,0.3459,0.4074,-1,1
480,0.34632,0.4091,-1,1
481,0.34674,0.4108,-1,1
482,0.34716,0.4125,-1,1
483,0.34758,0.4142,-1,1
484,0.348,0.416,-1,1
485,0.34843,0.4178,-1,1
486,0.34886,0.4197,-1,1
487,0.34929,0.4214,-1,1
488,0.34972,0.423,-1,1
489,0.35015,0.425,-1,1
490,0.35102,0.4268,-1,1
491,0.35146,0.4286,-1,1
492,0.3519,0.4306,-1,1
493,0.35234,0.4327,-1,1
494,0.35278,0.4345,-1,1
495,0.35323,0.4365,-1,1
496,0.35367,0.4382,-1,1
497,0.35412,0.4401,-1,1
498,0.35457,0.4422,-1,1
499,0.35502,0.444,-1,1
500,0.35548,0.4457,-1,1
501,0.35593,0.4474,-1,1
502,0.35639,0.4489,-1,1
503,0.35684,0.4505,-1,1
504,0.3573,0.4523,-1,1
505,0.35777,0.4538,-1,1
506,0.35823,0.4556,-1,1
507,0.35869,0.4572,-1,1
508,0.35916,0.4587,-1,1
509,0.35963,0.4605,-1,1
510,0.36057,0.4622,-1,1
511,0.36104,0.4639,-1,1
512,0.36151,0.4656,-1,1
513,0.36198,0.467,-1,1
514,0.36246,0.4684,-1,1
515,0.36293,0.4701,-1,1
516,0.36341,0.4718,-1,1
517,0.3639,0.4734,-1,1
518,0.36438,0.4749,-1,1
519,0.36486,0.4762,-1,1
520,0.36534,0.4776,-1,1
521,0.36632,0.4794,-1,1
522,0.36681,0.4812,-1,1
523,0.3673,0.4832,-1,1
524,0.36779,0.485,-1,1
525,0.36829,0.4866,-1,1
526,0.36878,0.4882,-1,1
527,0.36928,0.49,-1,1
528,0.36978,0.4919,-1,1
529,0.37028,0.4935,-1,1
530,0.37078,0.4953,-1,1
531,0.37129,0.4967,-1,1
532,0.37179,0.4984,-1,1
533,0.37281,0.5002,-1,1
534,0.37332,0.5022,-1,1
535,0.37384,0.5042,-1,1
536,0.37435,0.5063,-1,1
537,0.37487,0.5083,-1,1
538,0.37539,0.5104,-1,1
539,0.37591,0.5127,-1,1
540,0.37644,0.5148,-1,1
541,0.37696,0.517,-1,1
542,0.37749,0.519,-1,1
543,0.37802,0.5212,-1,1
544,0.37909,0.5235,-1,1
545,0.37909,0.5258,-1,1
546,0.37962,0.528,-1,1
547,0.38016,0.5301,-1,1
548,0.3807,0.5321,-1,1
549,0.38125,0.5342,-1,1
550,0.38179,0.5364,-1,1
551,0.3829,0.5394,-1,1
552,0.38345,0.5423,-1,1
553,0.38401,0.5449,-1,1
554,0.38457,0.5472,-1,1
555,0.38513,0.5496,-1,1
556,0.38569,0.552,-1,1
557,0.38626,0.555,-1,1
558,0.38683,0.5578,-1,1
559,0.3874,0.561,-1,1
560,0.38798,0.564,-1,1
561,0.38913,0.5664,-1,1
562,0.38972,0.5689,-1,1
563,0.3903,0.5717,-1,1
564,0.39089,0.5748,-1,1
565,0.39148,0.5781,-1,1
566,0.39208,0.5813,-1,1
567,0.39268,0.584,-1,1
568,0.39327,0.5869,-1,1
569,0.39387,0.5894,-1,1
570,0.39448,0.5923,-1,1
571,0.39509,0.5953,-1,1
572,0.3957,0.5982,-1,1
573,0.39692,0.601,-1,1
574,0.39692,0.604,-1,1
575,0.39817,0.6069,-1,1
576,0.39879,0.6101,-1,1
577,0.39942,0.6134,-1,1
578,0.40005,0.6168,-1,1
579,0.40069,0.6202,-1,1
580,0.40132,0.6235,-1,1
581,0.40197,0.6267,-1,1
582,0.40261,0.63,-1,1
583,0.40326,0.6334,-1,1
584,0.40391,0.6366,-1,1
585,0.40456,0.6398,-1,1
586,0.40522,0.6428,-1,1
587,0.40588,0.6461,-1,1
588,0.40655,0.6496,-1,1
589,0.40722,0.6533,-1,1
590,0.40789,0.6571,-1,1
591,0.40857,0.6606,-1,1
592,0.40925,0.6641,-1,1
593,0.40993,0.6674,-1,1
594,0.41062,0.6715,-1,1
595,0.41201,0.6757,-1,1
596,0.41271,0.6799,-1,1
597,0.41341,0.6841,-1,1
598,0.41412,0.6881,-1,1
599,0.41483,0.6923,-1,1
600,0.41555,0.6966,-1,1
601,0.41627,0.7011,-1,1
602,0.41699,0.7057,-1,1
603,0.41772,0.7103,-1,1
604,0.41845,0.7143,-1,1
605,0.41993,0.7187,-1,1
606,0.42068,0.7234,-1,1
607,0.42143,0.7281,-1,1
608,0.42218,0.7329,-1,1
609,0.42294,0.7374,-1,1
610,0.4237,0.7419,-1,1
611,0.42447,0.7466,-1,1
612,0.42524,0.7511,-1,1
613,0.42602,0.756,-1,1
614,0.4268,0.7608,-1,1
615,0.42758,0.7651,-1,1
616,0.42837,0.7693,-1,1
617,0.42916,0.7734,-1,1
618,0.42995,0.7776,-1,1
619,0.43076,0.7821,-1,1
620,0.43156,0.7868,-1,1
621,0.43237,0.7912,-1,1
622,0.43319,0.7959,-1,1
623,0.43482,0.8005,-1,1
624,0.43565,0.8052,-1,1
625,0.43648,0.8098,-1,1
626,0.43731,0.8142,-1,1
627,0.43815,0.8185,-1,1
628,0.43899,0.8229,-1,1
629,0.43983,0.8272,-1,1
630,0.44069,0.8312,-1,1
631,0.44154,0.8351,-1,1
632,0.44239,0.8388,-1,1
633,0.44325,0.8422,-1,1
634,0.44411,0.8455,-1,1
635,0.44497,0.8494,-1,1
636,0.44584,0.8534,-1,1
637,0.44759,0.8572,-1,1
638,0.44759,0.8607,-1,1
639,0.44846,0.8641,-1,1
640,0.44934,0.8671,-1,1
641,0.45022,0.8703,-1,1
642,0.45111,0.8735,-1,1
643,0.452,0.8767,-1,1
644,0.45378,0.88,-1,1
645,0.45467,0.8829,-1,1
646,0.45558,0.8858,-1,1
647,0.45648,0.8885,-1,1
648,0.45738,0.8909,-1,1
649,0.45828,0.8934,-1,1
650,0.4601,0.8965,-1,1
651,0.46101,0.8992,-1,1
652,0.46101,0.9019,-1,1
653,0.46284,0.9047,-1,1
654,0.46376,0.9073,-1,1
655,0.46468,0.9097,-1,1
656,0.46561,0.912,-1,1
657,0.46653,0.9143,-1,1
658,0.46745,0.9168,-1,1
659,0.46838,0.919,-1,1
660,0.46931,0.9209,-1,1
661,0.47024,0.9233,-1,1
662,0.47118,0.9252,-1,1
663,0.47211,0.9269,-1,1
664,0.47305,0.9287,-1,1
665,0.47398,0.9303,-1,1
666,0.47493,0.9321,-1,1
667,0.47587,0.9338,-1,1
668,0.47681,0.9352,-1,1
669,0.47775,0.9367,-1,1
670,0.47869,0.9384,-1,1
671,0.47964,0.9397,-1,1
672,0.48153,0.9411,-1,1
673,0.48153,0.9426,-1,1
674,0.48343,0.9439,-1,1
675,0.48438,0.9452,-1,1
676,0.48533,0.9459,-1,1
677,0.48628,0.947,-1,1
678,0.48723,0.9481,-1,1
679,0.48818,0.9493,-1,1
680,0.48914,0.95,-1,1
681,0.49009,0.9508,-1,1
682,0.49105,0.9516,-1,1
683,0.492,0.9524,-1,1
684,0.49391,0.953,-1,1
685,0.49487,0.9536,-1,1
686,0.49583,0.9542,-1,1
687,0.49678,0.9549,-1,1
688,0.49774,0.9557,-1,1
689,0.4987,0.9563,-1,1
690,0.49966,0.9567,-1,1
691,0.50062,0.957,-1,1
692,0.50157,0.9572,-1,1
693,0.50253,0.9574,-1,1
694,0.50349,0.9577,-1,1
695,0.50445,0.9579,-1,1
696,0.50541,0.9583,-1,1
697,0.50637,0.9584,-1,1
698,0.50828,0.9584,-1,1
699,0.50924,0.958,-1,1
700,0.5102,0.9578,-1,1
701,0.51115,0.9579,-1,1
702,0.51211,0.9581,-1,1
703,0.51307,0.9582,-1,1
704,0.51403,0.9577,-1,1
705,0.51498,0.9573,-1,1
706,0.51593,0.9568,-1,1
707,0.51689,0.9564,-1,1
708,0.51784,0.9559,-1,1
709,0.51975,0.9557,-1,1
710,0.5207,0.9554,-1,1
711,0.52166,0.9548,-1,1
712,0.52261,0.9539,-1,1
713,0.52356,0.953,-1,1
714,0.5245,0.9524,-1,1
715,0.52545,0.9518,-1,1
716,0.5264,0.9513,-1,1
717,0.52735,0.9506,-1,1
718,0.5283,0.9499,-1,1
719,0.52924,0.9488,-1,1
720,0.53018,0.9479,-1,1
721,0.53113,0.9469,-1,1
722,0.53207,0.946,-1,1
723,0.533,0.9449,-1,1
724,0.53394,0.9439,-1,1
725,0.53582,0.9427,-1,1
726,0.53675,0.9413,-1,1
727,0.53769,0.9399,-1,1
728,0.53861,0.9381,-1,1
729,0.53954,0.9367,-1,1
730,0.54047,0.9351,-1,1
731,0.5414,0.9335,-1,1
732,0.54232,0.9319,-1,1
733,0.54324,0.9302,-1,1
734,0.54416,0.9285,-1,1
735,0.54508,0.9266,-1,1
736,0.546,0.9247,-1,1
737,0.54691,0.9223,-1,1
738,0.54782,0.9204,-1,1
739,0.54964,0.9181,-1,1
740,0.55054,0.9161,-1,1
741,0.55145,0.9138,-1,1
742,0.55145,0.9112,-1,1
743,0.55235,0.9088,-1,1
744,0.55324,0.9064,-1,1
745,0.55414,0.9041,-1,1
746,0.55592,0.9015,-1,1
747,0.55681,0.8991,-1,1
748,0.55769,0.8967,-1,1
749,0.55858,0.8944,-1,1
750,0.55946,0.8916,-1,1
751,0.56033,0.8888,-1,1
752,0.5612,0.8862,-1,1
753,0.56207,0.8834,-1,1
754,0.56294,0.8805,-1,1
755,0.56381,0.8776,-1,1
756,0.56467,0.8748,-1,1
757,0.56553,0.8716,-1,1
758,0.56638,0.8682,-1,1
759,0.56808,0.8648,-1,1
760,0.56893,0.8614,-1,1
761,0.56977,0.8582,-1,1
762,0.57061,0.8548,-1,1
763,0.57144,0.8513,-1,1
764,0.57228,0.8477,-1,1
765,0.57311,0.8442,-1,1
766,0.57393,0.8406,-1,1
767,0.57476,0.8375,-1,1
768,0.57557,0.8342,-1,1
769,0.57639,0.8309,-1,1
770,0.5772,0.8276,-1,1
771,0.57802,0.824,-1,1
772,0.57883,0.821,-1,1
773,0.57963,0.8179,-1,1
774,0.58043,0.8146,-1,1
775,0.58122,0.811,-1,1
776,0.58202,0.8077,-1,1
777,0.58281,0.8044,-1,1
778,0.58359,0.8014,-1,1
779,0.58438,0.7981,-1,1
780,0.58516,0.7949,-1,1
781,0.58594,0.7917,-1,1
782,0.58671,0.7883,-1,1
783,0.58748,0.7849,-1,1
784,0.58824,0.7816,-1,1
785,0.58901,0.7783,-1,1
786,0.58976,0.7746,-1,1
787,0.59052,0.771,-1,1
788,0.59127,0.7676,-1,1
789,0.59277,0.7639,-1,1
790,0.59351,0.7599,-1,1
791,0.59424,0.7559,-1,1
792,0.59497,0.7517,-1,1
793,0.59571,0.7478,-1,1
794,0.59643,0.7439,-1,1
795,0.59716,0.74,-1,1
796,0.59788,0.7364,-1,1
797,0.59859,0.7324,-1,1
798,0.5993,0.7282,-1,1
799,0.60001,0.7245,-1,1
800,0.60072,0.7207,-1,1
801,0.60142,0.7168,-1,1
802,0.60281,0.7131,-1,1
803,0.6035,0.7089,-1,1
804,0.60419,0.7049,-1,1
805,0.60419,0.7009,-1,1
806,0.60487,0.6972,-1,1
807,0.60555,0.694,-1,1
808,0.60623,0.6905,-1,1
809,0.6069,0.6869,-1,1
810,0.60757,0.6831,-1,1
811,0.60824,0.6797,-1,1
812,0.60956,0.6761,-1,1
813,0.61022,0.673,-1,1
814,0.61087,0.6696,-1,1
815,0.61152,0.6662,-1,1
816,0.61216,0.6623,-1,1
817,0.6128,0.6581,-1,1
818,0.61344,0.6541,-1,1
819,0.61407,0.6503,-1,1
820,0.61471,0.647,-1,1
821,0.61533,0.6434,-1,1
822,0.61596,0.6399,-1,1
823,0.6172,0.6359,-1,1
824,0.61781,0.632,-1,1
825,0.61842,0.6284,-1,1
826,0.61903,0.6248,-1,1
827,0.61963,0.6212,-1,1
828,0.62024,0.6177,-1,1
829,0.62083,0.6139,-1,1
830,0.62143,0.6102,-1,1
831,0.62202,0.6068,-1,1
832,0.62261,0.6033,-1,1
833,0.6232,0.6001,-1,1
834,0.62378,0.5971,-1,1
835,0.62436,0.5939,-1,1
836,0.62494,0.5908,-1,1
837,0.62551,0.5879,-1,1
838,0.62609,0.585,-1,1
839,0.62665,0.5822,-1,1
