cnt,pos,speed,Dir,Force,
1,0,1.007,-1,1
2,0.00100994,1.0076,-1,1
3,0.00201988,1.0083,-1,1
4,0.00302982,1.0086,-1,1
5,0.00404024,1.0087,-1,1
6,0.00505018,1.0091,-1,1
7,0.00606012,1.0095,-1,1
8,0.00707006,1.0099,-1,1
9,0.00808001,1.0106,-1,1
10,0.00909996,1.0111,-1,1
11,0.0101099,1.0115,-1,1
12,0.0111299,1.0119,-1,1
13,0.0121398,1.0119,-1,1
14,0.0131502,1.0118,-1,1
15,0.0141602,1.012,-1,1
16,0.0151701,1.0124,-1,1
17,0.0161901,1.013,-1,1
18,0.01721,1.0137,-1,1
19,0.0182199,1.0138,-1,1
20,0.0192399,1.0139,-1,1
21,0.0202498,1.0141,-1,1
22,0.0222802,1.0143,-1,1
23,0.0233002,1.0146,-1,1
24,0.0243201,1.0153,-1,1
25,0.0253401,1.016,-1,1
26,0.02636,1.0169,-1,1
27,0.02738,1.0176,-1,1
28,0.0283999,1.0176,-1,1
29,0.0294199,1.0177,-1,1
30,0.0304399,1.0181,-1,1
31,0.0314498,1.0185,-1,1
32,0.0324802,1.019,-1,1
33,0.0335002,1.02,-1,1
34,0.0345302,1.0207,-1,1
35,0.0355501,1.0211,-1,1
36,0.0365701,1.0211,-1,1
37,0.03759,1.0209,-1,1
38,0.03861,1.0212,-1,1
39,0.0396399,1.0219,-1,1
40,0.0406599,1.0228,-1,1
41,0.0416899,1.0238,-1,1
42,0.0427198,1.0245,-1,1
43,0.0437498,1.0245,-1,1
44,0.0447702,1.0246,-1,1
45,0.0458002,1.0249,-1,1
46,0.0468202,1.0254,-1,1
47,0.0478501,1.0264,-1,1
48,0.0488901,1.0274,-1,1
49,0.0499201,1.0283,-1,1
50,0.0509501,1.0287,-1,1
51,0.05198,1.0288,-1,1
52,0.05301,1.0289,-1,1
53,0.05404,1.0295,-1,1
54,0.0550699,1.0302,-1,1
55,0.0561099,1.0312,-1,1
56,0.0571499,1.0321,-1,1
57,0.0581799,1.0327,-1,1
58,0.0592198,1.033,-1,1
59,0.0602498,1.033,-1,1
60,0.0612803,1.0329,-1,1
61,0.0623202,1.0334,-1,1
62,0.0633502,1.0344,-1,1
63,0.0643902,1.0354,-1,1
64,0.0654402,1.0361,-1,1
65,0.0664701,1.0365,-1,1
66,0.0675101,1.0367,-1,1
67,0.0685501,1.037,-1,1
68,0.0695901,1.0374,-1,1
69,0.0706301,1.0381,-1,1
70,0.0716701,1.0392,-1,1
71,0.0727201,1.0403,-1,1
72,0.07377,1.0413,-1,1
73,0.07481,1.0418,-1,1
74,0.07586,1.0423,-1,1
75,0.0769,1.0425,-1,1
76,0.07794,1.043,-1,1
77,0.07899,1.0437,-1,1
78,0.08004,1.0449,-1,1
79,0.08109,1.0462,-1,1
80,0.08215,1.0474,-1,1
81,0.0832,1.0479,-1,1
82,0.08425,1.0478,-1,1
83,0.08529,1.0478,-1,1
84,0.08634,1.0483,-1,1
85,0.0874,1.0496,-1,1
86,0.08845,1.0511,-1,1
87,0.08951,1.0524,-1,1
88,0.09057,1.053,-1,1
89,0.09162,1.0532,-1,1
90,0.09268,1.0532,-1,1
91,0.09373,1.0538,-1,1
92,0.09479,1.0546,-1,1
93,0.09585,1.0561,-1,1
94,0.09691,1.0574,-1,1
95,0.09798,1.0583,-1,1
96,0.09904,1.0587,-1,1
97,0.1001,1.0589,-1,1
98,0.10116,1.0594,-1,1
99,0.10223,1.0603,-1,1
100,0.10329,1.0612,-1,1
101,0.10436,1.0623,-1,1
102,0.10543,1.0637,-1,1
103,0.1065,1.0644,-1,1
104,0.10756,1.0648,-1,1
105,0.10863,1.0649,-1,1
106,0.10969,1.0654,-1,1
107,0.11076,1.0665,-1,1
108,0.11184,1.0678,-1,1
109,0.11291,1.0687,-1,1
110,0.11506,1.0695,-1,1
111,0.11613,1.0699,-1,1
112,0.1172,1.0701,-1,1
113,0.11828,1.0707,-1,1
114,0.11935,1.0717,-1,1
115,0.12043,1.0733,-1,1
116,0.12151,1.0746,-1,1
117,0.12259,1.0753,-1,1
118,0.12367,1.0754,-1,1
119,0.12474,1.0756,-1,1
120,0.12582,1.0762,-1,1
121,0.1269,1.0772,-1,1
122,0.12799,1.0788,-1,1
123,0.12907,1.0799,-1,1
124,0.13016,1.0803,-1,1
125,0.13124,1.0803,-1,1
126,0.13232,1.0801,-1,1
127,0.1334,1.0803,-1,1
128,0.13449,1.0816,-1,1
129,0.13558,1.0835,-1,1
130,0.13667,1.0851,-1,1
131,0.13776,1.0859,-1,1
132,0.13885,1.0856,-1,1
133,0.13993,1.0858,-1,1
134,0.14211,1.087,-1,1
135,0.14321,1.0887,-1,1
136,0.14431,1.0909,-1,1
137,0.14541,1.0925,-1,1
138,0.1465,1.0928,-1,1
139,0.14759,1.0922,-1,1
140,0.14868,1.0919,-1,1
141,0.14977,1.0926,-1,1
142,0.15088,1.0944,-1,1
143,0.15198,1.0963,-1,1
144,0.15308,1.0973,-1,1
145,0.15418,1.0972,-1,1
146,0.15527,1.0963,-1,1
147,0.15636,1.0958,-1,1
148,0.15746,1.0966,-1,1
149,0.15857,1.0987,-1,1
150,0.15969,1.1009,-1,1
151,0.16079,1.102,-1,1
152,0.16189,1.1018,-1,1
153,0.16299,1.1007,-1,1
154,0.16408,1.1,-1,1
155,0.16519,1.1006,-1,1
156,0.1663,1.1028,-1,1
157,0.16742,1.1054,-1,1
158,0.16853,1.107,-1,1
159,0.16964,1.1067,-1,1
160,0.17074,1.1052,-1,1
161,0.17183,1.104,-1,1
162,0.17294,1.1045,-1,1
163,0.17406,1.1067,-1,1
164,0.17518,1.1094,-1,1
165,0.1763,1.1111,-1,1
166,0.17741,1.111,-1,1
167,0.17851,1.1094,-1,1
168,0.17961,1.1079,-1,1
169,0.18072,1.1081,-1,1
170,0.18184,1.1105,-1,1
171,0.18297,1.1137,-1,1
172,0.1841,1.1158,-1,1
173,0.18522,1.1159,-1,1
174,0.18633,1.1146,-1,1
175,0.18743,1.1133,-1,1
176,0.18855,1.1133,-1,1
177,0.18967,1.1155,-1,1
178,0.1908,1.119,-1,1
179,0.19194,1.1217,-1,1
180,0.19306,1.1221,-1,1
181,0.19418,1.1209,-1,1
182,0.19529,1.1194,-1,1
183,0.19641,1.1193,-1,1
184,0.19754,1.1213,-1,1
185,0.19868,1.1246,-1,1
186,0.19982,1.1275,-1,1
187,0.20096,1.1286,-1,1
188,0.20208,1.1275,-1,1
189,0.2032,1.1258,-1,1
190,0.20432,1.1255,-1,1
191,0.20546,1.1275,-1,1
192,0.2066,1.1311,-1,1
193,0.20775,1.1343,-1,1
194,0.2089,1.1356,-1,1
195,0.21003,1.1342,-1,1
196,0.21228,1.1329,-1,1
197,0.21343,1.1334,-1,1
198,0.21458,1.1366,-1,1
199,0.21574,1.1406,-1,1
200,0.21689,1.1435,-1,1
201,0.21803,1.144,-1,1
202,0.21917,1.1428,-1,1
203,0.22031,1.1417,-1,1
204,0.22146,1.1427,-1,1
205,0.22262,1.1467,-1,1
206,0.22379,1.1494,-1,1
207,0.22494,1.15,-1,1
208,0.22723,1.1489,-1,1
209,0.22839,1.1486,-1,1
210,0.22839,1.1504,-1,1
211,0.22956,1.1536,-1,1
212,0.23073,1.1573,-1,1
213,0.2319,1.1602,-1,1
214,0.23306,1.1607,-1,1
215,0.23421,1.1598,-1,1
216,0.23537,1.1615,-1,1
217,0.23772,1.1648,-1,1
218,0.2389,1.1682,-1,1
219,0.24007,1.1698,-1,1
220,0.24124,1.1696,-1,1
221,0.24241,1.1692,-1,1
222,0.24241,1.1697,-1,1
223,0.24359,1.1708,-1,1
224,0.24477,1.1733,-1,1
225,0.24596,1.1763,-1,1
226,0.24714,1.1776,-1,1
227,0.24832,1.1777,-1,1
228,0.2495,1.1781,-1,1
229,0.25069,1.1799,-1,1
230,0.25307,1.1824,-1,1
231,0.25427,1.1852,-1,1
232,0.25427,1.187,-1,1
233,0.25546,1.1885,-1,1
234,0.25665,1.1895,-1,1
235,0.25785,1.1902,-1,1
236,0.25904,1.1913,-1,1
237,0.26024,1.1931,-1,1
238,0.26145,1.1954,-1,1
239,0.26386,1.1971,-1,1
240,0.26507,1.1984,-1,1
241,0.26627,1.1991,-1,1
242,0.26748,1.2002,-1,1
243,0.26869,1.2023,-1,1
244,0.26991,1.2048,-1,1
245,0.27113,1.2076,-1,1
246,0.27235,1.2099,-1,1
247,0.27357,1.2116,-1,1
248,0.27478,1.2126,-1,1
249,0.276,1.214,-1,1
250,0.27723,1.2164,-1,1
251,0.27846,1.2192,-1,1
252,0.2797,1.2217,-1,1
253,0.28092,1.2233,-1,1
254,0.28215,1.2242,-1,1
255,0.28338,1.2248,-1,1
256,0.28462,1.2264,-1,1
257,0.28586,1.2291,-1,1
258,0.2871,1.2319,-1,1
259,0.28834,1.2341,-1,1
260,0.28958,1.2351,-1,1
261,0.29082,1.2359,-1,1
262,0.29207,1.2371,-1,1
263,0.29332,1.2392,-1,1
264,0.29457,1.2419,-1,1
265,0.29583,1.2444,-1,1
266,0.29708,1.246,-1,1
267,0.29833,1.2469,-1,1
268,0.29958,1.2482,-1,1
269,0.30085,1.2502,-1,1
270,0.30211,1.2528,-1,1
271,0.30338,1.2552,-1,1
272,0.30464,1.2571,-1,1
273,0.3059,1.2584,-1,1
274,0.30717,1.2599,-1,1
275,0.30845,1.2621,-1,1
276,0.30972,1.2646,-1,1
277,0.311,1.2669,-1,1
278,0.31227,1.2685,-1,1
279,0.31355,1.27,-1,1
280,0.31483,1.272,-1,1
281,0.31612,1.2741,-1,1
282,0.31741,1.2765,-1,1
283,0.31869,1.2789,-1,1
284,0.31998,1.2811,-1,1
285,0.32257,1.2833,-1,1
286,0.32387,1.2856,-1,1
287,0.32516,1.2881,-1,1
288,0.32646,1.2908,-1,1
289,0.32777,1.2932,-1,1
290,0.32907,1.2952,-1,1
291,0.33038,1.2977,-1,1
292,0.33169,1.3004,-1,1
293,0.33301,1.3031,-1,1
294,0.33564,1.3054,-1,1
295,0.33696,1.3075,-1,1
296,0.33828,1.3098,-1,1
297,0.3396,1.3124,-1,1
298,0.34093,1.3154,-1,1
299,0.34226,1.3182,-1,1
300,0.34359,1.3206,-1,1
301,0.34492,1.3226,-1,1
302,0.34626,1.3248,-1,1
303,0.3476,1.3276,-1,1
304,0.34895,1.3307,-1,1
305,0.35029,1.3334,-1,1
306,0.35163,1.3356,-1,1
307,0.35298,1.3376,-1,1
308,0.35433,1.3396,-1,1
309,0.35569,1.3422,-1,1
310,0.35704,1.3452,-1,1
311,0.3584,1.3481,-1,1
312,0.35976,1.3503,-1,1
313,0.36112,1.3519,-1,1
314,0.36248,1.3538,-1,1
315,0.36385,1.3563,-1,1
316,0.36523,1.3592,-1,1
317,0.3666,1.362,-1,1
318,0.36797,1.3643,-1,1
319,0.36935,1.3663,-1,1
320,0.37073,1.3685,-1,1
321,0.37212,1.3712,-1,1
322,0.3735,1.3742,-1,1
323,0.37489,1.377,-1,1
324,0.37628,1.3793,-1,1
325,0.37767,1.3814,-1,1
326,0.37906,1.3838,-1,1
327,0.38047,1.3866,-1,1
328,0.38187,1.3893,-1,1
329,0.38326,1.3916,-1,1
330,0.38467,1.3937,-1,1
331,0.38607,1.3959,-1,1
332,0.38749,1.3983,-1,1
333,0.3889,1.4012,-1,1
334,0.39031,1.4036,-1,1
335,0.39172,1.4056,-1,1
336,0.39314,1.4073,-1,1
337,0.39456,1.4095,-1,1
338,0.39599,1.4121,-1,1
339,0.39741,1.4149,-1,1
340,0.39884,1.4171,-1,1
341,0.40026,1.4182,-1,1
342,0.40169,1.4198,-1,1
343,0.40312,1.4218,-1,1
344,0.40456,1.4246,-1,1
345,0.406,1.427,-1,1
346,0.40743,1.4287,-1,1
347,0.40886,1.4297,-1,1
348,0.4103,1.4311,-1,1
349,0.41175,1.4332,-1,1
350,0.4132,1.4357,-1,1
351,0.41464,1.4383,-1,1
352,0.41608,1.4398,-1,1
353,0.41753,1.4407,-1,1
354,0.41898,1.4418,-1,1
355,0.42043,1.4438,-1,1
356,0.42189,1.4465,-1,1
357,0.42335,1.4487,-1,1
358,0.4248,1.45,-1,1
359,0.42626,1.4508,-1,1
360,0.42772,1.4519,-1,1
361,0.42918,1.4534,-1,1
362,0.43064,1.4551,-1,1
363,0.4321,1.4568,-1,1
364,0.43356,1.4582,-1,1
365,0.43503,1.4592,-1,1
366,0.4365,1.4601,-1,1
367,0.43796,1.4612,-1,1
368,0.43943,1.4623,-1,1
369,0.4409,1.4638,-1,1
370,0.44237,1.4651,-1,1
371,0.44384,1.4665,-1,1
372,0.44531,1.4677,-1,1
373,0.44678,1.4686,-1,1
374,0.44826,1.4693,-1,1
375,0.44973,1.4705,-1,1
376,0.45121,1.4717,-1,1
377,0.45269,1.473,-1,1
378,0.45416,1.4741,-1,1
379,0.45564,1.4747,-1,1
380,0.45712,1.4751,-1,1
381,0.4586,1.4759,-1,1
382,0.46009,1.4772,-1,1
383,0.46156,1.478,-1,1
384,0.46304,1.4787,-1,1
385,0.46452,1.479,-1,1
386,0.46601,1.4795,-1,1
387,0.46749,1.4803,-1,1
388,0.46898,1.4812,-1,1
389,0.47046,1.4815,-1,1
390,0.47194,1.4821,-1,1
391,0.47492,1.483,-1,1
392,0.4764,1.4829,-1,1
393,0.47788,1.4831,-1,1
394,0.47936,1.4835,-1,1
395,0.48085,1.4844,-1,1
396,0.48235,1.4851,-1,1
397,0.48383,1.4852,-1,1
398,0.48531,1.4845,-1,1
399,0.48679,1.4846,-1,1
400,0.48828,1.485,-1,1
401,0.48977,1.4853,-1,1
402,0.49274,1.485,-1,1
403,0.49422,1.4844,-1,1
404,0.4957,1.4844,-1,1
405,0.49719,1.4844,-1,1
406,0.49868,1.4847,-1,1
407,0.50016,1.4842,-1,1
408,0.50164,1.4841,-1,1
409,0.50312,1.4836,-1,1
410,0.5046,1.4831,-1,1
411,0.50609,1.4825,-1,1
412,0.50757,1.4832,-1,1
413,0.50905,1.4832,-1,1
414,0.51052,1.4824,-1,1
415,0.512,1.4812,-1,1
416,0.51348,1.4798,-1,1
417,0.51496,1.4797,-1,1
418,0.51644,1.4798,-1,1
419,0.51791,1.4798,-1,1
420,0.51939,1.479,-1,1
421,0.52086,1.4775,-1,1
422,0.52233,1.4759,-1,1
423,0.52381,1.4755,-1,1
424,0.52528,1.4751,-1,1
425,0.52675,1.4747,-1,1
426,0.52822,1.474,-1,1
427,0.52969,1.4726,-1,1
428,0.53115,1.4712,-1,1
429,0.53261,1.47,-1,1
430,0.53408,1.4692,-1,1
431,0.53555,1.4688,-1,1
432,0.53702,1.4686,-1,1
433,0.53848,1.4678,-1,1
434,0.53994,1.4663,-1,1
435,0.5414,1.4646,-1,1
436,0.54286,1.4636,-1,1
437,0.54432,1.4634,-1,1
438,0.54579,1.4635,-1,1
439,0.54724,1.4629,-1,1
440,0.5487,1.4613,-1,1
441,0.55015,1.4598,-1,1
442,0.55161,1.459,-1,1
443,0.55307,1.459,-1,1
444,0.55453,1.4594,-1,1
445,0.55598,1.4588,-1,1
446,0.55743,1.4575,-1,1
447,0.55889,1.4565,-1,1
448,0.56035,1.4561,-1,1
449,0.56181,1.4563,-1,1
450,0.56326,1.4568,-1,1
451,0.56471,1.4564,-1,1
452,0.56617,1.4554,-1,1
453,0.56762,1.4549,-1,1
454,0.56908,1.4551,-1,1
455,0.57054,1.4556,-1,1
456,0.57199,1.4557,-1,1
457,0.57344,1.4553,-1,1
458,0.5749,1.4551,-1,1
459,0.57636,1.4554,-1,1
460,0.57782,1.4558,-1,1
461,0.57927,1.4561,-1,1
462,0.58073,1.4561,-1,1
463,0.58218,1.4562,-1,1
464,0.58365,1.4565,-1,1
465,0.58511,1.4574,-1,1
466,0.58657,1.458,-1,1
467,0.58802,1.4578,-1,1
468,0.58947,1.4574,-1,1
469,0.59094,1.4575,-1,1
470,0.5924,1.4583,-1,1
471,0.59387,1.4594,-1,1
472,0.59532,1.4597,-1,1
473,0.59678,1.4589,-1,1
474,0.59823,1.4581,-1,1
475,0.5997,1.4583,-1,1
476,0.60117,1.4596,-1,1
477,0.60263,1.4608,-1,1
478,0.60408,1.4607,-1,1
479,0.60554,1.4597,-1,1
480,0.60699,1.4589,-1,1
481,0.60846,1.459,-1,1
482,0.60993,1.4602,-1,1
483,0.61139,1.4611,-1,1
484,0.61284,1.4606,-1,1
485,0.61429,1.4595,-1,1
486,0.61576,1.4588,-1,1
487,0.61722,1.4589,-1,1
488,0.61868,1.4595,-1,1
489,0.62013,1.4595,-1,1
490,0.62158,1.4594,-1,1
491,0.62304,1.4587,-1,1
492,0.62597,1.458,-1,1
493,0.62597,1.4573,-1,1
494,0.62887,1.4572,-1,1
495,0.63032,1.4573,-1,1
496,0.63178,1.457,-1,1
497,0.63324,1.4566,-1,1
498,0.6347,1.4561,-1,1
499,0.63615,1.4558,-1,1
500,0.6376,1.455,-1,1
501,0.63905,1.4548,-1,1
502,0.64051,1.4546,-1,1
503,0.64197,1.455,-1,1
504,0.64342,1.4551,-1,1
505,0.64487,1.4543,-1,1
506,0.64777,1.4539,-1,1
507,0.64923,1.4538,-1,1
508,0.65069,1.4539,-1,1
509,0.65214,1.454,-1,1
510,0.65358,1.4538,-1,1
511,0.65503,1.4532,-1,1
512,0.65649,1.4527,-1,1
513,0.65794,1.4527,-1,1
514,0.6594,1.453,-1,1
515,0.66085,1.453,-1,1
516,0.66229,1.452,-1,1
517,0.66374,1.4511,-1,1
518,0.66519,1.4508,-1,1
519,0.66665,1.4507,-1,1
520,0.66955,1.4507,-1,1
521,0.67099,1.4502,-1,1
522,0.67244,1.4495,-1,1
523,0.67388,1.4485,-1,1
524,0.67533,1.4479,-1,1
525,0.67678,1.4477,-1,1
526,0.67822,1.4475,-1,1
527,0.67967,1.4469,-1,1
528,0.68111,1.4461,-1,1
529,0.68255,1.4454,-1,1
530,0.68399,1.4446,-1,1
531,0.68543,1.444,-1,1
532,0.68687,1.4431,-1,1
533,0.68831,1.4423,-1,1
534,0.68974,1.4412,-1,1
535,0.69118,1.4402,-1,1
536,0.69261,1.439,-1,1
537,0.69405,1.4378,-1,1
538,0.69548,1.4368,-1,1
539,0.69691,1.4359,-1,1
540,0.69834,1.4348,-1,1
541,0.69977,1.4336,-1,1
542,0.70119,1.4324,-1,1
543,0.70262,1.431,-1,1
544,0.70404,1.4298,-1,1
545,0.70547,1.4287,-1,1
546,0.70689,1.4276,-1,1
547,0.70831,1.4264,-1,1
548,0.70973,1.4247,-1,1
549,0.71114,1.4229,-1,1
550,0.71256,1.4215,-1,1
551,0.71397,1.4202,-1,1
552,0.71538,1.4187,-1,1
553,0.71679,1.417,-1,1
554,0.71819,1.4151,-1,1
555,0.7196,1.4133,-1,1
556,0.721,1.4116,-1,1
557,0.7224,1.4097,-1,1
558,0.7238,1.4077,-1,1
559,0.7252,1.4058,-1,1
560,0.72659,1.4038,-1,1
561,0.72799,1.4017,-1,1
562,0.72938,1.4,-1,1
563,0.73077,1.398,-1,1
564,0.73215,1.3958,-1,1
565,0.73354,1.3934,-1,1
566,0.73492,1.3912,-1,1
567,0.7363,1.3894,-1,1
568,0.73768,1.3877,-1,1
569,0.73905,1.3855,-1,1
570,0.74042,1.383,-1,1
571,0.74179,1.3805,-1,1
572,0.74316,1.378,-1,1
573,0.74453,1.376,-1,1
574,0.74589,1.374,-1,1
575,0.74725,1.3719,-1,1
576,0.74861,1.3694,-1,1
577,0.74996,1.3664,-1,1
578,0.75131,1.3635,-1,1
579,0.75267,1.3615,-1,1
580,0.75402,1.3596,-1,1
581,0.75537,1.3575,-1,1
582,0.75671,1.3549,-1,1
583,0.75805,1.352,-1,1
584,0.75939,1.3494,-1,1
585,0.76072,1.3469,-1,1
586,0.76206,1.3448,-1,1
587,0.76339,1.3429,-1,1
588,0.76472,1.3406,-1,1
589,0.76605,1.3377,-1,1
590,0.76737,1.3349,-1,1
591,0.76869,1.3324,-1,1
592,0.77001,1.3303,-1,1
593,0.77133,1.3282,-1,1
594,0.77265,1.3259,-1,1
595,0.77396,1.3234,-1,1
596,0.77527,1.3207,-1,1
597,0.77657,1.318,-1,1
598,0.77788,1.3156,-1,1
599,0.77918,1.313,-1,1
600,0.78048,1.3107,-1,1
601,0.78177,1.3082,-1,1
602,0.78307,1.3055,-1,1
603,0.78436,1.3026,-1,1
604,0.78564,1.2997,-1,1
605,0.78693,1.2968,-1,1
606,0.78821,1.2941,-1,1
607,0.78949,1.2918,-1,1
608,0.79077,1.2892,-1,1
609,0.79204,1.2866,-1,1
610,0.79331,1.2834,-1,1
611,0.79458,1.2802,-1,1
612,0.79584,1.2774,-1,1
613,0.7971,1.2746,-1,1
614,0.79836,1.2722,-1,1
615,0.79962,1.2696,-1,1
616,0.80087,1.2667,-1,1
617,0.80212,1.2633,-1,1
618,0.80337,1.2602,-1,1
619,0.80462,1.2574,-1,1
620,0.80586,1.2547,-1,1
621,0.80709,1.252,-1,1
622,0.80833,1.2488,-1,1
623,0.81079,1.2457,-1,1
624,0.81202,1.2422,-1,1
625,0.81324,1.2389,-1,1
626,0.81446,1.2355,-1,1
627,0.81568,1.2321,-1,1
628,0.81689,1.2287,-1,1
629,0.8181,1.2254,-1,1
630,0.81931,1.2223,-1,1
631,0.82052,1.2188,-1,1
632,0.82172,1.2155,-1,1
633,0.82291,1.2121,-1,1
634,0.82411,1.2088,-1,1
635,0.8253,1.2059,-1,1
636,0.82649,1.2032,-1,1
637,0.82768,1.2002,-1,1
638,0.82886,1.1972,-1,1
639,0.83004,1.1935,-1,1
640,0.83121,1.1899,-1,1
641,0.83239,1.1869,-1,1
642,0.83356,1.184,-1,1
643,0.83473,1.1813,-1,1
644,0.83589,1.1784,-1,1
645,0.83705,1.1748,-1,1
646,0.8382,1.171,-1,1
647,0.83935,1.1676,-1,1
648,0.84051,1.1643,-1,1
649,0.84166,1.1619,-1,1
650,0.8428,1.1591,-1,1
651,0.84395,1.156,-1,1
652,0.84508,1.1523,-1,1
653,0.84621,1.1485,-1,1
654,0.84734,1.1449,-1,1
655,0.84847,1.1418,-1,1
656,0.84959,1.139,-1,1
657,0.85072,1.1363,-1,1
658,0.85184,1.1332,-1,1
659,0.85295,1.1293,-1,1
660,0.85406,1.1254,-1,1
661,0.85516,1.1218,-1,1
662,0.85627,1.1188,-1,1
663,0.85737,1.1161,-1,1
664,0.85847,1.1133,-1,1
665,0.85957,1.1102,-1,1
666,0.86066,1.1066,-1,1
667,0.86175,1.1027,-1,1
668,0.86283,1.099,-1,1
669,0.86391,1.0959,-1,1
670,0.86499,1.0934,-1,1
671,0.86607,1.0908,-1,1
672,0.86715,1.0879,-1,1
673,0.86821,1.0843,-1,1
674,0.86928,1.0808,-1,1
675,0.87034,1.0773,-1,1
676,0.8714,1.0744,-1,1
677,0.87246,1.0719,-1,1
678,0.87352,1.0694,-1,1
679,0.87458,1.0669,-1,1
680,0.87563,1.0639,-1,1
681,0.87668,1.0604,-1,1
682,0.87772,1.057,-1,1
683,0.87876,1.054,-1,1
684,0.87979,1.0513,-1,1
685,0.88083,1.0488,-1,1
686,0.88187,1.0463,-1,1
687,0.8829,1.0436,-1,1
688,0.88393,1.0409,-1,1
689,0.88496,1.0375,-1,1
690,0.88597,1.0343,-1,1
691,0.88699,1.0315,-1,1
692,0.88801,1.0291,-1,1
693,0.88903,1.027,-1,1
694,0.89004,1.0247,-1,1
695,0.89105,1.0221,-1,1
696,0.89206,1.0191,-1,1
697,0.89307,1.0163,-1,1
698,0.89407,1.0133,-1,1
699,0.89506,1.0108,-1,1
700,0.89606,1.0085,-1,1
701,0.89706,1.0064,-1,1
702,0.89805,1.0042,-1,1
703,0.89904,1.0011,-1,1
704,0.90003,0.9981,-1,1
705,0.90101,0.9954,-1,1
706,0.90199,0.9927,-1,1
707,0.90297,0.9899,-1,1
708,0.90395,0.9877,-1,1
709,0.90493,0.9855,-1,1
710,0.90687,0.983,-1,1
711,0.90784,0.98,-1,1
712,0.9088,0.9766,-1,1
713,0.90976,0.974,-1,1
714,0.91072,0.9714,-1,1
715,0.91168,0.969,-1,1
716,0.91264,0.9671,-1,1
717,0.9136,0.9651,-1,1
718,0.91455,0.9626,-1,1
719,0.9155,0.9597,-1,1
720,0.91644,0.9569,-1,1
721,0.91833,0.9543,-1,1
722,0.91927,0.9521,-1,1
723,0.92021,0.95,-1,1
724,0.92115,0.9481,-1,1
725,0.92209,0.946,-1,1
726,0.92302,0.9435,-1,1
727,0.92395,0.941,-1,1
728,0.92488,0.9381,-1,1
729,0.9258,0.9359,-1,1
730,0.92673,0.9337,-1,1
731,0.92765,0.9319,-1,1
732,0.92857,0.9304,-1,1
733,0.9295,0.9289,-1,1
734,0.93042,0.927,-1,1
735,0.93134,0.9249,-1,1
736,0.93225,0.9226,-1,1
737,0.93316,0.9201,-1,1
738,0.93406,0.9186,-1,1
739,0.93497,0.9171,-1,1
740,0.93588,0.9159,-1,1
741,0.93679,0.9147,-1,1
742,0.9377,0.9129,-1,1
743,0.93861,0.911,-1,1
744,0.93951,0.909,-1,1
745,0.94041,0.9071,-1,1
746,0.94131,0.9056,-1,1
747,0.9422,0.9044,-1,1
748,0.9431,0.9029,-1,1
749,0.94399,0.9016,-1,1
750,0.94489,0.9004,-1,1
751,0.94579,0.899,-1,1
752,0.94668,0.8975,-1,1
753,0.94757,0.8959,-1,1
754,0.94845,0.8943,-1,1
755,0.94934,0.8931,-1,1
756,0.95023,0.8919,-1,1
757,0.95111,0.8911,-1,1
758,0.952,0.8903,-1,1
759,0.95288,0.8892,-1,1
760,0.95377,0.8881,-1,1
761,0.95466,0.8869,-1,1
762,0.95554,0.8858,-1,1
763,0.95641,0.8846,-1,1
764,0.95729,0.8837,-1,1
765,0.95817,0.8831,-1,1
766,0.95905,0.8826,-1,1
767,0.95993,0.882,-1,1
768,0.96081,0.8814,-1,1
769,0.96169,0.8807,-1,1
770,0.96257,0.8797,-1,1
771,0.96344,0.8788,-1,1
772,0.96432,0.8782,-1,1
773,0.96519,0.8778,-1,1
774,0.96606,0.8775,-1,1
775,0.96694,0.8769,-1,1
776,0.96782,0.8767,-1,1
777,0.9687,0.8764,-1,1
778,0.96957,0.8761,-1,1
779,0.97045,0.8756,-1,1
780,0.97132,0.8752,-1,1
781,0.97219,0.8748,-1,1
782,0.97306,0.8746,-1,1
783,0.97394,0.8747,-1,1
784,0.97481,0.8748,-1,1
785,0.97569,0.875,-1,1
786,0.97657,0.8751,-1,1
787,0.97745,0.8752,-1,1
788,0.97833,0.8753,-1,1
789,0.9792,0.8752,-1,1
790,0.98007,0.875,-1,1
791,0.98094,0.8753,-1,1
792,0.98182,0.8758,-1,1
793,0.9827,0.8766,-1,1
794,0.98359,0.8775,-1,1
795,0.98535,0.8778,-1,1
796,0.98623,0.8777,-1,1
797,0.98711,0.8777,-1,1
798,0.98799,0.8781,-1,1
799,0.98887,0.8789,-1,1
800,0.98975,0.8801,-1,1
801,0.99064,0.8811,-1,1
802,0.99153,0.8821,-1,1
803,0.99242,0.883,-1,1
804,0.99331,0.8834,-1,1
805,0.99419,0.8837,-1,1
806,0.99507,0.8844,-1,1
807,0.99685,0.8855,-1,1
808,0.99774,0.8865,-1,1
809,0.99774,0.8878,-1,1
810,0.99863,0.8889,-1,1
811,0.99953,0.8901,-1,1
812,1.00043,0.8909,-1,1
813,1.00132,0.8913,-1,1
814,1.00221,0.8918,-1,1
815,1.00311,0.8927,-1,1
816,1.004,0.8939,-1,1
817,1.0049,0.8951,-1,1
818,1.0067,0.8965,-1,1
819,1.00761,0.8977,-1,1
820,1.00761,0.8987,-1,1
821,1.00851,0.8994,-1,1
822,1.00942,0.9001,-1,1
823,1.01032,0.9009,-1,1
824,1.01123,0.9021,-1,1
825,1.01213,0.9035,-1,1
826,1.01304,0.9048,-1,1
827,1.01396,0.9062,-1,1
828,1.01487,0.9076,-1,1
829,1.01671,0.9089,-1,1
830,1.01762,0.9099,-1,1
831,1.01854,0.911,-1,1
832,1.01854,0.9123,-1,1
833,1.01945,0.9136,-1,1
834,1.02037,0.9152,-1,1
835,1.0213,0.9171,-1,1
836,1.02223,0.9191,-1,1
837,1.02316,0.9208,-1,1
838,1.02503,0.922,-1,1
839,1.02596,0.923,-1,1
