cnt,pos,speed,Dir,Force,
1,0,1.3753,-1,1
2,0.00137997,1.376,-1,1
3,0.00274992,1.3755,-1,1
4,0.00411987,1.3753,-1,1
5,0.00550985,1.3763,-1,1
6,0.00689983,1.3782,-1,1
7,0.0082798,1.3794,-1,1
8,0.00964975,1.3794,-1,1
9,0.0110197,1.3782,-1,1
10,0.0124002,1.3774,-1,1
11,0.0137801,1.378,-1,1
12,0.0151701,1.3794,-1,1
13,0.0165501,1.3801,-1,1
14,0.01792,1.3791,-1,1
15,0.01928,1.3772,-1,1
16,0.0206599,1.3761,-1,1
17,0.0220399,1.3765,-1,1
18,0.0234199,1.3773,-1,1
19,0.0247898,1.3773,-1,1
20,0.0261497,1.3754,-1,1
21,0.0275097,1.373,-1,1
22,0.0288901,1.3716,-1,1
23,0.0302701,1.3719,-1,1
24,0.0316401,1.3724,-1,1
25,0.033,1.372,-1,1
26,0.0343499,1.3696,-1,1
27,0.0356998,1.3665,-1,1
28,0.0370698,1.3646,-1,1
29,0.0384398,1.3639,-1,1
30,0.0397997,1.363,-1,1
31,0.0411501,1.3609,-1,1
32,0.04249,1.3578,-1,1
33,0.0451798,1.3551,-1,1
34,0.0465398,1.3535,-1,1
35,0.0478897,1.3521,-1,1
36,0.0492201,1.3503,-1,1
37,0.05055,1.3478,-1,1
38,0.0518799,1.3446,-1,1
39,0.0532198,1.3421,-1,1
40,0.0545597,1.3412,-1,1
41,0.0558901,1.3407,-1,1
42,0.05722,1.3388,-1,1
43,0.0585299,1.3349,-1,1
44,0.0598397,1.3302,-1,1
45,0.0611601,1.3273,-1,1
46,0.06248,1.3261,-1,1
47,0.0637999,1.3243,-1,1
48,0.0651097,1.3209,-1,1
49,0.0664101,1.3163,-1,1
50,0.0676999,1.3113,-1,1
51,0.0689998,1.3074,-1,1
52,0.0703001,1.3053,-1,1
53,0.0716,1.3041,-1,1
54,0.0728898,1.3023,-1,1
55,0.0741701,1.2984,-1,1
56,0.0754399,1.2938,-1,1
57,0.0767198,1.2909,-1,1
58,0.0792799,1.2895,-1,1
59,0.0805597,1.2876,-1,1
60,0.0805597,1.2844,-1,1
61,0.08181,1.2806,-1,1
62,0.0830698,1.2757,-1,1
63,0.0843201,1.271,-1,1
64,0.0855799,1.2679,-1,1
65,0.0868397,1.2659,-1,1
66,0.0880899,1.2633,-1,1
67,0.0893297,1.259,-1,1
68,0.09056,1.254,-1,1
69,0.09303,1.2507,-1,1
70,0.0942698,1.2485,-1,1
71,0.0942698,1.2454,-1,1
72,0.0955,1.2429,-1,1
73,0.0967097,1.2388,-1,1
74,0.0979199,1.2335,-1,1
75,0.0991297,1.2289,-1,1
76,0.10034,1.2252,-1,1
77,0.10276,1.222,-1,1
78,0.10395,1.218,-1,1
79,0.10514,1.2123,-1,1
80,0.10632,1.2066,-1,1
81,0.1075,1.2024,-1,1
82,0.10869,1.1984,-1,1
83,0.10987,1.1955,-1,1
84,0.11104,1.1917,-1,1
85,0.1122,1.1861,-1,1
86,0.11335,1.1799,-1,1
87,0.11451,1.1745,-1,1
88,0.11567,1.1713,-1,1
89,0.11798,1.1683,-1,1
90,0.11912,1.164,-1,1
91,0.12024,1.1578,-1,1
92,0.12136,1.1508,-1,1
93,0.12248,1.1449,-1,1
94,0.12362,1.1411,-1,1
95,0.12475,1.1385,-1,1
96,0.12587,1.1352,-1,1
97,0.12697,1.1305,-1,1
98,0.12806,1.1235,-1,1
99,0.12915,1.117,-1,1
100,0.13025,1.1129,-1,1
101,0.13135,1.111,-1,1
102,0.13245,1.1091,-1,1
103,0.13354,1.1051,-1,1
104,0.1346,1.0988,-1,1
105,0.13566,1.0914,-1,1
106,0.13672,1.0855,-1,1
107,0.13779,1.0817,-1,1
108,0.13886,1.08,-1,1
109,0.13993,1.078,-1,1
110,0.14098,1.0737,-1,1
111,0.14202,1.067,-1,1
112,0.14305,1.0598,-1,1
113,0.14408,1.0541,-1,1
114,0.14511,1.0509,-1,1
115,0.14616,1.0495,-1,1
116,0.1472,1.0473,-1,1
117,0.14822,1.0431,-1,1
118,0.14923,1.0369,-1,1
119,0.15023,1.0303,-1,1
120,0.15123,1.0253,-1,1
121,0.15325,1.0226,-1,1
122,0.15426,1.0211,-1,1
123,0.15526,1.0185,-1,1
124,0.15625,1.0136,-1,1
125,0.15722,1.0067,-1,1
126,0.15819,0.9999,-1,1
127,0.15916,0.9946,-1,1
128,0.16014,0.9912,-1,1
129,0.16112,0.9892,-1,1
130,0.1621,0.9865,-1,1
131,0.16307,0.982,-1,1
132,0.16402,0.9757,-1,1
133,0.16592,0.9699,-1,1
134,0.16592,0.9653,-1,1
135,0.16686,0.9626,-1,1
136,0.16781,0.9604,-1,1
137,0.16876,0.9582,-1,1
138,0.1697,0.9549,-1,1
139,0.17064,0.9506,-1,1
140,0.17157,0.9459,-1,1
141,0.17249,0.9411,-1,1
142,0.17341,0.938,-1,1
143,0.17524,0.9353,-1,1
144,0.17616,0.9328,-1,1
145,0.17708,0.9297,-1,1
146,0.17708,0.9263,-1,1
147,0.17799,0.9227,-1,1
148,0.1789,0.9189,-1,1
149,0.1798,0.915,-1,1
150,0.18069,0.9114,-1,1
151,0.18158,0.9088,-1,1
152,0.18336,0.9061,-1,1
153,0.18425,0.9036,-1,1
154,0.18514,0.9008,-1,1
155,0.18603,0.8976,-1,1
156,0.18691,0.8942,-1,1
157,0.18778,0.8901,-1,1
158,0.18865,0.8863,-1,1
159,0.18952,0.883,-1,1
160,0.19038,0.8806,-1,1
161,0.19212,0.8785,-1,1
162,0.19299,0.8761,-1,1
163,0.19385,0.8729,-1,1
164,0.19471,0.8696,-1,1
165,0.19556,0.8661,-1,1
166,0.19641,0.8632,-1,1
167,0.19726,0.8611,-1,1
168,0.19811,0.8593,-1,1
169,0.19896,0.8575,-1,1
170,0.19981,0.8553,-1,1
171,0.20065,0.8529,-1,1
172,0.2015,0.8508,-1,1
173,0.20234,0.8492,-1,1
174,0.20318,0.8474,-1,1
175,0.20402,0.8459,-1,1
176,0.20485,0.844,-1,1
177,0.20568,0.842,-1,1
178,0.20651,0.8401,-1,1
179,0.20735,0.8386,-1,1
180,0.20818,0.8369,-1,1
181,0.209,0.8351,-1,1
182,0.20983,0.8332,-1,1
183,0.21066,0.8313,-1,1
184,0.21148,0.8295,-1,1
185,0.21229,0.8278,-1,1
186,0.21311,0.8263,-1,1
187,0.21393,0.8248,-1,1
188,0.21475,0.8234,-1,1
189,0.21556,0.8218,-1,1
190,0.21638,0.8204,-1,1
191,0.21719,0.8189,-1,1
192,0.218,0.8174,-1,1
193,0.21882,0.816,-1,1
194,0.22044,0.815,-1,1
195,0.22125,0.814,-1,1
196,0.22205,0.8129,-1,1
197,0.22286,0.8119,-1,1
198,0.22367,0.8109,-1,1
199,0.22448,0.8102,-1,1
200,0.22529,0.8096,-1,1
201,0.22609,0.8089,-1,1
202,0.2269,0.808,-1,1
203,0.2277,0.8071,-1,1
204,0.2285,0.8064,-1,1
205,0.2293,0.8062,-1,1
206,0.23091,0.8059,-1,1
207,0.23172,0.8056,-1,1
208,0.23252,0.805,-1,1
209,0.23332,0.8043,-1,1
210,0.23412,0.8036,-1,1
211,0.23493,0.8032,-1,1
212,0.23573,0.8031,-1,1
213,0.23653,0.8029,-1,1
214,0.23733,0.8026,-1,1
215,0.23813,0.8021,-1,1
216,0.23893,0.8021,-1,1
217,0.23974,0.8021,-1,1
218,0.24054,0.8023,-1,1
219,0.24134,0.8022,-1,1
220,0.24214,0.8021,-1,1
221,0.24295,0.802,-1,1
222,0.24375,0.802,-1,1
223,0.24455,0.8022,-1,1
224,0.24535,0.8026,-1,1
225,0.24616,0.8029,-1,1
226,0.24696,0.8032,-1,1
227,0.24777,0.8035,-1,1
228,0.24858,0.8037,-1,1
229,0.24938,0.8041,-1,1
230,0.25019,0.8042,-1,1
231,0.25099,0.8043,-1,1
232,0.25179,0.8046,-1,1
233,0.2526,0.8051,-1,1
234,0.25341,0.8056,-1,1
235,0.25503,0.8061,-1,1
236,0.25584,0.8063,-1,1
237,0.25664,0.8064,-1,1
238,0.25745,0.8067,-1,1
239,0.25826,0.8071,-1,1
240,0.25907,0.8078,-1,1
241,0.25988,0.8086,-1,1
242,0.2607,0.8092,-1,1
243,0.26151,0.81,-1,1
244,0.26233,0.8106,-1,1
245,0.26314,0.8115,-1,1
246,0.26396,0.8122,-1,1
247,0.26477,0.8131,-1,1
248,0.26559,0.8137,-1,1
249,0.26641,0.8145,-1,1
250,0.26722,0.8154,-1,1
251,0.26804,0.8163,-1,1
252,0.26886,0.8172,-1,1
253,0.26968,0.8177,-1,1
254,0.27051,0.8184,-1,1
255,0.27133,0.8189,-1,1
256,0.27215,0.8198,-1,1
257,0.27297,0.8204,-1,1
258,0.2738,0.8211,-1,1
259,0.27462,0.8218,-1,1
260,0.27627,0.8226,-1,1
261,0.2771,0.8235,-1,1
262,0.27793,0.8244,-1,1
263,0.27876,0.8252,-1,1
264,0.27958,0.8257,-1,1
265,0.28041,0.8263,-1,1
266,0.28124,0.827,-1,1
267,0.28208,0.828,-1,1
268,0.28291,0.8291,-1,1
269,0.28458,0.8301,-1,1
270,0.28542,0.8311,-1,1
271,0.28625,0.8321,-1,1
272,0.28709,0.8331,-1,1
273,0.28793,0.8341,-1,1
274,0.28877,0.8351,-1,1
275,0.28961,0.8362,-1,1
276,0.29045,0.8373,-1,1
277,0.2913,0.8386,-1,1
278,0.29214,0.8396,-1,1
279,0.29298,0.8406,-1,1
280,0.29383,0.8412,-1,1
281,0.29467,0.8418,-1,1
282,0.29552,0.8427,-1,1
283,0.29637,0.8438,-1,1
284,0.29722,0.845,-1,1
285,0.29807,0.8458,-1,1
286,0.29892,0.8465,-1,1
287,0.29977,0.8472,-1,1
288,0.30062,0.8483,-1,1
289,0.30148,0.8492,-1,1
290,0.30233,0.8503,-1,1
291,0.30318,0.851,-1,1
292,0.30404,0.8518,-1,1
293,0.30489,0.8524,-1,1
294,0.30575,0.8533,-1,1
295,0.30661,0.8544,-1,1
296,0.30747,0.8553,-1,1
297,0.30833,0.8559,-1,1
298,0.30919,0.8566,-1,1
299,0.31005,0.8572,-1,1
300,0.31177,0.8579,-1,1
301,0.31263,0.8587,-1,1
302,0.3135,0.8595,-1,1
303,0.31436,0.8607,-1,1
304,0.31523,0.8616,-1,1
305,0.3161,0.8625,-1,1
306,0.31696,0.8633,-1,1
307,0.31783,0.8641,-1,1
308,0.3187,0.8648,-1,1
309,0.31957,0.8658,-1,1
310,0.32044,0.8668,-1,1
311,0.32131,0.8679,-1,1
312,0.32218,0.8687,-1,1
313,0.32393,0.8695,-1,1
314,0.32481,0.8703,-1,1
315,0.32568,0.8713,-1,1
316,0.32656,0.8723,-1,1
317,0.32744,0.8731,-1,1
318,0.32831,0.8739,-1,1
319,0.32919,0.8745,-1,1
320,0.33006,0.8751,-1,1
321,0.33094,0.8758,-1,1
322,0.33182,0.8765,-1,1
323,0.3327,0.8771,-1,1
324,0.33358,0.8778,-1,1
325,0.33447,0.8782,-1,1
326,0.33535,0.8785,-1,1
327,0.33622,0.8789,-1,1
328,0.33711,0.8795,-1,1
329,0.33799,0.8802,-1,1
330,0.33887,0.881,-1,1
331,0.33976,0.8817,-1,1
332,0.34064,0.8823,-1,1
333,0.34153,0.8827,-1,1
334,0.34241,0.883,-1,1
335,0.3433,0.8834,-1,1
336,0.34419,0.8841,-1,1
337,0.34507,0.8848,-1,1
338,0.34596,0.8853,-1,1
339,0.34685,0.8858,-1,1
340,0.34773,0.8861,-1,1
341,0.34862,0.8864,-1,1
342,0.34951,0.8867,-1,1
343,0.3504,0.8869,-1,1
344,0.35217,0.8872,-1,1
345,0.35306,0.8874,-1,1
346,0.35395,0.8876,-1,1
347,0.35484,0.8878,-1,1
348,0.35572,0.888,-1,1
349,0.35662,0.8883,-1,1
350,0.35751,0.8887,-1,1
351,0.3584,0.8888,-1,1
352,0.35928,0.8888,-1,1
353,0.36017,0.889,-1,1
354,0.36195,0.8894,-1,1
355,0.36284,0.8897,-1,1
356,0.36374,0.8901,-1,1
357,0.36374,0.8905,-1,1
358,0.36463,0.8908,-1,1
359,0.36552,0.891,-1,1
360,0.36641,0.8909,-1,1
361,0.3673,0.8909,-1,1
362,0.36819,0.8911,-1,1
363,0.36908,0.8913,-1,1
364,0.36997,0.8913,-1,1
365,0.37176,0.8916,-1,1
366,0.37265,0.8917,-1,1
367,0.37265,0.8918,-1,1
368,0.37355,0.8919,-1,1
369,0.37444,0.8915,-1,1
370,0.37532,0.8914,-1,1
371,0.37621,0.8914,-1,1
372,0.3771,0.8912,-1,1
373,0.37799,0.891,-1,1
374,0.37977,0.8911,-1,1
375,0.38067,0.8911,-1,1
376,0.38156,0.8909,-1,1
377,0.38245,0.8904,-1,1
378,0.38333,0.8897,-1,1
379,0.38422,0.8895,-1,1
380,0.3851,0.8891,-1,1
381,0.38599,0.8889,-1,1
382,0.38688,0.8889,-1,1
383,0.38777,0.8889,-1,1
384,0.38955,0.8884,-1,1
385,0.39043,0.8876,-1,1
386,0.39132,0.887,-1,1
387,0.3922,0.8865,-1,1
388,0.39308,0.8861,-1,1
389,0.39397,0.8858,-1,1
390,0.39485,0.8856,-1,1
391,0.39574,0.8855,-1,1
392,0.39662,0.8851,-1,1
393,0.3975,0.8845,-1,1
394,0.39839,0.884,-1,1
395,0.39927,0.8835,-1,1
396,0.40015,0.883,-1,1
397,0.40103,0.8826,-1,1
398,0.40191,0.8823,-1,1
399,0.40279,0.8821,-1,1
400,0.40367,0.8819,-1,1
401,0.40455,0.8816,-1,1
402,0.40543,0.8811,-1,1
403,0.40631,0.8806,-1,1
404,0.40719,0.8799,-1,1
405,0.40806,0.8795,-1,1
406,0.40894,0.8793,-1,1
407,0.40982,0.879,-1,1
408,0.4107,0.8789,-1,1
409,0.41158,0.8785,-1,1
410,0.41245,0.878,-1,1
411,0.41333,0.8771,-1,1
412,0.4142,0.8766,-1,1
413,0.41508,0.8759,-1,1
414,0.41595,0.8755,-1,1
415,0.41769,0.8751,-1,1
416,0.41857,0.8747,-1,1
417,0.41944,0.8744,-1,1
418,0.42031,0.8737,-1,1
419,0.42118,0.8729,-1,1
420,0.42205,0.8722,-1,1
421,0.42292,0.8717,-1,1
422,0.42379,0.8711,-1,1
423,0.42465,0.8705,-1,1
424,0.42552,0.8699,-1,1
425,0.42638,0.8693,-1,1
426,0.42725,0.8688,-1,1
427,0.42812,0.8681,-1,1
428,0.42985,0.8674,-1,1
429,0.43071,0.8665,-1,1
430,0.43071,0.8656,-1,1
431,0.43157,0.8648,-1,1
432,0.43244,0.8643,-1,1
433,0.4333,0.8641,-1,1
434,0.43416,0.8637,-1,1
435,0.43502,0.8632,-1,1
436,0.43589,0.8624,-1,1
437,0.43675,0.8618,-1,1
438,0.4376,0.8612,-1,1
439,0.43931,0.8605,-1,1
440,0.43931,0.8598,-1,1
441,0.44017,0.8592,-1,1
442,0.44188,0.8584,-1,1
443,0.44273,0.8576,-1,1
444,0.44359,0.8565,-1,1
445,0.44444,0.8553,-1,1
446,0.44528,0.8542,-1,1
447,0.44614,0.8532,-1,1
448,0.44698,0.8523,-1,1
449,0.44783,0.8515,-1,1
450,0.44867,0.8507,-1,1
451,0.44952,0.85,-1,1
452,0.45122,0.8492,-1,1
453,0.45206,0.8481,-1,1
454,0.4529,0.8472,-1,1
455,0.45374,0.8461,-1,1
456,0.45458,0.845,-1,1
457,0.45542,0.8442,-1,1
458,0.45626,0.8435,-1,1
459,0.4571,0.8429,-1,1
460,0.45794,0.842,-1,1
461,0.45878,0.841,-1,1
462,0.45962,0.8402,-1,1
463,0.46046,0.8396,-1,1
464,0.46129,0.839,-1,1
465,0.46212,0.8384,-1,1
466,0.46295,0.8375,-1,1
467,0.46378,0.8364,-1,1
468,0.46462,0.8356,-1,1
469,0.46545,0.835,-1,1
470,0.46628,0.8345,-1,1
471,0.46711,0.8336,-1,1
472,0.46794,0.8324,-1,1
473,0.46877,0.8312,-1,1
474,0.46959,0.8304,-1,1
475,0.47042,0.8298,-1,1
476,0.47124,0.8292,-1,1
477,0.47207,0.8283,-1,1
478,0.47289,0.8272,-1,1
479,0.47371,0.8263,-1,1
480,0.47454,0.8257,-1,1
481,0.47536,0.8252,-1,1
482,0.47618,0.8245,-1,1
483,0.477,0.8237,-1,1
484,0.47782,0.8227,-1,1
485,0.47864,0.8219,-1,1
486,0.47946,0.8214,-1,1
487,0.48028,0.8209,-1,1
488,0.48191,0.8202,-1,1
489,0.48272,0.8195,-1,1
490,0.48354,0.8187,-1,1
491,0.48436,0.8177,-1,1
492,0.48517,0.8169,-1,1
493,0.48598,0.8161,-1,1
494,0.48679,0.8155,-1,1
495,0.4876,0.8149,-1,1
496,0.48842,0.8143,-1,1
497,0.48922,0.8134,-1,1
498,0.49003,0.8127,-1,1
499,0.49084,0.8117,-1,1
500,0.49165,0.8108,-1,1
501,0.49327,0.8101,-1,1
502,0.49327,0.8094,-1,1
503,0.49407,0.8089,-1,1
504,0.49488,0.808,-1,1
505,0.49568,0.8071,-1,1
506,0.49649,0.8063,-1,1
507,0.49729,0.8061,-1,1
508,0.4981,0.8057,-1,1
509,0.4989,0.8049,-1,1
510,0.4997,0.8041,-1,1
511,0.50131,0.8037,-1,1
512,0.50211,0.8036,-1,1
513,0.50211,0.8034,-1,1
514,0.50291,0.8029,-1,1
515,0.50371,0.8023,-1,1
516,0.50451,0.8017,-1,1
517,0.50531,0.8009,-1,1
518,0.50611,0.8006,-1,1
519,0.50771,0.8004,-1,1
520,0.5085,0.7998,-1,1
521,0.5093,0.799,-1,1
522,0.51009,0.7982,-1,1
523,0.51089,0.7976,-1,1
524,0.51169,0.7978,-1,1
525,0.51249,0.7978,-1,1
526,0.51329,0.7976,-1,1
527,0.51408,0.7972,-1,1
528,0.51487,0.7964,-1,1
529,0.51646,0.7962,-1,1
530,0.51726,0.7963,-1,1
531,0.51805,0.7962,-1,1
532,0.51885,0.7959,-1,1
533,0.51964,0.7956,-1,1
534,0.52044,0.7953,-1,1
535,0.52124,0.7953,-1,1
536,0.52203,0.7952,-1,1
537,0.52282,0.795,-1,1
538,0.52361,0.7944,-1,1
539,0.5244,0.7938,-1,1
540,0.5252,0.7935,-1,1
541,0.52599,0.7938,-1,1
542,0.52679,0.794,-1,1
543,0.52758,0.7938,-1,1
544,0.52837,0.7931,-1,1
545,0.52916,0.7924,-1,1
546,0.52995,0.792,-1,1
547,0.53075,0.7921,-1,1
548,0.53154,0.7925,-1,1
549,0.53233,0.7924,-1,1
550,0.53311,0.7919,-1,1
551,0.5339,0.7912,-1,1
552,0.5347,0.7909,-1,1
553,0.53549,0.7911,-1,1
554,0.53628,0.7915,-1,1
555,0.53708,0.7915,-1,1
556,0.53786,0.7911,-1,1
557,0.53865,0.7906,-1,1
558,0.53944,0.7903,-1,1
559,0.54023,0.7907,-1,1
560,0.54103,0.7911,-1,1
561,0.54181,0.791,-1,1
562,0.5426,0.7906,-1,1
563,0.54419,0.7906,-1,1
564,0.54498,0.7906,-1,1
565,0.54577,0.7907,-1,1
566,0.54656,0.7907,-1,1
567,0.54734,0.7903,-1,1
568,0.54813,0.7901,-1,1
569,0.54892,0.7898,-1,1
570,0.54972,0.7901,-1,1
571,0.55051,0.7902,-1,1
572,0.55129,0.7902,-1,1
573,0.55208,0.7896,-1,1
574,0.55287,0.7892,-1,1
575,0.55366,0.7892,-1,1
576,0.55524,0.7893,-1,1
577,0.55524,0.7895,-1,1
578,0.55603,0.7895,-1,1
579,0.55682,0.7892,-1,1
580,0.55761,0.7887,-1,1
581,0.5584,0.7888,-1,1
582,0.55919,0.7892,-1,1
583,0.56077,0.7895,-1,1
584,0.56156,0.7894,-1,1
585,0.56235,0.789,-1,1
586,0.56314,0.7889,-1,1
587,0.56393,0.7892,-1,1
588,0.56472,0.7896,-1,1
589,0.56551,0.7899,-1,1
590,0.5663,0.7901,-1,1
591,0.56709,0.7901,-1,1
592,0.56788,0.7902,-1,1
593,0.56868,0.7907,-1,1
594,0.56947,0.7911,-1,1
595,0.57026,0.7913,-1,1
596,0.57105,0.7916,-1,1
597,0.57184,0.7918,-1,1
598,0.57264,0.7922,-1,1
599,0.57343,0.7927,-1,1
600,0.57423,0.7931,-1,1
601,0.57502,0.7935,-1,1
602,0.57582,0.7937,-1,1
603,0.57662,0.7938,-1,1
604,0.57742,0.7945,-1,1
605,0.57821,0.7953,-1,1
606,0.57901,0.7959,-1,1
607,0.5798,0.7964,-1,1
608,0.5806,0.7965,-1,1
609,0.5814,0.7968,-1,1
610,0.5822,0.7973,-1,1
611,0.583,0.798,-1,1
612,0.5838,0.7985,-1,1
613,0.5854,0.7987,-1,1
614,0.5862,0.7989,-1,1
615,0.58701,0.7993,-1,1
616,0.58781,0.8,-1,1
617,0.58861,0.8005,-1,1
618,0.58941,0.8009,-1,1
619,0.59021,0.8013,-1,1
620,0.59102,0.8017,-1,1
621,0.59183,0.8024,-1,1
622,0.59264,0.8031,-1,1
623,0.59344,0.8037,-1,1
624,0.59424,0.8038,-1,1
625,0.59505,0.8042,-1,1
626,0.59586,0.8046,-1,1
627,0.59667,0.8055,-1,1
628,0.59748,0.8064,-1,1
629,0.59829,0.807,-1,1
630,0.59909,0.8074,-1,1
631,0.59991,0.8076,-1,1
632,0.60072,0.8084,-1,1
633,0.60153,0.8092,-1,1
634,0.60235,0.8101,-1,1
635,0.60316,0.8107,-1,1
636,0.60397,0.8111,-1,1
637,0.60478,0.8113,-1,1
638,0.6056,0.8119,-1,1
639,0.60641,0.8128,-1,1
640,0.60723,0.8136,-1,1
641,0.60805,0.8141,-1,1
642,0.60886,0.8143,-1,1
643,0.60968,0.8148,-1,1
644,0.6105,0.8157,-1,1
645,0.61132,0.8165,-1,1
646,0.61214,0.8172,-1,1
647,0.61296,0.8177,-1,1
648,0.61377,0.8185,-1,1
649,0.61542,0.8195,-1,1
650,0.61625,0.8204,-1,1
651,0.61707,0.8211,-1,1
652,0.6179,0.8216,-1,1
653,0.61872,0.8223,-1,1
654,0.61955,0.823,-1,1
655,0.62038,0.8239,-1,1
656,0.6212,0.8246,-1,1
657,0.62203,0.8255,-1,1
658,0.62286,0.8263,-1,1
659,0.62452,0.827,-1,1
660,0.62536,0.8279,-1,1
661,0.62536,0.8291,-1,1
662,0.62703,0.8303,-1,1
663,0.62786,0.8311,-1,1
664,0.62786,0.8319,-1,1
665,0.6287,0.8326,-1,1
666,0.62953,0.8338,-1,1
667,0.63121,0.8352,-1,1
668,0.63205,0.8361,-1,1
669,0.63289,0.8367,-1,1
670,0.63374,0.8378,-1,1
671,0.63459,0.8391,-1,1
672,0.63544,0.8407,-1,1
673,0.63629,0.8422,-1,1
674,0.63713,0.8432,-1,1
675,0.63798,0.8441,-1,1
676,0.63883,0.8454,-1,1
677,0.63968,0.8468,-1,1
678,0.64054,0.8483,-1,1
679,0.64139,0.8497,-1,1
680,0.64225,0.8506,-1,1
681,0.6431,0.8517,-1,1
682,0.64397,0.8529,-1,1
683,0.64483,0.8543,-1,1
684,0.64569,0.8558,-1,1
685,0.64655,0.8574,-1,1
686,0.64741,0.8587,-1,1
687,0.64828,0.8601,-1,1
688,0.65003,0.8619,-1,1
689,0.6509,0.8638,-1,1
690,0.65177,0.8657,-1,1
691,0.65265,0.8673,-1,1
692,0.65353,0.869,-1,1
693,0.65441,0.8709,-1,1
694,0.65529,0.873,-1,1
695,0.65617,0.8752,-1,1
696,0.65706,0.8773,-1,1
697,0.65795,0.8794,-1,1
698,0.65884,0.8812,-1,1
699,0.65973,0.8833,-1,1
700,0.66063,0.8854,-1,1
701,0.66242,0.8875,-1,1
702,0.66332,0.8895,-1,1
703,0.66332,0.8918,-1,1
704,0.66422,0.8941,-1,1
705,0.66512,0.8963,-1,1
706,0.66603,0.8983,-1,1
707,0.66694,0.9002,-1,1
708,0.66785,0.9022,-1,1
709,0.66876,0.9042,-1,1
710,0.67059,0.9063,-1,1
711,0.67059,0.9086,-1,1
712,0.67243,0.911,-1,1
713,0.67336,0.9132,-1,1
714,0.67336,0.9153,-1,1
715,0.67428,0.9174,-1,1
716,0.67521,0.9196,-1,1
717,0.67614,0.9218,-1,1
718,0.67707,0.9242,-1,1
719,0.67801,0.9267,-1,1
720,0.67989,0.9289,-1,1
721,0.68083,0.9314,-1,1
722,0.68178,0.934,-1,1
723,0.68273,0.9364,-1,1
724,0.68368,0.939,-1,1
725,0.68464,0.9417,-1,1
726,0.68559,0.9446,-1,1
727,0.68655,0.9477,-1,1
728,0.68752,0.9506,-1,1
729,0.68848,0.9533,-1,1
730,0.68945,0.9564,-1,1
731,0.6914,0.9594,-1,1
732,0.69238,0.9622,-1,1
733,0.69335,0.9651,-1,1
734,0.69434,0.9682,-1,1
735,0.69532,0.9714,-1,1
736,0.69631,0.975,-1,1
737,0.69731,0.978,-1,1
738,0.6983,0.9811,-1,1
739,0.6993,0.9841,-1,1
740,0.7003,0.9871,-1,1
741,0.7013,0.9902,-1,1
742,0.70231,0.993,-1,1
743,0.70331,0.9959,-1,1
744,0.70433,0.9989,-1,1
745,0.70534,1.0019,-1,1
746,0.70636,1.0046,-1,1
747,0.70738,1.0076,-1,1
748,0.7084,1.0103,-1,1
749,0.70943,1.0133,-1,1
750,0.71046,1.0166,-1,1
751,0.7115,1.0196,-1,1
752,0.71253,1.0226,-1,1
753,0.71357,1.0257,-1,1
754,0.71462,1.0289,-1,1
755,0.71566,1.0323,-1,1
756,0.71671,1.0352,-1,1
757,0.71776,1.0381,-1,1
758,0.71882,1.0412,-1,1
759,0.71988,1.0446,-1,1
760,0.72094,1.0476,-1,1
761,0.72201,1.0509,-1,1
762,0.72415,1.0546,-1,1
763,0.72522,1.058,-1,1
764,0.72629,1.061,-1,1
765,0.72737,1.0641,-1,1
766,0.72846,1.0679,-1,1
767,0.72955,1.0718,-1,1
768,0.73064,1.0758,-1,1
769,0.73173,1.0791,-1,1
770,0.73283,1.0824,-1,1
771,0.73393,1.0855,-1,1
772,0.73503,1.0886,-1,1
773,0.73614,1.0921,-1,1
774,0.73725,1.0958,-1,1
775,0.73836,1.0993,-1,1
776,0.73948,1.1027,-1,1
777,0.7406,1.1058,-1,1
778,0.74172,1.1085,-1,1
779,0.74285,1.1118,-1,1
780,0.74398,1.1154,-1,1
781,0.74511,1.1191,-1,1
782,0.74625,1.1226,-1,1
783,0.7474,1.126,-1,1
784,0.74854,1.1291,-1,1
785,0.74968,1.1321,-1,1
786,0.75083,1.1349,-1,1
787,0.75198,1.1383,-1,1
788,0.75314,1.1423,-1,1
789,0.75431,1.1461,-1,1
790,0.75547,1.1493,-1,1
791,0.75664,1.1523,-1,1
792,0.75781,1.1554,-1,1
793,0.75898,1.1586,-1,1
794,0.76016,1.1621,-1,1
795,0.76134,1.1659,-1,1
796,0.76253,1.1697,-1,1
797,0.76372,1.1729,-1,1
798,0.76609,1.1762,-1,1
799,0.7673,1.1799,-1,1
800,0.7685,1.1839,-1,1
801,0.76971,1.1881,-1,1
802,0.77092,1.1919,-1,1
803,0.77213,1.1955,-1,1
804,0.77334,1.1991,-1,1
805,0.77456,1.2026,-1,1
806,0.77578,1.2065,-1,1
807,0.77824,1.2109,-1,1
808,0.77947,1.2147,-1,1
809,0.78071,1.218,-1,1
810,0.78195,1.2218,-1,1
811,0.78319,1.2255,-1,1
812,0.78444,1.2298,-1,1
813,0.78569,1.2339,-1,1
814,0.78695,1.2379,-1,1
815,0.7882,1.2418,-1,1
816,0.78947,1.2455,-1,1
817,0.79073,1.2491,-1,1
818,0.792,1.2529,-1,1
819,0.79327,1.2567,-1,1
820,0.79455,1.26,-1,1
821,0.79583,1.2634,-1,1
822,0.79711,1.2669,-1,1
823,0.7984,1.2705,-1,1
824,0.79969,1.2741,-1,1
825,0.80098,1.2777,-1,1
826,0.80227,1.2807,-1,1
827,0.80357,1.2841,-1,1
828,0.80488,1.288,-1,1
829,0.80619,1.2917,-1,1
830,0.8075,1.2952,-1,1
831,0.80881,1.2983,-1,1
832,0.81012,1.3012,-1,1
833,0.81144,1.3046,-1,1
834,0.81277,1.308,-1,1
835,0.8141,1.3116,-1,1
836,0.81676,1.3154,-1,1
837,0.81809,1.3187,-1,1
838,0.81943,1.3216,-1,1
839,0.82077,1.325,-1,1
