cnt,pos,speed,Dir,Force,
1,0,1.1782,-1,1
2,0.00114965,1.1727,-1,1
3,0.00228977,1.1675,-1,1
4,0.0034399,1.1634,-1,1
5,0.00458002,1.16,-1,1
6,0.00572968,1.1566,-1,1
7,0.00685978,1.1528,-1,1
8,0.00797987,1.1477,-1,1
9,0.00909996,1.1419,-1,1
10,0.01021,1.1368,-1,1
11,0.0113297,1.1334,-1,1
12,0.0124497,1.1304,-1,1
13,0.0135598,1.1269,-1,1
14,0.0146599,1.1222,-1,1
15,0.0157499,1.117,-1,1
16,0.01684,1.1119,-1,1
17,0.01793,1.1074,-1,1
18,0.0190196,1.1038,-1,1
19,0.0200996,1.1006,-1,1
20,0.0211797,1.0969,-1,1
21,0.0222597,1.0924,-1,1
22,0.0233197,1.0873,-1,1
23,0.0243797,1.0823,-1,1
24,0.0254397,1.078,-1,1
25,0.0264897,1.0741,-1,1
26,0.0275497,1.0705,-1,1
27,0.0285997,1.0667,-1,1
28,0.0296497,1.0627,-1,1
29,0.0306797,1.0582,-1,1
30,0.0317197,1.0536,-1,1
31,0.0327396,1.0488,-1,1
32,0.0337696,1.0446,-1,1
33,0.03479,1.041,-1,1
34,0.03582,1.0375,-1,1
35,0.0368299,1.0337,-1,1
36,0.0378399,1.0295,-1,1
37,0.0388498,1.0251,-1,1
38,0.0398498,1.0206,-1,1
39,0.0408497,1.0165,-1,1
40,0.0418496,1.0128,-1,1
41,0.04284,1.0095,-1,1
42,0.0438299,1.0064,-1,1
43,0.0448198,1.0028,-1,1
44,0.0458097,0.9989,-1,1
45,0.0467796,0.9948,-1,1
46,0.0487299,0.9905,-1,1
47,0.0496898,0.9867,-1,1
48,0.0506597,0.983,-1,1
49,0.05162,0.9795,-1,1
50,0.0525799,0.9759,-1,1
51,0.0535398,0.9721,-1,1
52,0.0544896,0.9676,-1,1
53,0.0554299,0.9632,-1,1
54,0.0563698,0.9588,-1,1
55,0.0573096,0.9549,-1,1
56,0.0591798,0.9514,-1,1
57,0.0601096,0.9477,-1,1
58,0.0610299,0.9438,-1,1
59,0.0619597,0.9398,-1,1
60,0.06287,0.9355,-1,1
61,0.0637898,0.9314,-1,1
62,0.0646996,0.9275,-1,1
63,0.0655999,0.9238,-1,1
64,0.0665097,0.9203,-1,1
65,0.06741,0.9171,-1,1
66,0.0683198,0.9136,-1,1
67,0.0701098,0.91,-1,1
68,0.0709996,0.9062,-1,1
69,0.0718799,0.9024,-1,1
70,0.0727696,0.899,-1,1
71,0.0736499,0.8958,-1,1
72,0.0745296,0.8929,-1,1
73,0.0754099,0.89,-1,1
74,0.0762796,0.8873,-1,1
75,0.0771599,0.8842,-1,1
76,0.0780296,0.8812,-1,1
77,0.0788898,0.8782,-1,1
78,0.0797496,0.8754,-1,1
79,0.0806098,0.8726,-1,1
80,0.08147,0.87,-1,1
81,0.0823197,0.8676,-1,1
82,0.08318,0.8651,-1,1
83,0.0840297,0.8626,-1,1
84,0.0848799,0.8598,-1,1
85,0.0857296,0.8571,-1,1
86,0.0865698,0.8546,-1,1
87,0.08742,0.8522,-1,1
88,0.0882497,0.8499,-1,1
89,0.0890899,0.8474,-1,1
90,0.08992,0.8451,-1,1
91,0.0907497,0.8427,-1,1
92,0.0915899,0.8406,-1,1
93,0.0924196,0.8387,-1,1
94,0.0932498,0.8366,-1,1
95,0.09407,0.8342,-1,1
96,0.0948896,0.8317,-1,1
97,0.0957098,0.8293,-1,1
98,0.09653,0.8273,-1,1
99,0.0981598,0.8257,-1,1
100,0.0989699,0.8238,-1,1
101,0.0989699,0.8219,-1,1
102,0.0997896,0.82,-1,1
103,0.1006,0.8177,-1,1
104,0.10141,0.8155,-1,1
105,0.10221,0.8136,-1,1
106,0.10301,0.8119,-1,1
107,0.10381,0.8105,-1,1
108,0.10542,0.809,-1,1
109,0.10622,0.8074,-1,1
110,0.10702,0.8057,-1,1
111,0.10781,0.804,-1,1
112,0.10781,0.802,-1,1
113,0.10861,0.8004,-1,1
114,0.1094,0.799,-1,1
115,0.1102,0.7978,-1,1
116,0.11099,0.7966,-1,1
117,0.11177,0.7951,-1,1
118,0.11256,0.7936,-1,1
119,0.11335,0.7924,-1,1
120,0.11414,0.7914,-1,1
121,0.11571,0.7903,-1,1
122,0.11649,0.7891,-1,1
123,0.11649,0.7874,-1,1
124,0.11727,0.7859,-1,1
125,0.11805,0.7846,-1,1
126,0.11883,0.7836,-1,1
127,0.11961,0.7827,-1,1
128,0.12039,0.7819,-1,1
129,0.12117,0.7807,-1,1
130,0.12194,0.7794,-1,1
131,0.12272,0.7785,-1,1
132,0.1235,0.7781,-1,1
133,0.12428,0.7777,-1,1
134,0.12505,0.7773,-1,1
135,0.12582,0.7763,-1,1
136,0.12659,0.7751,-1,1
137,0.12736,0.7741,-1,1
138,0.12813,0.7736,-1,1
139,0.1289,0.7735,-1,1
140,0.12968,0.7734,-1,1
141,0.13045,0.7727,-1,1
142,0.13122,0.7716,-1,1
143,0.13199,0.7712,-1,1
144,0.13276,0.7708,-1,1
145,0.13353,0.7708,-1,1
146,0.13429,0.7707,-1,1
147,0.13506,0.7702,-1,1
148,0.13582,0.7691,-1,1
149,0.13658,0.7679,-1,1
150,0.13735,0.7671,-1,1
151,0.13812,0.7669,-1,1
152,0.13889,0.7672,-1,1
153,0.13966,0.7671,-1,1
154,0.14042,0.7663,-1,1
155,0.14118,0.7652,-1,1
156,0.14194,0.7645,-1,1
157,0.1427,0.7643,-1,1
158,0.14346,0.7644,-1,1
159,0.14423,0.7645,-1,1
160,0.14499,0.7642,-1,1
161,0.14575,0.7636,-1,1
162,0.14652,0.7628,-1,1
163,0.14728,0.7622,-1,1
164,0.14804,0.7622,-1,1
165,0.14956,0.762,-1,1
166,0.15031,0.7615,-1,1
167,0.15107,0.7609,-1,1
168,0.15183,0.7605,-1,1
169,0.15259,0.7602,-1,1
170,0.15335,0.7601,-1,1
171,0.15411,0.7598,-1,1
172,0.15487,0.7592,-1,1
173,0.15562,0.7584,-1,1
174,0.15713,0.7577,-1,1
175,0.15789,0.7578,-1,1
176,0.15864,0.7577,-1,1
177,0.1594,0.7573,-1,1
178,0.16015,0.7569,-1,1
179,0.16091,0.7565,-1,1
180,0.16167,0.7562,-1,1
181,0.16242,0.756,-1,1
182,0.16318,0.7557,-1,1
183,0.16393,0.7552,-1,1
184,0.16468,0.7545,-1,1
185,0.16543,0.7538,-1,1
186,0.16618,0.7536,-1,1
187,0.16693,0.7536,-1,1
188,0.16768,0.753,-1,1
189,0.16843,0.7524,-1,1
190,0.16918,0.7515,-1,1
191,0.16993,0.7507,-1,1
192,0.17143,0.7502,-1,1
193,0.17218,0.7498,-1,1
194,0.17292,0.7493,-1,1
195,0.17367,0.7487,-1,1
196,0.17441,0.7478,-1,1
197,0.17515,0.7472,-1,1
198,0.1759,0.7469,-1,1
199,0.17665,0.7469,-1,1
200,0.1774,0.7466,-1,1
201,0.17814,0.7461,-1,1
202,0.17889,0.7455,-1,1
203,0.17963,0.7449,-1,1
204,0.18037,0.7451,-1,1
205,0.18186,0.745,-1,1
206,0.1826,0.745,-1,1
207,0.1826,0.7446,-1,1
208,0.18334,0.7441,-1,1
209,0.18408,0.7432,-1,1
210,0.18483,0.7429,-1,1
211,0.18557,0.743,-1,1
212,0.18632,0.7432,-1,1
213,0.18706,0.7432,-1,1
214,0.1878,0.7425,-1,1
215,0.18853,0.7421,-1,1
216,0.19001,0.7419,-1,1
217,0.19076,0.742,-1,1
218,0.19076,0.742,-1,1
219,0.1915,0.742,-1,1
220,0.19224,0.7417,-1,1
221,0.19298,0.7412,-1,1
222,0.19372,0.7407,-1,1
223,0.19446,0.7407,-1,1
224,0.1952,0.741,-1,1
225,0.19594,0.741,-1,1
226,0.19668,0.7406,-1,1
227,0.19815,0.7399,-1,1
228,0.19889,0.7396,-1,1
229,0.19889,0.7395,-1,1
230,0.19963,0.7395,-1,1
231,0.20037,0.7396,-1,1
232,0.20112,0.7398,-1,1
233,0.20185,0.7398,-1,1
234,0.20259,0.7395,-1,1
235,0.20333,0.7391,-1,1
236,0.20406,0.7391,-1,1
237,0.2048,0.7391,-1,1
238,0.20628,0.739,-1,1
239,0.20628,0.7387,-1,1
240,0.20701,0.7384,-1,1
241,0.20775,0.738,-1,1
242,0.20849,0.7378,-1,1
243,0.20923,0.7378,-1,1
244,0.20997,0.7378,-1,1
245,0.21071,0.738,-1,1
246,0.21218,0.7379,-1,1
247,0.21292,0.738,-1,1
248,0.21366,0.7381,-1,1
249,0.21439,0.7381,-1,1
250,0.21439,0.738,-1,1
251,0.21513,0.7379,-1,1
252,0.21587,0.7376,-1,1
253,0.2166,0.7374,-1,1
254,0.21734,0.7375,-1,1
255,0.21809,0.7379,-1,1
256,0.21882,0.7381,-1,1
257,0.21956,0.7381,-1,1
258,0.22029,0.7377,-1,1
259,0.22176,0.7375,-1,1
260,0.2225,0.7378,-1,1
261,0.2225,0.7381,-1,1
262,0.22324,0.7384,-1,1
263,0.22398,0.7386,-1,1
264,0.22472,0.7387,-1,1
265,0.22546,0.7383,-1,1
266,0.2262,0.7382,-1,1
267,0.22694,0.7387,-1,1
268,0.22768,0.7391,-1,1
269,0.22842,0.7396,-1,1
270,0.2299,0.7393,-1,1
271,0.23064,0.7391,-1,1
272,0.23064,0.7392,-1,1
273,0.23138,0.7393,-1,1
274,0.23212,0.7397,-1,1
275,0.23287,0.7406,-1,1
276,0.23361,0.7415,-1,1
277,0.23435,0.7415,-1,1
278,0.23509,0.7416,-1,1
279,0.23584,0.7419,-1,1
280,0.23658,0.7429,-1,1
281,0.23807,0.7439,-1,1
282,0.23882,0.7445,-1,1
283,0.23882,0.745,-1,1
284,0.23957,0.7452,-1,1
285,0.24031,0.7453,-1,1
286,0.24106,0.7455,-1,1
287,0.24181,0.7465,-1,1
288,0.24257,0.7477,-1,1
289,0.24332,0.7485,-1,1
290,0.24407,0.7488,-1,1
291,0.24482,0.7493,-1,1
292,0.24633,0.7503,-1,1
293,0.24633,0.7517,-1,1
294,0.24709,0.7531,-1,1
295,0.24785,0.7544,-1,1
296,0.24861,0.7555,-1,1
297,0.24937,0.7562,-1,1
298,0.25013,0.7572,-1,1
299,0.2509,0.7584,-1,1
300,0.25166,0.7601,-1,1
301,0.25243,0.7615,-1,1
302,0.2532,0.7625,-1,1
303,0.25397,0.7635,-1,1
304,0.25474,0.7646,-1,1
305,0.25551,0.7662,-1,1
306,0.25629,0.7682,-1,1
307,0.25707,0.7702,-1,1
308,0.25863,0.7716,-1,1
309,0.2594,0.7731,-1,1
310,0.26019,0.7748,-1,1
311,0.26098,0.777,-1,1
312,0.26177,0.7795,-1,1
313,0.26256,0.7817,-1,1
314,0.26336,0.7839,-1,1
315,0.26415,0.7856,-1,1
316,0.26495,0.7877,-1,1
317,0.26575,0.7898,-1,1
318,0.26735,0.7925,-1,1
319,0.26816,0.7951,-1,1
320,0.26896,0.7975,-1,1
321,0.26978,0.7998,-1,1
322,0.27059,0.8023,-1,1
323,0.27141,0.8049,-1,1
324,0.27223,0.8076,-1,1
325,0.27305,0.8102,-1,1
326,0.27387,0.8123,-1,1
327,0.27469,0.8146,-1,1
328,0.27552,0.8171,-1,1
329,0.27635,0.8196,-1,1
330,0.27718,0.8223,-1,1
331,0.27886,0.8249,-1,1
332,0.2797,0.8271,-1,1
333,0.28054,0.8294,-1,1
334,0.28138,0.8317,-1,1
335,0.28222,0.8343,-1,1
336,0.28307,0.8367,-1,1
337,0.28392,0.8395,-1,1
338,0.28478,0.8422,-1,1
339,0.28563,0.845,-1,1
340,0.28649,0.8473,-1,1
341,0.28735,0.8494,-1,1
342,0.28821,0.8517,-1,1
343,0.28908,0.8541,-1,1
344,0.28995,0.8566,-1,1
345,0.29081,0.859,-1,1
346,0.29169,0.8617,-1,1
347,0.29256,0.8641,-1,1
348,0.29344,0.8666,-1,1
349,0.29432,0.869,-1,1
350,0.29521,0.8715,-1,1
351,0.29609,0.874,-1,1
352,0.29698,0.8764,-1,1
353,0.29787,0.8789,-1,1
354,0.29876,0.8815,-1,1
355,0.29966,0.8844,-1,1
356,0.30056,0.8871,-1,1
357,0.30146,0.8895,-1,1
358,0.30236,0.8916,-1,1
359,0.30327,0.8941,-1,1
360,0.30418,0.8969,-1,1
361,0.30509,0.8995,-1,1
362,0.306,0.9018,-1,1
363,0.30691,0.9042,-1,1
364,0.30783,0.9067,-1,1
365,0.30875,0.9091,-1,1
366,0.30967,0.9115,-1,1
367,0.3106,0.914,-1,1
368,0.31152,0.9162,-1,1
369,0.31245,0.9183,-1,1
370,0.31338,0.9202,-1,1
371,0.31431,0.9225,-1,1
372,0.31525,0.9251,-1,1
373,0.31618,0.9275,-1,1
374,0.31712,0.9295,-1,1
375,0.31806,0.9315,-1,1
376,0.31901,0.9332,-1,1
377,0.31995,0.9351,-1,1
378,0.32089,0.9374,-1,1
379,0.32184,0.9395,-1,1
380,0.32279,0.9417,-1,1
381,0.32375,0.9438,-1,1
382,0.3247,0.9458,-1,1
383,0.32566,0.9477,-1,1
384,0.32662,0.9495,-1,1
385,0.32758,0.9512,-1,1
386,0.32854,0.9533,-1,1
387,0.3295,0.9549,-1,1
388,0.33046,0.9566,-1,1
389,0.33142,0.9581,-1,1
390,0.33239,0.9597,-1,1
391,0.33336,0.9611,-1,1
392,0.33433,0.9626,-1,1
393,0.3353,0.9638,-1,1
394,0.33627,0.9652,-1,1
395,0.33724,0.9663,-1,1
396,0.33821,0.9675,-1,1
397,0.33919,0.969,-1,1
398,0.34016,0.9705,-1,1
399,0.34114,0.9721,-1,1
400,0.34213,0.9734,-1,1
401,0.3431,0.9745,-1,1
402,0.34408,0.9751,-1,1
403,0.34506,0.976,-1,1
404,0.34604,0.9769,-1,1
405,0.34702,0.9784,-1,1
406,0.34801,0.9795,-1,1
407,0.34899,0.9808,-1,1
408,0.34998,0.9817,-1,1
409,0.35097,0.9822,-1,1
410,0.35195,0.9825,-1,1
411,0.35294,0.9831,-1,1
412,0.35392,0.9843,-1,1
413,0.35491,0.9854,-1,1
414,0.35591,0.9866,-1,1
415,0.3569,0.9873,-1,1
416,0.35789,0.988,-1,1
417,0.35888,0.9884,-1,1
418,0.35987,0.9886,-1,1
419,0.36086,0.9893,-1,1
420,0.36185,0.9902,-1,1
421,0.36285,0.9911,-1,1
422,0.36384,0.9919,-1,1
423,0.36484,0.9927,-1,1
424,0.36584,0.9931,-1,1
425,0.36683,0.9934,-1,1
426,0.36783,0.9937,-1,1
427,0.36882,0.9942,-1,1
428,0.36982,0.9949,-1,1
429,0.37082,0.9955,-1,1
430,0.37182,0.9961,-1,1
431,0.37381,0.9968,-1,1
432,0.37381,0.9969,-1,1
433,0.37481,0.9969,-1,1
434,0.37581,0.9969,-1,1
435,0.3768,0.9971,-1,1
436,0.3778,0.9977,-1,1
437,0.3798,0.9983,-1,1
438,0.3808,0.9988,-1,1
439,0.38181,0.9991,-1,1
440,0.3828,0.999,-1,1
441,0.3838,0.9985,-1,1
442,0.3848,0.9984,-1,1
443,0.38579,0.9983,-1,1
444,0.3868,0.9988,-1,1
445,0.3878,0.9993,-1,1
446,0.3888,0.9997,-1,1
447,0.3898,0.9995,-1,1
448,0.3908,0.999,-1,1
449,0.39279,0.9986,-1,1
450,0.39379,0.9986,-1,1
451,0.39479,0.999,-1,1
452,0.39578,0.9993,-1,1
453,0.39678,0.9997,-1,1
454,0.39778,0.9994,-1,1
455,0.39878,0.9987,-1,1
456,0.39977,0.9978,-1,1
457,0.40077,0.9971,-1,1
458,0.40276,0.9971,-1,1
459,0.40375,0.9971,-1,1
460,0.40475,0.997,-1,1
461,0.40574,0.9964,-1,1
462,0.40674,0.996,-1,1
463,0.40773,0.9953,-1,1
464,0.40872,0.9947,-1,1
465,0.40972,0.9944,-1,1
466,0.41071,0.9942,-1,1
467,0.41171,0.9946,-1,1
468,0.4127,0.9947,-1,1
469,0.4137,0.9944,-1,1
470,0.41469,0.9937,-1,1
471,0.41567,0.9932,-1,1
472,0.41667,0.9928,-1,1
473,0.41766,0.9926,-1,1
474,0.41865,0.9924,-1,1
475,0.41964,0.9925,-1,1
476,0.42063,0.9922,-1,1
477,0.42162,0.9915,-1,1
478,0.42261,0.9906,-1,1
479,0.42359,0.9898,-1,1
480,0.42458,0.9892,-1,1
481,0.42556,0.9888,-1,1
482,0.42655,0.9885,-1,1
483,0.42754,0.9881,-1,1
484,0.42853,0.9878,-1,1
485,0.42951,0.987,-1,1
486,0.43049,0.9863,-1,1
487,0.43148,0.9854,-1,1
488,0.43245,0.9845,-1,1
489,0.43344,0.9839,-1,1
490,0.43442,0.9835,-1,1
491,0.4354,0.9835,-1,1
492,0.43638,0.9829,-1,1
493,0.43736,0.9823,-1,1
494,0.43834,0.9812,-1,1
495,0.43931,0.9801,-1,1
496,0.44029,0.9793,-1,1
497,0.44127,0.9789,-1,1
498,0.44224,0.9786,-1,1
499,0.44322,0.9782,-1,1
500,0.44419,0.9779,-1,1
501,0.44517,0.9768,-1,1
502,0.44614,0.9759,-1,1
503,0.44711,0.9745,-1,1
504,0.44808,0.9737,-1,1
505,0.44904,0.973,-1,1
506,0.45002,0.9727,-1,1
507,0.45099,0.972,-1,1
508,0.45196,0.9714,-1,1
509,0.45292,0.9705,-1,1
510,0.45389,0.9695,-1,1
511,0.45485,0.9683,-1,1
512,0.45581,0.9673,-1,1
513,0.45678,0.9667,-1,1
514,0.45774,0.9665,-1,1
515,0.45871,0.9663,-1,1
516,0.45967,0.9658,-1,1
517,0.46063,0.9649,-1,1
518,0.46159,0.9638,-1,1
519,0.46255,0.9628,-1,1
520,0.46351,0.9621,-1,1
521,0.46447,0.962,-1,1
522,0.46543,0.9617,-1,1
523,0.46639,0.9616,-1,1
524,0.46735,0.961,-1,1
525,0.46831,0.9604,-1,1
526,0.46927,0.9595,-1,1
527,0.47022,0.9589,-1,1
528,0.47118,0.9584,-1,1
529,0.47213,0.9581,-1,1
530,0.47309,0.9577,-1,1
531,0.47405,0.9577,-1,1
532,0.475,0.9574,-1,1
533,0.47596,0.957,-1,1
534,0.47691,0.9561,-1,1
535,0.47786,0.9555,-1,1
536,0.47882,0.9548,-1,1
537,0.47977,0.9545,-1,1
538,0.48072,0.9544,-1,1
539,0.48168,0.9545,-1,1
540,0.48263,0.9545,-1,1
541,0.48359,0.9537,-1,1
542,0.48454,0.9532,-1,1
543,0.48548,0.9524,-1,1
544,0.48644,0.9525,-1,1
545,0.48739,0.9524,-1,1
546,0.48834,0.9524,-1,1
547,0.48929,0.9524,-1,1
548,0.49024,0.9524,-1,1
549,0.4912,0.9522,-1,1
550,0.49215,0.9519,-1,1
551,0.4931,0.9518,-1,1
552,0.49405,0.9514,-1,1
553,0.495,0.9517,-1,1
554,0.49595,0.9518,-1,1
555,0.49691,0.952,-1,1
556,0.49786,0.9523,-1,1
557,0.49882,0.9525,-1,1
558,0.50073,0.9527,-1,1
559,0.50168,0.953,-1,1
560,0.50264,0.9532,-1,1
561,0.50359,0.9536,-1,1
562,0.50455,0.9542,-1,1
563,0.50551,0.9551,-1,1
564,0.50647,0.9559,-1,1
565,0.50743,0.9566,-1,1
566,0.50839,0.957,-1,1
567,0.50935,0.9576,-1,1
568,0.51031,0.9587,-1,1
569,0.51224,0.9597,-1,1
570,0.51321,0.9609,-1,1
571,0.51321,0.962,-1,1
572,0.51418,0.9633,-1,1
573,0.51515,0.9643,-1,1
574,0.51612,0.9653,-1,1
575,0.51709,0.9666,-1,1
576,0.51807,0.9685,-1,1
577,0.52002,0.9704,-1,1
578,0.521,0.9721,-1,1
579,0.52199,0.9739,-1,1
580,0.52297,0.9758,-1,1
581,0.52396,0.9777,-1,1
582,0.52495,0.9798,-1,1
583,0.52594,0.9821,-1,1
584,0.52693,0.9843,-1,1
585,0.52793,0.9867,-1,1
586,0.52893,0.9892,-1,1
587,0.53095,0.9919,-1,1
588,0.53195,0.994,-1,1
589,0.53296,0.9962,-1,1
590,0.53397,0.999,-1,1
591,0.53499,1.0021,-1,1
592,0.53601,1.0054,-1,1
593,0.53704,1.0088,-1,1
594,0.53806,1.0121,-1,1
595,0.53909,1.015,-1,1
596,0.54012,1.0178,-1,1
597,0.54115,1.0207,-1,1
598,0.54219,1.0241,-1,1
599,0.54324,1.0279,-1,1
600,0.54429,1.0314,-1,1
601,0.54534,1.035,-1,1
602,0.54639,1.0383,-1,1
603,0.54745,1.041,-1,1
604,0.54851,1.0443,-1,1
605,0.54957,1.048,-1,1
606,0.55064,1.0518,-1,1
607,0.55171,1.0558,-1,1
608,0.55279,1.0599,-1,1
609,0.55388,1.0639,-1,1
610,0.55496,1.0674,-1,1
611,0.55604,1.0705,-1,1
612,0.55713,1.0739,-1,1
613,0.55823,1.0782,-1,1
614,0.55933,1.0826,-1,1
615,0.56044,1.0871,-1,1
616,0.56155,1.0915,-1,1
617,0.56267,1.0954,-1,1
618,0.56378,1.0989,-1,1
619,0.5649,1.1023,-1,1
620,0.56602,1.1064,-1,1
621,0.56716,1.1114,-1,1
622,0.5683,1.1167,-1,1
623,0.56944,1.1212,-1,1
624,0.57058,1.1253,-1,1
625,0.57173,1.1287,-1,1
626,0.57288,1.1326,-1,1
627,0.57404,1.137,-1,1
628,0.5752,1.1422,-1,1
629,0.57637,1.1476,-1,1
630,0.57755,1.1526,-1,1
631,0.57872,1.1567,-1,1
632,0.5799,1.1601,-1,1
633,0.58108,1.1641,-1,1
634,0.58227,1.1688,-1,1
635,0.58347,1.1742,-1,1
636,0.58467,1.1793,-1,1
637,0.58588,1.1841,-1,1
638,0.58708,1.188,-1,1
639,0.58829,1.1916,-1,1
640,0.5895,1.1952,-1,1
641,0.59072,1.1997,-1,1
642,0.59195,1.2051,-1,1
643,0.59318,1.2101,-1,1
644,0.59442,1.2145,-1,1
645,0.59565,1.2183,-1,1
646,0.59689,1.2219,-1,1
647,0.59813,1.2254,-1,1
648,0.59938,1.2299,-1,1
649,0.60064,1.2349,-1,1
650,0.6019,1.2401,-1,1
651,0.60316,1.2441,-1,1
652,0.60443,1.2475,-1,1
653,0.60569,1.2511,-1,1
654,0.60697,1.2549,-1,1
655,0.60825,1.2597,-1,1
656,0.60953,1.2644,-1,1
657,0.61082,1.2691,-1,1
658,0.61211,1.273,-1,1
659,0.6134,1.2761,-1,1
660,0.6147,1.2795,-1,1
661,0.616,1.2841,-1,1
662,0.61731,1.2886,-1,1
663,0.61862,1.2929,-1,1
664,0.61994,1.2969,-1,1
665,0.62125,1.3001,-1,1
666,0.62257,1.3034,-1,1
667,0.62389,1.3071,-1,1
668,0.62523,1.3114,-1,1
669,0.62656,1.3159,-1,1
670,0.6279,1.32,-1,1
671,0.62924,1.3231,-1,1
672,0.63057,1.3262,-1,1
673,0.63192,1.3295,-1,1
674,0.63327,1.3334,-1,1
675,0.63463,1.3375,-1,1
676,0.63599,1.3415,-1,1
677,0.63734,1.3447,-1,1
678,0.6387,1.3473,-1,1
679,0.64006,1.3502,-1,1
680,0.64143,1.3533,-1,1
681,0.64281,1.3572,-1,1
682,0.64419,1.3611,-1,1
683,0.64556,1.3645,-1,1
684,0.64694,1.3669,-1,1
685,0.64832,1.3693,-1,1
686,0.64971,1.372,-1,1
687,0.6511,1.3754,-1,1
688,0.65249,1.3791,-1,1
689,0.65389,1.3824,-1,1
690,0.65528,1.3848,-1,1
691,0.65667,1.3866,-1,1
692,0.65807,1.3887,-1,1
693,0.65948,1.3914,-1,1
694,0.66089,1.3948,-1,1
695,0.66371,1.3976,-1,1
696,0.66511,1.4,-1,1
697,0.66653,1.4021,-1,1
698,0.66794,1.4043,-1,1
699,0.66936,1.4065,-1,1
700,0.67078,1.4094,-1,1
701,0.6722,1.412,-1,1
702,0.67362,1.4142,-1,1
703,0.67505,1.416,-1,1
704,0.67648,1.4178,-1,1
705,0.67791,1.42,-1,1
706,0.67933,1.4219,-1,1
707,0.68076,1.4236,-1,1
708,0.68219,1.4251,-1,1
709,0.68363,1.4268,-1,1
710,0.68506,1.4281,-1,1
711,0.6865,1.4299,-1,1
712,0.68794,1.4316,-1,1
713,0.68938,1.4332,-1,1
714,0.69082,1.4345,-1,1
715,0.6937,1.4359,-1,1
716,0.69515,1.4376,-1,1
717,0.69659,1.4391,-1,1
718,0.69804,1.4403,-1,1
719,0.69949,1.4414,-1,1
720,0.70093,1.4429,-1,1
721,0.70238,1.444,-1,1
722,0.70383,1.4451,-1,1
723,0.70528,1.4462,-1,1
724,0.70673,1.4473,-1,1
725,0.70819,1.448,-1,1
726,0.70964,1.4487,-1,1
727,0.71109,1.4494,-1,1
728,0.71254,1.4502,-1,1
729,0.714,1.4511,-1,1
730,0.71545,1.4514,-1,1
731,0.7169,1.4518,-1,1
732,0.71835,1.4522,-1,1
733,0.71981,1.4526,-1,1
734,0.72126,1.4527,-1,1
735,0.72272,1.4532,-1,1
736,0.72417,1.4536,-1,1
737,0.72563,1.454,-1,1
738,0.72708,1.4539,-1,1
739,0.72853,1.4539,-1,1
740,0.72999,1.4541,-1,1
741,0.73145,1.4544,-1,1
742,0.7329,1.4546,-1,1
743,0.73436,1.4545,-1,1
744,0.73581,1.4544,-1,1
745,0.73726,1.4541,-1,1
746,0.73871,1.4539,-1,1
747,0.74017,1.454,-1,1
748,0.74162,1.4538,-1,1
749,0.74307,1.4531,-1,1
750,0.74597,1.4526,-1,1
751,0.74742,1.4523,-1,1
752,0.74887,1.452,-1,1
753,0.75032,1.4516,-1,1
754,0.75177,1.4511,-1,1
755,0.75321,1.4503,-1,1
756,0.75466,1.4494,-1,1
757,0.75611,1.4487,-1,1
758,0.75756,1.4485,-1,1
759,0.759,1.4481,-1,1
760,0.76044,1.4472,-1,1
761,0.76188,1.446,-1,1
762,0.76332,1.445,-1,1
763,0.76477,1.4443,-1,1
764,0.76621,1.4436,-1,1
765,0.76765,1.443,-1,1
766,0.76908,1.4422,-1,1
767,0.77052,1.4409,-1,1
768,0.77195,1.4395,-1,1
769,0.77338,1.4382,-1,1
770,0.77481,1.4372,-1,1
771,0.77768,1.4363,-1,1
772,0.77911,1.4351,-1,1
773,0.77911,1.4335,-1,1
774,0.78053,1.4316,-1,1
775,0.78338,1.4299,-1,1
776,0.78338,1.4286,-1,1
777,0.7848,1.4274,-1,1
778,0.78623,1.4262,-1,1
779,0.78906,1.4247,-1,1
780,0.79048,1.4231,-1,1
781,0.79189,1.4212,-1,1
782,0.79331,1.4198,-1,1
783,0.79472,1.4187,-1,1
784,0.79614,1.4179,-1,1
785,0.79754,1.4165,-1,1
786,0.79895,1.4147,-1,1
787,0.80036,1.4129,-1,1
788,0.80176,1.4112,-1,1
789,0.80317,1.4102,-1,1
790,0.80457,1.409,-1,1
791,0.80597,1.4076,-1,1
792,0.80737,1.4058,-1,1
793,0.80876,1.4041,-1,1
794,0.81016,1.4024,-1,1
795,0.81156,1.4011,-1,1
796,0.81295,1.3999,-1,1
797,0.81434,1.3986,-1,1
798,0.81573,1.3971,-1,1
799,0.81712,1.3953,-1,1
800,0.81851,1.3939,-1,1
801,0.81989,1.3927,-1,1
802,0.82128,1.3914,-1,1
803,0.82266,1.3901,-1,1
804,0.82405,1.3889,-1,1
805,0.82543,1.3874,-1,1
806,0.82681,1.3858,-1,1
807,0.82818,1.3841,-1,1
808,0.82956,1.3831,-1,1
809,0.83094,1.3822,-1,1
810,0.83232,1.381,-1,1
811,0.83369,1.3793,-1,1
812,0.83505,1.3774,-1,1
813,0.83642,1.3758,-1,1
814,0.8378,1.3749,-1,1
815,0.83917,1.3742,-1,1
816,0.84054,1.3732,-1,1
817,0.8419,1.3717,-1,1
818,0.84326,1.3697,-1,1
819,0.84462,1.3682,-1,1
820,0.84599,1.3676,-1,1
821,0.84736,1.3674,-1,1
822,0.84872,1.3667,-1,1
823,0.85007,1.3651,-1,1
824,0.85143,1.363,-1,1
825,0.85279,1.3616,-1,1
826,0.85415,1.3612,-1,1
827,0.85551,1.3615,-1,1
828,0.85687,1.3612,-1,1
829,0.85822,1.3597,-1,1
830,0.85957,1.3575,-1,1
831,0.86092,1.3564,-1,1
832,0.86229,1.3568,-1,1
833,0.86365,1.3577,-1,1
834,0.865,1.3576,-1,1
835,0.86635,1.3562,-1,1
836,0.86769,1.3543,-1,1
