cnt,pos,speed,Dir,Force,
1,0,1.0046,-1,1
2,0.00103998,1.0104,-1,1
3,0.00206995,1.0151,-1,1
4,0.00414991,1.019,-1,1
5,0.0051899,1.0229,-1,1
6,0.00623989,1.0269,-1,1
7,0.00623989,1.0317,-1,1
8,0.00728989,1.0364,-1,1
9,0.0083499,1.0414,-1,1
10,0.00941992,1.0466,-1,1
11,0.01156,1.0509,-1,1
12,0.01263,1.0538,-1,1
13,0.0137,1.057,-1,1
14,0.01477,1.0609,-1,1
15,0.0158601,1.0653,-1,1
16,0.0169501,1.07,-1,1
17,0.0180502,1.0744,-1,1
18,0.0191503,1.0789,-1,1
19,0.0202503,1.0826,-1,1
20,0.0213399,1.085,-1,1
21,0.02244,1.0878,-1,1
22,0.02354,1.0917,-1,1
23,0.0246601,1.0965,-1,1
24,0.0257902,1.1013,-1,1
25,0.0269103,1.1053,-1,1
26,0.0280299,1.1082,-1,1
27,0.02915,1.1103,-1,1
28,0.0302701,1.1124,-1,1
29,0.0314002,1.1155,-1,1
30,0.0325403,1.1201,-1,1
31,0.03369,1.1254,-1,1
32,0.0348401,1.1298,-1,1
33,0.0371299,1.1321,-1,1
34,0.03827,1.1336,-1,1
35,0.0394201,1.1361,-1,1
36,0.0405803,1.1403,-1,1
37,0.04175,1.1457,-1,1
38,0.0429301,1.1511,-1,1
39,0.0440903,1.1547,-1,1
40,0.0452499,1.1564,-1,1
41,0.0464101,1.1573,-1,1
42,0.0475802,1.1594,-1,1
43,0.04877,1.1642,-1,1
44,0.0499601,1.1697,-1,1
45,0.0511503,1.1736,-1,1
46,0.05233,1.1752,-1,1
47,0.0535102,1.1751,-1,1
48,0.0546899,1.1758,-1,1
49,0.0558801,1.1792,-1,1
50,0.0571003,1.1846,-1,1
51,0.05831,1.1897,-1,1
52,0.0595102,1.1926,-1,1
53,0.0606999,1.1926,-1,1
54,0.0618901,1.1924,-1,1
55,0.0631003,1.1943,-1,1
56,0.0643201,1.1986,-1,1
57,0.0667601,1.2032,-1,1
58,0.0679703,1.206,-1,1
59,0.06918,1.2068,-1,1
60,0.0703902,1.2072,-1,1
61,0.07163,1.2095,-1,1
62,0.0728703,1.2135,-1,1
63,0.07411,1.2183,-1,1
64,0.0753303,1.2216,-1,1
65,0.07655,1.2231,-1,1
66,0.0777802,1.2233,-1,1
67,0.07902,1.2253,-1,1
68,0.0815201,1.2297,-1,1
69,0.0827699,1.2338,-1,1
70,0.0840001,1.2361,-1,1
71,0.0852399,1.2364,-1,1
72,0.0864801,1.2367,-1,1
73,0.0877399,1.2387,-1,1
74,0.0890002,1.2424,-1,1
75,0.09027,1.2463,-1,1
76,0.0915203,1.2494,-1,1
77,0.0927701,1.2505,-1,1
78,0.0940199,1.2503,-1,1
79,0.0952802,1.2515,-1,1
80,0.09655,1.2547,-1,1
81,0.0978303,1.2586,-1,1
82,0.0991001,1.2613,-1,1
83,0.10036,1.2624,-1,1
84,0.10162,1.2621,-1,1
85,0.10289,1.2623,-1,1
86,0.10544,1.2648,-1,1
87,0.10673,1.2683,-1,1
88,0.10801,1.271,-1,1
89,0.10928,1.2724,-1,1
90,0.11055,1.2726,-1,1
91,0.11183,1.2729,-1,1
92,0.11311,1.2744,-1,1
93,0.11441,1.2768,-1,1
94,0.11569,1.2796,-1,1
95,0.11698,1.2814,-1,1
96,0.11826,1.2813,-1,1
97,0.12083,1.282,-1,1
98,0.12212,1.2836,-1,1
99,0.12342,1.2856,-1,1
100,0.12471,1.2873,-1,1
101,0.12599,1.2882,-1,1
102,0.12728,1.2884,-1,1
103,0.12857,1.2885,-1,1
104,0.12987,1.2893,-1,1
105,0.13116,1.2905,-1,1
106,0.13246,1.2919,-1,1
107,0.13375,1.292,-1,1
108,0.13504,1.2918,-1,1
109,0.13634,1.292,-1,1
110,0.13763,1.2929,-1,1
111,0.13893,1.2937,-1,1
112,0.14022,1.2943,-1,1
113,0.14152,1.2946,-1,1
114,0.14281,1.2947,-1,1
115,0.14541,1.295,-1,1
116,0.14671,1.2954,-1,1
117,0.148,1.2959,-1,1
118,0.1493,1.2963,-1,1
119,0.1506,1.2967,-1,1
120,0.1519,1.2967,-1,1
121,0.15319,1.2969,-1,1
122,0.15449,1.2973,-1,1
123,0.15579,1.2974,-1,1
124,0.15709,1.2975,-1,1
125,0.15839,1.2978,-1,1
126,0.15968,1.2978,-1,1
127,0.16098,1.2977,-1,1
128,0.16228,1.2978,-1,1
129,0.16357,1.2976,-1,1
130,0.16487,1.2977,-1,1
131,0.16617,1.298,-1,1
132,0.16747,1.298,-1,1
133,0.16876,1.2977,-1,1
134,0.17006,1.2973,-1,1
135,0.17136,1.297,-1,1
136,0.17265,1.2971,-1,1
137,0.17396,1.2975,-1,1
138,0.17655,1.2976,-1,1
139,0.17785,1.2974,-1,1
140,0.17914,1.2969,-1,1
141,0.18044,1.2968,-1,1
142,0.18174,1.2969,-1,1
143,0.18304,1.2975,-1,1
144,0.18434,1.298,-1,1
145,0.18563,1.2976,-1,1
146,0.18692,1.2972,-1,1
147,0.18822,1.2967,-1,1
148,0.19082,1.2971,-1,1
149,0.19212,1.2975,-1,1
150,0.19342,1.2977,-1,1
151,0.19471,1.297,-1,1
152,0.196,1.2965,-1,1
153,0.1973,1.2966,-1,1
154,0.19861,1.297,-1,1
155,0.19991,1.298,-1,1
156,0.20121,1.2983,-1,1
157,0.2025,1.2984,-1,1
158,0.2038,1.2979,-1,1
159,0.2051,1.2981,-1,1
160,0.20641,1.2991,-1,1
161,0.20771,1.3003,-1,1
162,0.20901,1.3011,-1,1
163,0.21031,1.3009,-1,1
164,0.21161,1.3006,-1,1
165,0.21292,1.3008,-1,1
166,0.21423,1.3018,-1,1
167,0.21553,1.303,-1,1
168,0.21814,1.3035,-1,1
169,0.21945,1.3037,-1,1
170,0.22075,1.304,-1,1
171,0.22207,1.3049,-1,1
172,0.22338,1.3058,-1,1
173,0.22469,1.3067,-1,1
174,0.22599,1.3072,-1,1
175,0.2273,1.3075,-1,1
176,0.22861,1.3081,-1,1
177,0.22993,1.3091,-1,1
178,0.23125,1.3106,-1,1
179,0.23256,1.3113,-1,1
180,0.23386,1.3116,-1,1
181,0.23649,1.3122,-1,1
182,0.23649,1.3133,-1,1
183,0.23782,1.3147,-1,1
184,0.23914,1.3163,-1,1
185,0.24045,1.317,-1,1
186,0.24176,1.3167,-1,1
187,0.24308,1.3162,-1,1
188,0.2444,1.3167,-1,1
189,0.24573,1.3184,-1,1
190,0.24705,1.3193,-1,1
191,0.24969,1.3189,-1,1
192,0.24969,1.3184,-1,1
193,0.25101,1.3186,-1,1
194,0.25366,1.3197,-1,1
195,0.255,1.3218,-1,1
196,0.25633,1.3236,-1,1
197,0.25765,1.3246,-1,1
198,0.25897,1.3246,-1,1
199,0.2603,1.3247,-1,1
200,0.26164,1.3263,-1,1
201,0.26298,1.3283,-1,1
202,0.26431,1.3301,-1,1
203,0.26697,1.3305,-1,1
204,0.26831,1.3308,-1,1
205,0.26965,1.3312,-1,1
206,0.26965,1.3325,-1,1
207,0.27233,1.3341,-1,1
208,0.27366,1.3355,-1,1
209,0.275,1.3364,-1,1
210,0.27634,1.3367,-1,1
211,0.27768,1.3377,-1,1
212,0.27903,1.3385,-1,1
213,0.28037,1.3398,-1,1
214,0.28171,1.3401,-1,1
215,0.28305,1.3403,-1,1
216,0.2844,1.3407,-1,1
217,0.28574,1.3416,-1,1
218,0.28709,1.3426,-1,1
219,0.28843,1.3431,-1,1
220,0.28977,1.3432,-1,1
221,0.29111,1.343,-1,1
222,0.29246,1.3435,-1,1
223,0.29381,1.3445,-1,1
224,0.29516,1.3453,-1,1
225,0.2965,1.3452,-1,1
226,0.29784,1.3447,-1,1
227,0.29919,1.3445,-1,1
228,0.30189,1.3448,-1,1
229,0.30323,1.3451,-1,1
230,0.30457,1.345,-1,1
231,0.30591,1.3446,-1,1
232,0.30726,1.3443,-1,1
233,0.30861,1.3443,-1,1
234,0.30995,1.3444,-1,1
235,0.31129,1.3445,-1,1
236,0.31263,1.344,-1,1
237,0.31397,1.3434,-1,1
238,0.31532,1.343,-1,1
239,0.31667,1.3429,-1,1
240,0.31801,1.3424,-1,1
241,0.32068,1.3418,-1,1
242,0.32202,1.3411,-1,1
243,0.32336,1.3407,-1,1
244,0.32336,1.3407,-1,1
245,0.32471,1.3412,-1,1
246,0.32605,1.3415,-1,1
247,0.32738,1.3406,-1,1
248,0.32871,1.3389,-1,1
249,0.33004,1.338,-1,1
250,0.33139,1.3389,-1,1
251,0.33273,1.3389,-1,1
252,0.33539,1.3374,-1,1
253,0.33671,1.3351,-1,1
254,0.33805,1.3335,-1,1
255,0.33939,1.333,-1,1
256,0.34073,1.333,-1,1
257,0.34205,1.3327,-1,1
258,0.34337,1.3318,-1,1
259,0.34469,1.33,-1,1
260,0.34602,1.3282,-1,1
261,0.34735,1.3278,-1,1
262,0.35,1.3276,-1,1
263,0.35131,1.3262,-1,1
264,0.35262,1.3241,-1,1
265,0.35394,1.3216,-1,1
266,0.35526,1.32,-1,1
267,0.35658,1.3192,-1,1
268,0.35789,1.3183,-1,1
269,0.35919,1.317,-1,1
270,0.3605,1.3149,-1,1
271,0.36181,1.3131,-1,1
272,0.36312,1.3125,-1,1
273,0.36443,1.3124,-1,1
274,0.36574,1.3116,-1,1
275,0.36703,1.3096,-1,1
276,0.36833,1.3074,-1,1
277,0.36964,1.306,-1,1
278,0.37095,1.3057,-1,1
279,0.37225,1.3052,-1,1
280,0.37354,1.3038,-1,1
281,0.37483,1.3016,-1,1
282,0.37612,1.2993,-1,1
283,0.37742,1.2985,-1,1
284,0.37872,1.2974,-1,1
285,0.38129,1.2957,-1,1
286,0.38129,1.2936,-1,1
287,0.38386,1.2914,-1,1
288,0.38386,1.29,-1,1
289,0.38644,1.2896,-1,1
290,0.38773,1.2889,-1,1
291,0.389,1.2871,-1,1
292,0.39027,1.2849,-1,1
293,0.39154,1.2824,-1,1
294,0.39283,1.2818,-1,1
295,0.39412,1.2816,-1,1
296,0.3954,1.2814,-1,1
297,0.39666,1.279,-1,1
298,0.39792,1.2764,-1,1
299,0.39919,1.2747,-1,1
300,0.40175,1.2745,-1,1
301,0.40302,1.2747,-1,1
302,0.40428,1.2737,-1,1
303,0.40553,1.2712,-1,1
304,0.40679,1.2685,-1,1
305,0.40806,1.2676,-1,1
306,0.40934,1.2675,-1,1
307,0.4106,1.2681,-1,1
308,0.41186,1.2668,-1,1
309,0.4131,1.2633,-1,1
310,0.41435,1.2597,-1,1
311,0.41561,1.2584,-1,1
312,0.41688,1.2593,-1,1
313,0.41814,1.2604,-1,1
314,0.41939,1.2595,-1,1
315,0.42063,1.2564,-1,1
316,0.42186,1.2535,-1,1
317,0.42311,1.2517,-1,1
318,0.42437,1.2523,-1,1
319,0.42563,1.2542,-1,1
320,0.42688,1.2543,-1,1
321,0.42811,1.2508,-1,1
322,0.43057,1.2472,-1,1
323,0.43181,1.2454,-1,1
324,0.43307,1.246,-1,1
325,0.43431,1.2468,-1,1
326,0.43555,1.2455,-1,1
327,0.43677,1.2427,-1,1
328,0.43799,1.2389,-1,1
329,0.43922,1.2358,-1,1
330,0.44046,1.2353,-1,1
331,0.4417,1.2368,-1,1
332,0.44293,1.2365,-1,1
333,0.44415,1.2341,-1,1
334,0.44537,1.23,-1,1
335,0.44659,1.2273,-1,1
336,0.44782,1.2266,-1,1
337,0.44905,1.2277,-1,1
338,0.45027,1.2278,-1,1
339,0.45148,1.226,-1,1
340,0.45269,1.2229,-1,1
341,0.45391,1.2202,-1,1
342,0.45513,1.2192,-1,1
343,0.45635,1.2185,-1,1
344,0.45877,1.2179,-1,1
345,0.45997,1.2163,-1,1
346,0.46118,1.2143,-1,1
347,0.46239,1.2121,-1,1
348,0.46359,1.2106,-1,1
349,0.4648,1.2095,-1,1
350,0.466,1.2084,-1,1
351,0.4672,1.207,-1,1
352,0.46839,1.2049,-1,1
353,0.46959,1.2033,-1,1
354,0.47079,1.202,-1,1
355,0.47317,1.201,-1,1
356,0.47437,1.1993,-1,1
357,0.47556,1.1975,-1,1
358,0.47674,1.1954,-1,1
359,0.47793,1.1937,-1,1
360,0.47911,1.1919,-1,1
361,0.48029,1.1903,-1,1
362,0.48148,1.1887,-1,1
363,0.48266,1.1873,-1,1
364,0.48384,1.1857,-1,1
365,0.48502,1.1839,-1,1
366,0.48619,1.1821,-1,1
367,0.48736,1.1803,-1,1
368,0.48853,1.1788,-1,1
369,0.48971,1.1776,-1,1
370,0.49088,1.1765,-1,1
371,0.49205,1.1751,-1,1
372,0.49321,1.1733,-1,1
373,0.49437,1.171,-1,1
374,0.49669,1.1692,-1,1
375,0.49786,1.1678,-1,1
376,0.49902,1.1666,-1,1
377,0.50018,1.1653,-1,1
378,0.50133,1.1633,-1,1
379,0.50248,1.1609,-1,1
380,0.50363,1.1585,-1,1
381,0.50478,1.1567,-1,1
382,0.50593,1.1552,-1,1
383,0.50822,1.1535,-1,1
384,0.50936,1.1514,-1,1
385,0.5105,1.1492,-1,1
386,0.51164,1.1469,-1,1
387,0.51278,1.1447,-1,1
388,0.51391,1.1432,-1,1
389,0.51505,1.1419,-1,1
390,0.51618,1.1404,-1,1
391,0.51731,1.138,-1,1
392,0.51843,1.1355,-1,1
393,0.51956,1.1339,-1,1
394,0.52068,1.1325,-1,1
395,0.52181,1.1311,-1,1
396,0.52293,1.1294,-1,1
397,0.52516,1.127,-1,1
398,0.52628,1.1246,-1,1
399,0.52739,1.1222,-1,1
400,0.5285,1.1203,-1,1
401,0.52961,1.1187,-1,1
402,0.53072,1.1169,-1,1
403,0.53182,1.1145,-1,1
404,0.53293,1.1121,-1,1
405,0.53403,1.1096,-1,1
406,0.53512,1.1074,-1,1
407,0.53732,1.1057,-1,1
408,0.53841,1.1038,-1,1
409,0.5395,1.1015,-1,1
410,0.54059,1.099,-1,1
411,0.54059,1.0966,-1,1
412,0.54168,1.0946,-1,1
413,0.54277,1.0929,-1,1
414,0.54493,1.0909,-1,1
415,0.54601,1.0888,-1,1
416,0.54709,1.0864,-1,1
417,0.54816,1.084,-1,1
418,0.54923,1.0817,-1,1
419,0.5503,1.0798,-1,1
420,0.55137,1.0778,-1,1
421,0.55244,1.0759,-1,1
422,0.5535,1.0736,-1,1
423,0.55456,1.071,-1,1
424,0.55562,1.0684,-1,1
425,0.55667,1.066,-1,1
426,0.55772,1.0638,-1,1
427,0.55982,1.0614,-1,1
428,0.56087,1.0589,-1,1
429,0.56192,1.0563,-1,1
430,0.56295,1.0534,-1,1
431,0.56399,1.0503,-1,1
432,0.56503,1.0475,-1,1
433,0.56606,1.045,-1,1
434,0.56709,1.0426,-1,1
435,0.56812,1.0401,-1,1
436,0.57018,1.0373,-1,1
437,0.5712,1.0345,-1,1
438,0.57221,1.0316,-1,1
439,0.57323,1.0287,-1,1
440,0.57424,1.0262,-1,1
441,0.57525,1.0237,-1,1
442,0.57626,1.021,-1,1
443,0.57727,1.0183,-1,1
444,0.57827,1.0154,-1,1
445,0.57927,1.0125,-1,1
446,0.58027,1.0094,-1,1
447,0.58226,1.0064,-1,1
448,0.58325,1.0037,-1,1
449,0.58424,1.0011,-1,1
450,0.58523,0.9985,-1,1
451,0.58621,0.9956,-1,1
452,0.58719,0.9928,-1,1
453,0.58817,0.9897,-1,1
454,0.58914,0.9868,-1,1
455,0.59011,0.9839,-1,1
456,0.59108,0.9815,-1,1
457,0.59205,0.9791,-1,1
458,0.59398,0.9767,-1,1
459,0.59495,0.974,-1,1
460,0.59591,0.9711,-1,1
461,0.59686,0.9682,-1,1
462,0.59781,0.9653,-1,1
463,0.59876,0.9627,-1,1
464,0.59971,0.9603,-1,1
465,0.60066,0.958,-1,1
466,0.60161,0.9555,-1,1
467,0.60255,0.953,-1,1
468,0.60349,0.9504,-1,1
469,0.60442,0.9477,-1,1
470,0.60535,0.945,-1,1
471,0.60629,0.9427,-1,1
472,0.60722,0.9405,-1,1
473,0.60815,0.9384,-1,1
474,0.60907,0.9356,-1,1
475,0.61091,0.9325,-1,1
476,0.61183,0.9295,-1,1
477,0.61274,0.9269,-1,1
478,0.61365,0.9243,-1,1
479,0.61457,0.9218,-1,1
480,0.61547,0.9193,-1,1
481,0.61638,0.9166,-1,1
482,0.61728,0.9139,-1,1
483,0.61818,0.9108,-1,1
484,0.61907,0.9083,-1,1
485,0.61997,0.9059,-1,1
486,0.62086,0.9035,-1,1
487,0.62264,0.9009,-1,1
488,0.62353,0.8981,-1,1
489,0.62441,0.8954,-1,1
490,0.62529,0.8925,-1,1
491,0.62529,0.8899,-1,1
492,0.62617,0.8874,-1,1
493,0.62704,0.8851,-1,1
494,0.62792,0.8825,-1,1
495,0.62879,0.8802,-1,1
496,0.63052,0.8778,-1,1
497,0.63139,0.8753,-1,1
498,0.63225,0.8731,-1,1
499,0.63311,0.8707,-1,1
500,0.63397,0.8686,-1,1
501,0.63482,0.8662,-1,1
502,0.63653,0.8636,-1,1
503,0.63653,0.8611,-1,1
504,0.63738,0.8588,-1,1
505,0.63823,0.8562,-1,1
506,0.63992,0.8538,-1,1
507,0.64076,0.8513,-1,1
508,0.6416,0.849,-1,1
509,0.64244,0.8469,-1,1
510,0.64327,0.8449,-1,1
511,0.64411,0.843,-1,1
512,0.64494,0.8412,-1,1
513,0.64577,0.8393,-1,1
514,0.6466,0.8376,-1,1
515,0.64743,0.8358,-1,1
516,0.64826,0.834,-1,1
517,0.64908,0.8324,-1,1
518,0.6499,0.8308,-1,1
519,0.65073,0.8294,-1,1
520,0.65155,0.8278,-1,1
521,0.65237,0.826,-1,1
522,0.65319,0.8244,-1,1
523,0.654,0.8229,-1,1
524,0.65482,0.8216,-1,1
525,0.65564,0.8203,-1,1
526,0.65645,0.8189,-1,1
527,0.65726,0.8176,-1,1
528,0.65888,0.8162,-1,1
529,0.65969,0.8148,-1,1
530,0.6605,0.8134,-1,1
531,0.6613,0.8122,-1,1
532,0.66211,0.8108,-1,1
533,0.66291,0.8096,-1,1
534,0.66372,0.8083,-1,1
535,0.66452,0.8071,-1,1
536,0.66532,0.8059,-1,1
537,0.66612,0.8047,-1,1
538,0.66692,0.8036,-1,1
539,0.66772,0.8026,-1,1
540,0.66852,0.8019,-1,1
541,0.66931,0.8012,-1,1
542,0.67011,0.8003,-1,1
543,0.6709,0.7992,-1,1
544,0.67169,0.798,-1,1
545,0.67249,0.7972,-1,1
546,0.67328,0.7967,-1,1
547,0.67408,0.7961,-1,1
548,0.67487,0.7952,-1,1
549,0.67566,0.7941,-1,1
550,0.67645,0.7932,-1,1
551,0.67724,0.7926,-1,1
552,0.67882,0.792,-1,1
553,0.67961,0.7911,-1,1
554,0.68039,0.7902,-1,1
555,0.68118,0.7895,-1,1
556,0.68197,0.7889,-1,1
557,0.68275,0.7885,-1,1
558,0.68354,0.7881,-1,1
559,0.68433,0.7878,-1,1
560,0.68511,0.7872,-1,1
561,0.68668,0.7863,-1,1
562,0.68746,0.7858,-1,1
563,0.68825,0.7855,-1,1
564,0.68903,0.7854,-1,1
565,0.68981,0.7847,-1,1
566,0.69059,0.7839,-1,1
567,0.69137,0.7832,-1,1
568,0.69215,0.7829,-1,1
569,0.69294,0.7826,-1,1
570,0.69372,0.7821,-1,1
571,0.69449,0.7815,-1,1
572,0.69527,0.7806,-1,1
573,0.69605,0.7801,-1,1
574,0.69683,0.7797,-1,1
575,0.6976,0.7795,-1,1
576,0.69838,0.7789,-1,1
577,0.69915,0.7781,-1,1
578,0.69993,0.7772,-1,1
579,0.70071,0.7768,-1,1
580,0.70148,0.7762,-1,1
581,0.70303,0.7755,-1,1
582,0.7038,0.7749,-1,1
583,0.70457,0.7744,-1,1
584,0.70534,0.7739,-1,1
585,0.70611,0.7733,-1,1
586,0.70689,0.7731,-1,1
587,0.70766,0.7727,-1,1
588,0.70843,0.7724,-1,1
589,0.7092,0.7717,-1,1
590,0.70997,0.7715,-1,1
591,0.71074,0.7716,-1,1
592,0.71151,0.7716,-1,1
593,0.71228,0.7714,-1,1
594,0.71305,0.7708,-1,1
595,0.71382,0.7705,-1,1
596,0.71459,0.7703,-1,1
597,0.71536,0.7704,-1,1
598,0.71613,0.7704,-1,1
599,0.7169,0.7702,-1,1
600,0.71767,0.7698,-1,1
601,0.71844,0.7695,-1,1
602,0.7192,0.7694,-1,1
603,0.71997,0.7694,-1,1
604,0.72074,0.7695,-1,1
605,0.72151,0.7695,-1,1
606,0.72228,0.7693,-1,1
607,0.72305,0.7692,-1,1
608,0.72382,0.7691,-1,1
609,0.72459,0.7691,-1,1
610,0.72536,0.7694,-1,1
611,0.72613,0.7695,-1,1
612,0.7269,0.7695,-1,1
613,0.72767,0.7692,-1,1
614,0.72843,0.7692,-1,1
615,0.72998,0.7695,-1,1
616,0.73075,0.7698,-1,1
617,0.73075,0.7699,-1,1
618,0.73152,0.7699,-1,1
619,0.73229,0.7699,-1,1
620,0.73306,0.7699,-1,1
621,0.73384,0.7703,-1,1
622,0.73461,0.7708,-1,1
623,0.73538,0.7712,-1,1
624,0.73615,0.7713,-1,1
625,0.73692,0.7714,-1,1
626,0.73847,0.7719,-1,1
627,0.73925,0.7726,-1,1
628,0.73925,0.7732,-1,1
629,0.74002,0.7739,-1,1
630,0.7408,0.7743,-1,1
631,0.74157,0.7743,-1,1
632,0.74235,0.7743,-1,1
633,0.74312,0.775,-1,1
634,0.74468,0.776,-1,1
635,0.74546,0.7766,-1,1
636,0.74624,0.7767,-1,1
637,0.74701,0.7768,-1,1
638,0.7478,0.7773,-1,1
639,0.74858,0.778,-1,1
640,0.74936,0.7788,-1,1
641,0.75014,0.7796,-1,1
642,0.75092,0.7803,-1,1
643,0.7517,0.7805,-1,1
644,0.75249,0.7812,-1,1
645,0.75327,0.7822,-1,1
646,0.75485,0.7833,-1,1
647,0.75564,0.784,-1,1
648,0.75642,0.7846,-1,1
649,0.75721,0.785,-1,1
650,0.758,0.7857,-1,1
651,0.75879,0.7867,-1,1
652,0.75958,0.7877,-1,1
653,0.76037,0.7887,-1,1
654,0.76116,0.789,-1,1
655,0.76196,0.7895,-1,1
656,0.76275,0.7903,-1,1
657,0.76355,0.7916,-1,1
658,0.76435,0.7925,-1,1
659,0.76515,0.7933,-1,1
660,0.76594,0.7938,-1,1
661,0.76673,0.7942,-1,1
662,0.76753,0.7951,-1,1
663,0.76833,0.7961,-1,1
664,0.76913,0.7972,-1,1
665,0.76993,0.7978,-1,1
666,0.77074,0.7983,-1,1
667,0.77154,0.7987,-1,1
668,0.77235,0.7997,-1,1
669,0.77315,0.8007,-1,1
670,0.77476,0.8013,-1,1
671,0.77476,0.802,-1,1
672,0.77556,0.8026,-1,1
673,0.77636,0.8031,-1,1
674,0.77798,0.8041,-1,1
675,0.77879,0.8052,-1,1
676,0.7796,0.806,-1,1
677,0.78041,0.8066,-1,1
678,0.78122,0.807,-1,1
679,0.78204,0.8075,-1,1
680,0.78285,0.8087,-1,1
681,0.78366,0.8097,-1,1
682,0.78447,0.8103,-1,1
683,0.78528,0.811,-1,1
684,0.7861,0.8114,-1,1
685,0.78692,0.8122,-1,1
686,0.78856,0.8131,-1,1
687,0.78937,0.8138,-1,1
688,0.79019,0.8143,-1,1
689,0.79101,0.815,-1,1
690,0.79183,0.8158,-1,1
691,0.79265,0.8166,-1,1
692,0.79347,0.8175,-1,1
693,0.79429,0.8184,-1,1
694,0.79511,0.8194,-1,1
695,0.79594,0.8201,-1,1
696,0.79676,0.8209,-1,1
697,0.79759,0.8216,-1,1
698,0.79841,0.8222,-1,1
699,0.80006,0.8231,-1,1
700,0.80089,0.8238,-1,1
701,0.80172,0.8249,-1,1
702,0.80255,0.8258,-1,1
703,0.80338,0.8267,-1,1
704,0.80421,0.8271,-1,1
705,0.80504,0.8276,-1,1
706,0.80587,0.8281,-1,1
707,0.8067,0.8289,-1,1
708,0.80753,0.8298,-1,1
709,0.80919,0.8303,-1,1
710,0.81003,0.8311,-1,1
711,0.81087,0.8318,-1,1
712,0.8117,0.8327,-1,1
713,0.81254,0.8332,-1,1
714,0.81337,0.8335,-1,1
715,0.8142,0.8335,-1,1
716,0.81504,0.8339,-1,1
717,0.81587,0.8345,-1,1
718,0.81671,0.8353,-1,1
719,0.81755,0.8359,-1,1
720,0.81839,0.8363,-1,1
721,0.81923,0.8367,-1,1
722,0.82007,0.8371,-1,1
723,0.82091,0.8376,-1,1
724,0.82175,0.8379,-1,1
725,0.82259,0.8384,-1,1
726,0.82343,0.8389,-1,1
727,0.82511,0.8398,-1,1
728,0.82596,0.8405,-1,1
729,0.8268,0.8411,-1,1
730,0.82765,0.8413,-1,1
731,0.82849,0.8413,-1,1
732,0.82933,0.8413,-1,1
733,0.83017,0.8414,-1,1
734,0.83101,0.8422,-1,1
735,0.83186,0.8427,-1,1
736,0.8327,0.8431,-1,1
737,0.83354,0.843,-1,1
738,0.8344,0.8432,-1,1
739,0.83524,0.8432,-1,1
740,0.83693,0.8429,-1,1
741,0.83777,0.8425,-1,1
742,0.83861,0.8424,-1,1
743,0.83861,0.8428,-1,1
744,0.83945,0.843,-1,1
745,0.8403,0.8436,-1,1
746,0.84114,0.8438,-1,1
747,0.84199,0.844,-1,1
748,0.84284,0.8438,-1,1
749,0.84368,0.8435,-1,1
750,0.84536,0.8436,-1,1
751,0.8462,0.8437,-1,1
752,0.84704,0.8438,-1,1
753,0.84788,0.8436,-1,1
754,0.84873,0.8436,-1,1
755,0.84958,0.8435,-1,1
756,0.85042,0.8434,-1,1
757,0.85126,0.843,-1,1
758,0.8521,0.8424,-1,1
759,0.85294,0.8421,-1,1
760,0.85462,0.842,-1,1
761,0.85546,0.8421,-1,1
762,0.8563,0.842,-1,1
763,0.85714,0.8421,-1,1
764,0.85799,0.8422,-1,1
765,0.85883,0.8418,-1,1
766,0.85967,0.841,-1,1
767,0.8605,0.84,-1,1
768,0.86134,0.8393,-1,1
769,0.86217,0.839,-1,1
770,0.86301,0.8388,-1,1
771,0.86385,0.8386,-1,1
772,0.86468,0.8383,-1,1
773,0.86552,0.8376,-1,1
774,0.86636,0.8367,-1,1
775,0.86719,0.8359,-1,1
776,0.86803,0.8355,-1,1
777,0.86885,0.8351,-1,1
778,0.86968,0.8348,-1,1
779,0.87051,0.8343,-1,1
780,0.87218,0.834,-1,1
781,0.87302,0.8337,-1,1
782,0.87385,0.8331,-1,1
783,0.87468,0.8323,-1,1
784,0.8755,0.8312,-1,1
785,0.87633,0.8306,-1,1
786,0.87716,0.83,-1,1
787,0.87799,0.8299,-1,1
788,0.87881,0.8296,-1,1
789,0.87964,0.8295,-1,1
790,0.88047,0.829,-1,1
791,0.8813,0.8283,-1,1
792,0.88213,0.8276,-1,1
793,0.88378,0.8269,-1,1
794,0.8846,0.8264,-1,1
795,0.88542,0.8257,-1,1
796,0.88542,0.8254,-1,1
797,0.88624,0.825,-1,1
798,0.88707,0.8247,-1,1
799,0.88789,0.8243,-1,1
800,0.88871,0.8236,-1,1
801,0.89036,0.8229,-1,1
802,0.89118,0.8224,-1,1
803,0.89199,0.8219,-1,1
804,0.89281,0.8212,-1,1
805,0.89362,0.8204,-1,1
806,0.89443,0.8195,-1,1
807,0.89525,0.8188,-1,1
808,0.89607,0.8183,-1,1
809,0.89689,0.8178,-1,1
810,0.89771,0.8172,-1,1
811,0.89852,0.8163,-1,1
812,0.90014,0.8152,-1,1
813,0.90094,0.8142,-1,1
814,0.90175,0.8137,-1,1
815,0.90256,0.8135,-1,1
816,0.90337,0.8132,-1,1
817,0.90418,0.8126,-1,1
818,0.90499,0.8117,-1,1
819,0.9058,0.8105,-1,1
820,0.90661,0.8093,-1,1
821,0.90741,0.8083,-1,1
822,0.90821,0.8076,-1,1
823,0.90901,0.8073,-1,1
824,0.90982,0.8067,-1,1
825,0.91062,0.8059,-1,1
826,0.91142,0.8047,-1,1
827,0.91222,0.8037,-1,1
828,0.91302,0.8027,-1,1
829,0.91382,0.802,-1,1
830,0.91462,0.8014,-1,1
831,0.91541,0.8007,-1,1
832,0.91621,0.7997,-1,1
833,0.91779,0.7985,-1,1
834,0.91858,0.7976,-1,1
835,0.91938,0.7968,-1,1
836,0.92017,0.7961,-1,1
837,0.92096,0.7952,-1,1
838,0.92175,0.7939,-1,1
