cnt,pos,speed,Dir,Force,
1,0,1.0006,-1,1
2,0.00105,1.0105,-1,1
3,0.00209999,1.0193,-1,1
4,0.00422001,1.0277,-1,1
5,0.00529003,1.0358,-1,1
6,0.00637007,1.0442,-1,1
7,0.00637007,1.0528,-1,1
8,0.00746012,1.0607,-1,1
9,0.00856018,1.0683,-1,1
10,0.00965977,1.0752,-1,1
11,0.0107698,1.0813,-1,1
12,0.0118699,1.0871,-1,1
13,0.01299,1.0931,-1,1
14,0.0141001,1.0995,-1,1
15,0.0163698,1.1058,-1,1
16,0.0175099,1.1119,-1,1
17,0.0175099,1.117,-1,1
18,0.0186501,1.1221,-1,1
19,0.0197902,1.1263,-1,1
20,0.0209298,1.1305,-1,1
21,0.0220799,1.135,-1,1
22,0.0232401,1.1398,-1,1
23,0.0244098,1.1443,-1,1
24,0.0255699,1.1482,-1,1
25,0.0267401,1.1513,-1,1
26,0.0290699,1.1537,-1,1
27,0.0302401,1.1566,-1,1
28,0.0302401,1.1604,-1,1
29,0.0314198,1.1643,-1,1
30,0.0325999,1.1685,-1,1
31,0.0337901,1.172,-1,1
32,0.0349698,1.1742,-1,1
33,0.03615,1.1758,-1,1
34,0.0373302,1.1774,-1,1
35,0.0385199,1.1806,-1,1
36,0.0397201,1.1841,-1,1
37,0.04212,1.187,-1,1
38,0.0433102,1.1885,-1,1
39,0.0433102,1.1895,-1,1
40,0.0444999,1.1898,-1,1
41,0.0457001,1.191,-1,1
42,0.0469098,1.1935,-1,1
43,0.04812,1.1964,-1,1
44,0.0493298,1.1992,-1,1
45,0.05053,1.1997,-1,1
46,0.0517302,1.1995,-1,1
47,0.0529199,1.1993,-1,1
48,0.0553398,1.2015,-1,1
49,0.05656,1.2045,-1,1
50,0.05656,1.2065,-1,1
51,0.0577698,1.2078,-1,1
52,0.05897,1.2074,-1,1
53,0.0601702,1.2061,-1,1
54,0.0613699,1.205,-1,1
55,0.0625801,1.206,-1,1
56,0.0637999,1.2082,-1,1
57,0.0650201,1.2093,-1,1
58,0.0662298,1.2071,-1,1
59,0.0686202,1.2047,-1,1
60,0.0686202,1.2043,-1,1
61,0.0698199,1.2039,-1,1
62,0.0710402,1.2051,-1,1
63,0.0722499,1.2072,-1,1
64,0.0734601,1.2081,-1,1
65,0.0746598,1.2065,-1,1
66,0.07585,1.2034,-1,1
67,0.0770402,1.2016,-1,1
68,0.0782399,1.2025,-1,1
69,0.0794501,1.2043,-1,1
70,0.0806599,1.2047,-1,1
71,0.0818601,1.2037,-1,1
72,0.0830398,1.2007,-1,1
73,0.0842199,1.1968,-1,1
74,0.0854101,1.1946,-1,1
75,0.0866098,1.1947,-1,1
76,0.08781,1.1961,-1,1
77,0.0890098,1.1967,-1,1
78,0.0901899,1.1945,-1,1
79,0.0913601,1.1902,-1,1
80,0.0925198,1.186,-1,1
81,0.0936999,1.1845,-1,1
82,0.0948901,1.1852,-1,1
83,0.0960798,1.1863,-1,1
84,0.09726,1.1854,-1,1
85,0.0984302,1.1822,-1,1
86,0.0995798,1.1773,-1,1
87,0.10074,1.1734,-1,1
88,0.10191,1.1721,-1,1
89,0.10308,1.1729,-1,1
90,0.10426,1.1736,-1,1
91,0.10542,1.1717,-1,1
92,0.10657,1.1672,-1,1
93,0.1077,1.162,-1,1
94,0.10884,1.1583,-1,1
95,0.11,1.1571,-1,1
96,0.11116,1.1579,-1,1
97,0.11232,1.158,-1,1
98,0.11459,1.1539,-1,1
99,0.11571,1.1482,-1,1
100,0.11683,1.1435,-1,1
101,0.11797,1.1414,-1,1
102,0.11912,1.1412,-1,1
103,0.12026,1.1411,-1,1
104,0.12138,1.1394,-1,1
105,0.12249,1.135,-1,1
106,0.12359,1.1292,-1,1
107,0.1247,1.1245,-1,1
108,0.12583,1.124,-1,1
109,0.12695,1.1237,-1,1
110,0.12807,1.1214,-1,1
111,0.13027,1.1165,-1,1
112,0.13135,1.1109,-1,1
113,0.13135,1.1065,-1,1
114,0.13245,1.1043,-1,1
115,0.13355,1.1035,-1,1
116,0.13465,1.1038,-1,1
117,0.13576,1.1014,-1,1
118,0.13792,1.0966,-1,1
119,0.13898,1.0912,-1,1
120,0.14005,1.0878,-1,1
121,0.14113,1.0866,-1,1
122,0.14221,1.0862,-1,1
123,0.1433,1.0852,-1,1
124,0.14437,1.0823,-1,1
125,0.14543,1.0779,-1,1
126,0.14647,1.0719,-1,1
127,0.14752,1.0675,-1,1
128,0.14857,1.0654,-1,1
129,0.14963,1.0654,-1,1
130,0.15175,1.064,-1,1
131,0.1528,1.0605,-1,1
132,0.15383,1.0553,-1,1
133,0.15485,1.0495,-1,1
134,0.15588,1.0451,-1,1
135,0.15692,1.0433,-1,1
136,0.15797,1.0431,-1,1
137,0.159,1.0424,-1,1
138,0.16003,1.0394,-1,1
139,0.16104,1.034,-1,1
140,0.16205,1.0294,-1,1
141,0.16306,1.0263,-1,1
142,0.16408,1.0253,-1,1
143,0.1651,1.025,-1,1
144,0.16612,1.0234,-1,1
145,0.16712,1.0195,-1,1
146,0.16811,1.0146,-1,1
147,0.16911,1.0104,-1,1
148,0.17011,1.0079,-1,1
149,0.17111,1.0068,-1,1
150,0.1721,1.0055,-1,1
151,0.1731,1.0035,-1,1
152,0.17408,0.9998,-1,1
153,0.17506,0.9958,-1,1
154,0.17604,0.9925,-1,1
155,0.17702,0.9904,-1,1
156,0.178,0.9887,-1,1
157,0.17898,0.9869,-1,1
158,0.17995,0.9843,-1,1
159,0.18092,0.9812,-1,1
160,0.18188,0.9782,-1,1
161,0.18285,0.9755,-1,1
162,0.18382,0.9736,-1,1
163,0.18478,0.9715,-1,1
164,0.18573,0.9692,-1,1
165,0.18669,0.9665,-1,1
166,0.18764,0.9639,-1,1
167,0.18859,0.9616,-1,1
168,0.18954,0.9596,-1,1
169,0.19049,0.9577,-1,1
170,0.19144,0.9556,-1,1
171,0.19238,0.9532,-1,1
172,0.19332,0.9503,-1,1
173,0.19425,0.9477,-1,1
174,0.19519,0.9459,-1,1
175,0.19613,0.9443,-1,1
176,0.19707,0.9428,-1,1
177,0.198,0.9406,-1,1
178,0.19893,0.938,-1,1
179,0.19985,0.9352,-1,1
180,0.20077,0.9327,-1,1
181,0.20169,0.9307,-1,1
182,0.20261,0.9295,-1,1
183,0.20354,0.9284,-1,1
184,0.20446,0.9264,-1,1
185,0.20537,0.9242,-1,1
186,0.20628,0.9215,-1,1
187,0.20719,0.9191,-1,1
188,0.2081,0.9172,-1,1
189,0.209,0.916,-1,1
190,0.20991,0.9147,-1,1
191,0.21082,0.9135,-1,1
192,0.21173,0.9118,-1,1
193,0.21263,0.9095,-1,1
194,0.21353,0.9074,-1,1
195,0.21443,0.9056,-1,1
196,0.21532,0.9042,-1,1
197,0.21622,0.9032,-1,1
198,0.21712,0.902,-1,1
199,0.21801,0.9006,-1,1
200,0.21891,0.8992,-1,1
201,0.2198,0.8974,-1,1
202,0.22069,0.8957,-1,1
203,0.22158,0.8945,-1,1
204,0.22246,0.8933,-1,1
205,0.22335,0.8922,-1,1
206,0.22423,0.891,-1,1
207,0.22512,0.89,-1,1
208,0.22601,0.8892,-1,1
209,0.22689,0.8882,-1,1
210,0.22778,0.8871,-1,1
211,0.22866,0.8861,-1,1
212,0.22954,0.8852,-1,1
213,0.23042,0.8844,-1,1
214,0.2313,0.8839,-1,1
215,0.23218,0.8835,-1,1
216,0.23307,0.8832,-1,1
217,0.23395,0.8828,-1,1
218,0.23483,0.8823,-1,1
219,0.23571,0.8818,-1,1
220,0.23659,0.8816,-1,1
221,0.23747,0.8814,-1,1
222,0.23836,0.8815,-1,1
223,0.23924,0.882,-1,1
224,0.24013,0.8823,-1,1
225,0.24101,0.8824,-1,1
226,0.24189,0.8824,-1,1
227,0.24278,0.8826,-1,1
228,0.24366,0.8833,-1,1
229,0.24544,0.8841,-1,1
230,0.24544,0.8846,-1,1
231,0.24722,0.8857,-1,1
232,0.24811,0.8868,-1,1
233,0.24901,0.8878,-1,1
234,0.2499,0.8889,-1,1
235,0.2508,0.8899,-1,1
236,0.25169,0.8914,-1,1
237,0.2526,0.893,-1,1
238,0.2535,0.8944,-1,1
239,0.2544,0.8962,-1,1
240,0.25531,0.8982,-1,1
241,0.25622,0.9,-1,1
242,0.25713,0.902,-1,1
243,0.25804,0.9038,-1,1
244,0.25896,0.906,-1,1
245,0.25987,0.9084,-1,1
246,0.2608,0.9111,-1,1
247,0.26265,0.9138,-1,1
248,0.26358,0.9168,-1,1
249,0.26452,0.9199,-1,1
250,0.26545,0.9232,-1,1
251,0.2664,0.9265,-1,1
252,0.26734,0.9295,-1,1
253,0.26829,0.933,-1,1
254,0.26924,0.9364,-1,1
255,0.2702,0.9403,-1,1
256,0.27116,0.944,-1,1
257,0.27213,0.948,-1,1
258,0.2731,0.9518,-1,1
259,0.27407,0.9556,-1,1
260,0.27505,0.9595,-1,1
261,0.27603,0.9635,-1,1
262,0.27702,0.9678,-1,1
263,0.27801,0.9723,-1,1
264,0.27901,0.977,-1,1
265,0.28002,0.982,-1,1
266,0.28103,0.9873,-1,1
267,0.28205,0.9923,-1,1
268,0.28307,0.9975,-1,1
269,0.2841,1.0027,-1,1
270,0.28513,1.008,-1,1
271,0.28617,1.0136,-1,1
272,0.28721,1.0194,-1,1
273,0.28827,1.0254,-1,1
274,0.28933,1.0318,-1,1
275,0.2904,1.0378,-1,1
276,0.29147,1.0436,-1,1
277,0.29254,1.0495,-1,1
278,0.29363,1.0556,-1,1
279,0.29472,1.0621,-1,1
280,0.29582,1.0692,-1,1
281,0.29693,1.0765,-1,1
282,0.29805,1.0838,-1,1
283,0.29917,1.0907,-1,1
284,0.3003,1.0974,-1,1
285,0.30144,1.1042,-1,1
286,0.30258,1.1114,-1,1
287,0.30373,1.119,-1,1
288,0.3049,1.1271,-1,1
289,0.30607,1.1353,-1,1
290,0.30725,1.1428,-1,1
291,0.30843,1.15,-1,1
292,0.30962,1.1572,-1,1
293,0.31082,1.1648,-1,1
294,0.31203,1.1729,-1,1
295,0.31326,1.1817,-1,1
296,0.31449,1.1904,-1,1
297,0.31572,1.1986,-1,1
298,0.31696,1.206,-1,1
299,0.31821,1.2132,-1,1
300,0.31946,1.2213,-1,1
301,0.32074,1.2302,-1,1
302,0.32202,1.2393,-1,1
303,0.32331,1.2484,-1,1
304,0.3246,1.2564,-1,1
305,0.32589,1.2636,-1,1
306,0.3272,1.2711,-1,1
307,0.32852,1.2795,-1,1
308,0.32985,1.2887,-1,1
309,0.33119,1.298,-1,1
310,0.33253,1.3063,-1,1
311,0.33387,1.3135,-1,1
312,0.33522,1.3207,-1,1
313,0.33659,1.3284,-1,1
314,0.33797,1.3373,-1,1
315,0.33936,1.3466,-1,1
316,0.34074,1.3549,-1,1
317,0.34213,1.362,-1,1
318,0.34353,1.3688,-1,1
319,0.34495,1.376,-1,1
320,0.34637,1.3843,-1,1
321,0.3478,1.3929,-1,1
322,0.34923,1.4008,-1,1
323,0.35066,1.4074,-1,1
324,0.35211,1.4139,-1,1
325,0.35356,1.4206,-1,1
326,0.35503,1.4281,-1,1
327,0.35649,1.4359,-1,1
328,0.35796,1.4429,-1,1
329,0.35943,1.4499,-1,1
330,0.3624,1.4564,-1,1
331,0.3624,1.4631,-1,1
332,0.3654,1.4696,-1,1
333,0.3669,1.4765,-1,1
334,0.36841,1.4828,-1,1
335,0.36993,1.4892,-1,1
336,0.37145,1.4952,-1,1
337,0.3745,1.5009,-1,1
338,0.3745,1.5073,-1,1
339,0.37603,1.5125,-1,1
340,0.37757,1.5176,-1,1
341,0.37911,1.5222,-1,1
342,0.38066,1.5271,-1,1
343,0.3822,1.5316,-1,1
344,0.38376,1.5367,-1,1
345,0.38531,1.5412,-1,1
346,0.38844,1.5452,-1,1
347,0.39001,1.5493,-1,1
348,0.39157,1.5528,-1,1
349,0.39157,1.5569,-1,1
350,0.39315,1.5603,-1,1
351,0.39472,1.5636,-1,1
352,0.3963,1.5668,-1,1
353,0.39788,1.57,-1,1
354,0.39946,1.5728,-1,1
355,0.40105,1.5752,-1,1
356,0.40422,1.5776,-1,1
357,0.40581,1.5797,-1,1
358,0.4074,1.582,-1,1
359,0.409,1.5841,-1,1
360,0.41059,1.5865,-1,1
361,0.41219,1.5882,-1,1
362,0.41378,1.5895,-1,1
363,0.41537,1.5911,-1,1
364,0.41697,1.5927,-1,1
365,0.41858,1.5942,-1,1
366,0.42017,1.595,-1,1
367,0.42176,1.5955,-1,1
368,0.42336,1.5959,-1,1
369,0.42496,1.5967,-1,1
370,0.42657,1.5972,-1,1
371,0.42816,1.5976,-1,1
372,0.42975,1.5975,-1,1
373,0.43134,1.5971,-1,1
374,0.43294,1.5968,-1,1
375,0.43454,1.5965,-1,1
376,0.43614,1.5964,-1,1
377,0.43773,1.5959,-1,1
378,0.43931,1.5951,-1,1
379,0.4409,1.5936,-1,1
380,0.44249,1.5924,-1,1
381,0.44408,1.5914,-1,1
382,0.44566,1.5905,-1,1
383,0.44724,1.5894,-1,1
384,0.44882,1.5875,-1,1
385,0.4504,1.5854,-1,1
386,0.45198,1.5836,-1,1
387,0.45355,1.5822,-1,1
388,0.45512,1.5804,-1,1
389,0.45669,1.5785,-1,1
390,0.45825,1.5758,-1,1
391,0.45981,1.5733,-1,1
392,0.46137,1.5715,-1,1
393,0.46293,1.5695,-1,1
394,0.46449,1.5671,-1,1
395,0.46604,1.5646,-1,1
396,0.46759,1.5614,-1,1
397,0.46913,1.5586,-1,1
398,0.47068,1.5564,-1,1
399,0.47222,1.554,-1,1
400,0.47376,1.5516,-1,1
401,0.4753,1.5486,-1,1
402,0.47683,1.5454,-1,1
403,0.47836,1.5424,-1,1
404,0.47989,1.5399,-1,1
405,0.48141,1.5373,-1,1
406,0.48293,1.5348,-1,1
407,0.48445,1.5318,-1,1
408,0.48596,1.5286,-1,1
409,0.48748,1.5256,-1,1
410,0.48899,1.523,-1,1
411,0.4905,1.5205,-1,1
412,0.492,1.5176,-1,1
413,0.4935,1.5147,-1,1
414,0.49501,1.5119,-1,1
415,0.4965,1.5089,-1,1
416,0.498,1.5062,-1,1
417,0.49948,1.5035,-1,1
418,0.50097,1.5007,-1,1
419,0.50246,1.4981,-1,1
420,0.50395,1.4954,-1,1
421,0.50543,1.4926,-1,1
422,0.5069,1.4898,-1,1
423,0.50837,1.487,-1,1
424,0.50985,1.4842,-1,1
425,0.51133,1.4821,-1,1
426,0.51279,1.4798,-1,1
427,0.51426,1.477,-1,1
428,0.51571,1.474,-1,1
429,0.51717,1.4713,-1,1
430,0.51864,1.4692,-1,1
431,0.5201,1.4676,-1,1
432,0.52156,1.4655,-1,1
433,0.523,1.4627,-1,1
434,0.52444,1.4596,-1,1
435,0.5259,1.4571,-1,1
436,0.52735,1.4555,-1,1
437,0.5288,1.4532,-1,1
438,0.53167,1.4508,-1,1
439,0.5331,1.448,-1,1
440,0.53454,1.4455,-1,1
441,0.53599,1.4434,-1,1
442,0.53742,1.4416,-1,1
443,0.53884,1.4396,-1,1
444,0.54026,1.4373,-1,1
445,0.54169,1.4345,-1,1
446,0.54312,1.4319,-1,1
447,0.54454,1.431,-1,1
448,0.54596,1.4296,-1,1
449,0.54738,1.4274,-1,1
450,0.54879,1.4244,-1,1
451,0.5502,1.4217,-1,1
452,0.55162,1.4199,-1,1
453,0.55303,1.4188,-1,1
454,0.55444,1.4173,-1,1
455,0.55584,1.4152,-1,1
456,0.55724,1.4127,-1,1
457,0.55865,1.4106,-1,1
458,0.56006,1.4097,-1,1
459,0.56146,1.4088,-1,1
460,0.56286,1.4074,-1,1
461,0.56426,1.4055,-1,1
462,0.56566,1.4037,-1,1
463,0.56706,1.4025,-1,1
464,0.56846,1.402,-1,1
465,0.56986,1.4014,-1,1
466,0.57124,1.4001,-1,1
467,0.57264,1.3984,-1,1
468,0.57403,1.3968,-1,1
469,0.57543,1.3963,-1,1
470,0.57683,1.3963,-1,1
471,0.57822,1.3959,-1,1
472,0.57961,1.3948,-1,1
473,0.58099,1.3932,-1,1
474,0.58238,1.3923,-1,1
475,0.58378,1.3924,-1,1
476,0.58518,1.393,-1,1
477,0.58657,1.393,-1,1
478,0.58795,1.3923,-1,1
479,0.58934,1.3913,-1,1
480,0.59073,1.3908,-1,1
481,0.59213,1.3912,-1,1
482,0.59353,1.392,-1,1
483,0.59492,1.3924,-1,1
484,0.5963,1.3919,-1,1
485,0.59769,1.391,-1,1
486,0.59909,1.3911,-1,1
487,0.60048,1.3918,-1,1
488,0.60188,1.3928,-1,1
489,0.60327,1.3933,-1,1
490,0.60466,1.3931,-1,1
491,0.60605,1.3926,-1,1
492,0.60745,1.3926,-1,1
493,0.60885,1.3935,-1,1
494,0.61025,1.3944,-1,1
495,0.61164,1.3949,-1,1
496,0.61443,1.3948,-1,1
497,0.61583,1.3951,-1,1
498,0.61583,1.3955,-1,1
499,0.61723,1.3962,-1,1
500,0.61863,1.3972,-1,1
501,0.62003,1.398,-1,1
502,0.62143,1.3984,-1,1
503,0.62283,1.3985,-1,1
504,0.62423,1.3991,-1,1
505,0.62564,1.4001,-1,1
506,0.62704,1.4008,-1,1
507,0.62985,1.4013,-1,1
508,0.63126,1.4017,-1,1
509,0.63126,1.4023,-1,1
510,0.63266,1.4029,-1,1
511,0.63407,1.4036,-1,1
512,0.63547,1.4041,-1,1
513,0.63688,1.4047,-1,1
514,0.63829,1.4052,-1,1
515,0.63969,1.4057,-1,1
516,0.6411,1.4062,-1,1
517,0.64251,1.4063,-1,1
518,0.64532,1.4066,-1,1
519,0.64532,1.4066,-1,1
520,0.64673,1.407,-1,1
521,0.64814,1.4074,-1,1
522,0.64954,1.4076,-1,1
523,0.65095,1.4075,-1,1
524,0.65235,1.4073,-1,1
525,0.65376,1.4071,-1,1
526,0.65517,1.407,-1,1
527,0.65657,1.4068,-1,1
528,0.65798,1.4063,-1,1
529,0.66078,1.406,-1,1
530,0.66218,1.4052,-1,1
531,0.66218,1.4046,-1,1
532,0.66359,1.4043,-1,1
533,0.66499,1.404,-1,1
534,0.66639,1.4035,-1,1
535,0.66778,1.4026,-1,1
536,0.66918,1.4017,-1,1
537,0.67198,1.4011,-1,1
538,0.67337,1.4004,-1,1
539,0.67477,1.3993,-1,1
540,0.67616,1.3981,-1,1
541,0.67755,1.3967,-1,1
542,0.67755,1.3954,-1,1
543,0.67894,1.3943,-1,1
544,0.68033,1.3932,-1,1
545,0.68172,1.3923,-1,1
546,0.6831,1.3909,-1,1
547,0.68448,1.3891,-1,1
548,0.68724,1.3879,-1,1
549,0.68863,1.387,-1,1
550,0.69001,1.386,-1,1
551,0.69138,1.3845,-1,1
552,0.69138,1.3828,-1,1
553,0.69276,1.3811,-1,1
554,0.69413,1.3793,-1,1
555,0.6955,1.3777,-1,1
556,0.69687,1.3764,-1,1
557,0.69824,1.3754,-1,1
558,0.69961,1.3735,-1,1
559,0.70097,1.3716,-1,1
560,0.70233,1.3696,-1,1
561,0.70505,1.3681,-1,1
562,0.70641,1.3665,-1,1
563,0.70641,1.3647,-1,1
564,0.70777,1.3632,-1,1
565,0.70912,1.3613,-1,1
566,0.71047,1.3594,-1,1
567,0.71182,1.3572,-1,1
568,0.71317,1.3553,-1,1
569,0.71451,1.3533,-1,1
570,0.71585,1.3515,-1,1
571,0.7172,1.3492,-1,1
572,0.71987,1.347,-1,1
573,0.7212,1.3448,-1,1
574,0.72254,1.3425,-1,1
575,0.72254,1.3402,-1,1
576,0.72387,1.338,-1,1
577,0.7252,1.3361,-1,1
578,0.72652,1.334,-1,1
579,0.72784,1.3318,-1,1
580,0.72917,1.3295,-1,1
581,0.7318,1.3276,-1,1
582,0.73312,1.3256,-1,1
583,0.73443,1.3236,-1,1
584,0.73574,1.3212,-1,1
585,0.73705,1.319,-1,1
586,0.73836,1.3168,-1,1
587,0.73967,1.3147,-1,1
588,0.74097,1.3124,-1,1
589,0.74227,1.3101,-1,1
590,0.74356,1.3079,-1,1
591,0.74486,1.3055,-1,1
592,0.74745,1.3036,-1,1
593,0.74874,1.3015,-1,1
594,0.75003,1.2992,-1,1
595,0.75131,1.2967,-1,1
596,0.7526,1.2942,-1,1
597,0.75388,1.2919,-1,1
598,0.75517,1.2903,-1,1
599,0.75645,1.2883,-1,1
600,0.75772,1.286,-1,1
601,0.75899,1.2836,-1,1
602,0.76026,1.281,-1,1
603,0.76154,1.2793,-1,1
604,0.76281,1.2784,-1,1
605,0.76408,1.2769,-1,1
606,0.76534,1.2747,-1,1
607,0.7666,1.2719,-1,1
608,0.76786,1.2694,-1,1
609,0.76912,1.2679,-1,1
610,0.77039,1.267,-1,1
611,0.77165,1.266,-1,1
612,0.7729,1.264,-1,1
613,0.77414,1.2609,-1,1
614,0.77539,1.2578,-1,1
615,0.77664,1.2563,-1,1
616,0.7779,1.2556,-1,1
617,0.77915,1.255,-1,1
618,0.78039,1.253,-1,1
619,0.78163,1.2502,-1,1
620,0.78286,1.2471,-1,1
621,0.7841,1.2452,-1,1
622,0.78534,1.2443,-1,1
623,0.78658,1.244,-1,1
624,0.78782,1.2426,-1,1
625,0.78904,1.2399,-1,1
626,0.79027,1.2368,-1,1
627,0.79149,1.2344,-1,1
628,0.79272,1.2333,-1,1
629,0.79395,1.2326,-1,1
630,0.79518,1.2318,-1,1
631,0.79639,1.2292,-1,1
632,0.79761,1.2263,-1,1
633,0.79882,1.2233,-1,1
634,0.80003,1.2218,-1,1
635,0.80126,1.2213,-1,1
636,0.80247,1.2205,-1,1
637,0.80368,1.2188,-1,1
638,0.80488,1.2162,-1,1
639,0.80609,1.2134,-1,1
640,0.80729,1.2109,-1,1
641,0.80849,1.2101,-1,1
642,0.8097,1.2097,-1,1
643,0.81091,1.2089,-1,1
644,0.8121,1.2067,-1,1
645,0.81329,1.2035,-1,1
646,0.81448,1.2008,-1,1
647,0.81567,1.1991,-1,1
648,0.81687,1.1984,-1,1
649,0.81807,1.1981,-1,1
650,0.81926,1.197,-1,1
651,0.82044,1.1944,-1,1
652,0.82161,1.1912,-1,1
653,0.82279,1.1889,-1,1
654,0.82398,1.1877,-1,1
655,0.82517,1.1877,-1,1
656,0.82635,1.1872,-1,1
657,0.82753,1.1855,-1,1
658,0.82869,1.1827,-1,1
659,0.82986,1.1797,-1,1
660,0.83103,1.1778,-1,1
661,0.83221,1.1773,-1,1
662,0.83339,1.1772,-1,1
663,0.83456,1.1762,-1,1
664,0.83572,1.1742,-1,1
665,0.83688,1.1713,-1,1
666,0.83804,1.1687,-1,1
667,0.8392,1.1674,-1,1
668,0.84036,1.1671,-1,1
669,0.84153,1.1668,-1,1
670,0.84269,1.1656,-1,1
671,0.84384,1.1629,-1,1
672,0.84498,1.1601,-1,1
673,0.84613,1.158,-1,1
674,0.84729,1.1573,-1,1
675,0.84845,1.157,-1,1
676,0.8496,1.1566,-1,1
677,0.85075,1.1549,-1,1
678,0.85189,1.1524,-1,1
679,0.85303,1.1496,-1,1
680,0.85417,1.1479,-1,1
681,0.85531,1.1475,-1,1
682,0.85646,1.1475,-1,1
683,0.8576,1.1468,-1,1
684,0.85874,1.1449,-1,1
685,0.85987,1.1424,-1,1
686,0.861,1.14,-1,1
687,0.86213,1.1385,-1,1
688,0.86327,1.138,-1,1
689,0.86441,1.138,-1,1
690,0.86554,1.1374,-1,1
691,0.86667,1.1361,-1,1
692,0.8678,1.1337,-1,1
693,0.86892,1.1313,-1,1
694,0.87004,1.1295,-1,1
695,0.87116,1.1288,-1,1
696,0.87229,1.1287,-1,1
697,0.87454,1.1278,-1,1
698,0.87566,1.1259,-1,1
699,0.87677,1.1233,-1,1
700,0.87788,1.1207,-1,1
701,0.87899,1.1188,-1,1
702,0.88011,1.1182,-1,1
703,0.88123,1.1181,-1,1
704,0.88234,1.1177,-1,1
705,0.88345,1.1159,-1,1
706,0.88455,1.1133,-1,1
707,0.88565,1.1111,-1,1
708,0.88675,1.1102,-1,1
709,0.88786,1.1102,-1,1
710,0.89008,1.1099,-1,1
711,0.89118,1.1085,-1,1
712,0.89118,1.1057,-1,1
713,0.89227,1.1029,-1,1
714,0.89336,1.1002,-1,1
715,0.89445,1.0989,-1,1
716,0.89555,1.0988,-1,1
717,0.89665,1.099,-1,1
718,0.89775,1.0978,-1,1
719,0.89884,1.0955,-1,1
720,0.89992,1.093,-1,1
721,0.90208,1.0916,-1,1
722,0.90318,1.0918,-1,1
723,0.90318,1.0921,-1,1
724,0.90427,1.0926,-1,1
725,0.90536,1.092,-1,1
726,0.90643,1.0896,-1,1
727,0.90751,1.0865,-1,1
728,0.90857,1.0839,-1,1
729,0.90965,1.0826,-1,1
730,0.91073,1.0824,-1,1
731,0.91181,1.0819,-1,1
732,0.91396,1.0797,-1,1
733,0.91396,1.0767,-1,1
734,0.91503,1.0733,-1,1
735,0.91608,1.0704,-1,1
736,0.91715,1.0689,-1,1
737,0.91821,1.0687,-1,1
738,0.91929,1.0689,-1,1
739,0.92036,1.0677,-1,1
740,0.92248,1.0652,-1,1
741,0.92352,1.0619,-1,1
742,0.92457,1.0597,-1,1
743,0.92563,1.0587,-1,1
744,0.92563,1.059,-1,1
745,0.92669,1.0593,-1,1
746,0.92775,1.0593,-1,1
747,0.9288,1.0579,-1,1
748,0.92985,1.0549,-1,1
749,0.93088,1.0522,-1,1
750,0.93192,1.0504,-1,1
751,0.93297,1.0502,-1,1
752,0.93401,1.0503,-1,1
753,0.9361,1.0491,-1,1
754,0.93714,1.0463,-1,1
755,0.93714,1.0427,-1,1
756,0.93816,1.0391,-1,1
757,0.93919,1.0362,-1,1
758,0.94022,1.0352,-1,1
759,0.94126,1.0354,-1,1
760,0.9423,1.0355,-1,1
761,0.94333,1.0342,-1,1
762,0.94435,1.0317,-1,1
763,0.94537,1.0293,-1,1
764,0.94741,1.0278,-1,1
765,0.94843,1.0274,-1,1
766,0.94843,1.0271,-1,1
767,0.94946,1.0268,-1,1
768,0.95048,1.0258,-1,1
769,0.9515,1.0239,-1,1
770,0.95251,1.0213,-1,1
771,0.95352,1.0188,-1,1
772,0.95452,1.0169,-1,1
773,0.95553,1.0157,-1,1
774,0.95653,1.0144,-1,1
775,0.95754,1.0131,-1,1
776,0.95855,1.0114,-1,1
777,0.95956,1.0092,-1,1
778,0.96056,1.0071,-1,1
779,0.96155,1.0044,-1,1
780,0.96254,1.0021,-1,1
781,0.96353,1.0005,-1,1
782,0.96453,0.9995,-1,1
783,0.96553,0.999,-1,1
784,0.96652,0.9976,-1,1
785,0.96751,0.9951,-1,1
786,0.96948,0.9924,-1,1
787,0.96948,0.9901,-1,1
788,0.97143,0.9879,-1,1
789,0.97242,0.9872,-1,1
790,0.9734,0.9868,-1,1
791,0.97439,0.9862,-1,1
792,0.97537,0.9844,-1,1
793,0.97634,0.9815,-1,1
794,0.9773,0.9789,-1,1
795,0.97923,0.9771,-1,1
796,0.9802,0.9763,-1,1
797,0.98118,0.9758,-1,1
798,0.98215,0.975,-1,1
799,0.98311,0.9731,-1,1
800,0.98407,0.9706,-1,1
801,0.98503,0.9674,-1,1
802,0.98598,0.9648,-1,1
803,0.98693,0.9628,-1,1
804,0.98789,0.9621,-1,1
805,0.98885,0.9617,-1,1
806,0.98981,0.9606,-1,1
807,0.99076,0.9585,-1,1
808,0.99171,0.9558,-1,1
809,0.99265,0.9532,-1,1
810,0.99359,0.9512,-1,1
811,0.99453,0.9501,-1,1
812,0.99547,0.9494,-1,1
813,0.99642,0.9486,-1,1
814,0.9983,0.9466,-1,1
815,0.99923,0.9437,-1,1
816,1.00016,0.9405,-1,1
817,1.00109,0.9384,-1,1
818,1.00202,0.937,-1,1
819,1.00295,0.936,-1,1
820,1.00388,0.9349,-1,1
821,1.00481,0.9333,-1,1
822,1.00573,0.9315,-1,1
823,1.00666,0.9295,-1,1
824,1.0085,0.9273,-1,1
825,1.00941,0.9254,-1,1
826,1.01032,0.9239,-1,1
827,1.01123,0.922,-1,1
828,1.01215,0.9206,-1,1
829,1.01307,0.9192,-1,1
830,1.01398,0.9173,-1,1
831,1.01488,0.9154,-1,1
832,1.01579,0.9133,-1,1
833,1.01669,0.9112,-1,1
834,1.01759,0.9097,-1,1
835,1.01849,0.9083,-1,1
836,1.01939,0.9071,-1,1
837,1.02029,0.9059,-1,1
838,1.02119,0.9042,-1,1
