cnt,pos,speed,Dir,Force,
1,0,1.0049,-1,1
2,0.00103998,1.0112,-1,1
3,0.00208998,1.018,-1,1
4,0.00314999,1.0254,-1,1
5,0.00422001,1.0335,-1,1
6,0.00530005,1.0419,-1,1
7,0.00639009,1.0501,-1,1
8,0.00748014,1.0578,-1,1
9,0.00858021,1.0654,-1,1
10,0.00969028,1.0734,-1,1
11,0.0108199,1.0819,-1,1
12,0.01195,1.091,-1,1
13,0.0130901,1.1001,-1,1
14,0.0142403,1.1092,-1,1
15,0.0153999,1.118,-1,1
16,0.0165701,1.1272,-1,1
17,0.0177503,1.136,-1,1
18,0.01893,1.1452,-1,1
19,0.0201302,1.1546,-1,1
20,0.0213404,1.1643,-1,1
21,0.0225601,1.1741,-1,1
22,0.0237904,1.1839,-1,1
23,0.0250201,1.1936,-1,1
24,0.0262699,1.2031,-1,1
25,0.0275202,1.2126,-1,1
26,0.02879,1.222,-1,1
27,0.0300703,1.2323,-1,1
28,0.0313601,1.2426,-1,1
29,0.03266,1.2528,-1,1
30,0.0339603,1.2626,-1,1
31,0.0352802,1.272,-1,1
32,0.0366001,1.2814,-1,1
33,0.03794,1.2914,-1,1
34,0.03929,1.3018,-1,1
35,0.0406504,1.3123,-1,1
36,0.0420103,1.3221,-1,1
37,0.0433803,1.3312,-1,1
38,0.0447602,1.3405,-1,1
39,0.0461602,1.3501,-1,1
40,0.0475702,1.3601,-1,1
41,0.0489802,1.3698,-1,1
42,0.0503902,1.3791,-1,1
43,0.0518203,1.3879,-1,1
44,0.0532503,1.3966,-1,1
45,0.0547004,1.4056,-1,1
46,0.05616,1.4146,-1,1
47,0.05762,1.4238,-1,1
48,0.0590901,1.4325,-1,1
49,0.0605602,1.4406,-1,1
50,0.0620503,1.4489,-1,1
51,0.06355,1.4573,-1,1
52,0.0650501,1.4657,-1,1
53,0.0665603,1.474,-1,1
54,0.0680699,1.482,-1,1
55,0.0696001,1.4896,-1,1
56,0.0711303,1.4973,-1,1
57,0.07267,1.5049,-1,1
58,0.0742102,1.5124,-1,1
59,0.0757604,1.5198,-1,1
60,0.0773201,1.5269,-1,1
61,0.0788803,1.5338,-1,1
62,0.0804501,1.5414,-1,1
63,0.0836101,1.5488,-1,1
64,0.0852003,1.5559,-1,1
65,0.0868001,1.5627,-1,1
66,0.0883904,1.5696,-1,1
67,0.0900002,1.5763,-1,1
68,0.09161,1.5828,-1,1
69,0.0932202,1.5892,-1,1
70,0.09484,1.5948,-1,1
71,0.0964603,1.6007,-1,1
72,0.0980902,1.6059,-1,1
73,0.09973,1.6111,-1,1
74,0.10136,1.6162,-1,1
75,0.103,1.6213,-1,1
76,0.10465,1.6258,-1,1
77,0.1063,1.6302,-1,1
78,0.10795,1.6347,-1,1
79,0.10961,1.6393,-1,1
80,0.11127,1.644,-1,1
81,0.11294,1.6481,-1,1
82,0.1146,1.6519,-1,1
83,0.11795,1.6559,-1,1
84,0.11962,1.6595,-1,1
85,0.1213,1.6626,-1,1
86,0.12298,1.6659,-1,1
87,0.12466,1.6692,-1,1
88,0.12634,1.6721,-1,1
89,0.12803,1.6748,-1,1
90,0.12972,1.6772,-1,1
91,0.1314,1.6798,-1,1
92,0.1331,1.6822,-1,1
93,0.13479,1.6839,-1,1
94,0.13648,1.6857,-1,1
95,0.13987,1.6878,-1,1
96,0.14157,1.6898,-1,1
97,0.14326,1.6913,-1,1
98,0.14496,1.6926,-1,1
99,0.14666,1.6936,-1,1
100,0.14836,1.6949,-1,1
101,0.15006,1.696,-1,1
102,0.15175,1.6967,-1,1
103,0.15345,1.6974,-1,1
104,0.15515,1.6981,-1,1
105,0.15685,1.6987,-1,1
106,0.15855,1.699,-1,1
107,0.16025,1.6988,-1,1
108,0.16194,1.6986,-1,1
109,0.16364,1.6988,-1,1
110,0.16534,1.6987,-1,1
111,0.16704,1.6983,-1,1
112,0.16873,1.6976,-1,1
113,0.17042,1.697,-1,1
114,0.17212,1.6963,-1,1
115,0.17381,1.6954,-1,1
116,0.1755,1.6943,-1,1
117,0.17719,1.6937,-1,1
118,0.17887,1.6928,-1,1
119,0.18056,1.6917,-1,1
120,0.18225,1.6904,-1,1
121,0.18393,1.689,-1,1
122,0.18561,1.6881,-1,1
123,0.18729,1.6868,-1,1
124,0.18897,1.6854,-1,1
125,0.19065,1.6838,-1,1
126,0.19232,1.6824,-1,1
127,0.19399,1.6808,-1,1
128,0.19567,1.6796,-1,1
129,0.19734,1.6778,-1,1
130,0.19901,1.6759,-1,1
131,0.20067,1.6742,-1,1
132,0.20234,1.6726,-1,1
133,0.204,1.6711,-1,1
134,0.20566,1.6693,-1,1
135,0.20732,1.6671,-1,1
136,0.20897,1.665,-1,1
137,0.21063,1.6633,-1,1
138,0.21228,1.6614,-1,1
139,0.21393,1.6594,-1,1
140,0.21558,1.6572,-1,1
141,0.21722,1.6549,-1,1
142,0.21886,1.6528,-1,1
143,0.22051,1.6505,-1,1
144,0.22214,1.6481,-1,1
145,0.22378,1.6461,-1,1
146,0.22541,1.6439,-1,1
147,0.22704,1.6416,-1,1
148,0.22868,1.6392,-1,1
149,0.2303,1.6369,-1,1
150,0.23193,1.6348,-1,1
151,0.23355,1.6327,-1,1
152,0.23517,1.6303,-1,1
153,0.23679,1.628,-1,1
154,0.2384,1.6257,-1,1
155,0.24002,1.6236,-1,1
156,0.24163,1.6217,-1,1
157,0.24324,1.6195,-1,1
158,0.24485,1.6169,-1,1
159,0.24645,1.6145,-1,1
160,0.24805,1.6122,-1,1
161,0.24965,1.6104,-1,1
162,0.25125,1.6083,-1,1
163,0.25285,1.6059,-1,1
164,0.25443,1.6033,-1,1
165,0.25603,1.6009,-1,1
166,0.25762,1.5989,-1,1
167,0.25921,1.5968,-1,1
168,0.26079,1.5947,-1,1
169,0.26237,1.5921,-1,1
170,0.26394,1.5895,-1,1
171,0.26552,1.5871,-1,1
172,0.2671,1.5851,-1,1
173,0.26868,1.5832,-1,1
174,0.27024,1.5809,-1,1
175,0.27181,1.5781,-1,1
176,0.27337,1.5754,-1,1
177,0.27494,1.573,-1,1
178,0.2765,1.5711,-1,1
179,0.27806,1.5692,-1,1
180,0.27961,1.567,-1,1
181,0.28117,1.5643,-1,1
182,0.28272,1.5618,-1,1
183,0.28427,1.5596,-1,1
184,0.28582,1.5581,-1,1
185,0.28737,1.5564,-1,1
186,0.28891,1.554,-1,1
187,0.29045,1.5515,-1,1
188,0.29199,1.549,-1,1
189,0.29507,1.5471,-1,1
190,0.29661,1.5455,-1,1
191,0.29814,1.5434,-1,1
192,0.29967,1.5406,-1,1
193,0.30119,1.5377,-1,1
194,0.30272,1.5354,-1,1
195,0.30425,1.534,-1,1
196,0.30578,1.5324,-1,1
197,0.3073,1.5303,-1,1
198,0.30881,1.5276,-1,1
199,0.31033,1.5253,-1,1
200,0.31184,1.5237,-1,1
201,0.31336,1.5218,-1,1
202,0.31638,1.5199,-1,1
203,0.31789,1.5179,-1,1
204,0.31789,1.5159,-1,1
205,0.3194,1.5135,-1,1
206,0.32091,1.5119,-1,1
207,0.32241,1.5107,-1,1
208,0.32392,1.5096,-1,1
209,0.32541,1.5078,-1,1
210,0.32691,1.5056,-1,1
211,0.32841,1.5042,-1,1
212,0.32991,1.5035,-1,1
213,0.33141,1.5021,-1,1
214,0.33439,1.5008,-1,1
215,0.33439,1.4994,-1,1
216,0.33589,1.4977,-1,1
217,0.33738,1.496,-1,1
218,0.33886,1.4943,-1,1
219,0.34035,1.4929,-1,1
220,0.34183,1.4918,-1,1
221,0.34332,1.4906,-1,1
222,0.34481,1.4892,-1,1
223,0.34629,1.4875,-1,1
224,0.34924,1.486,-1,1
225,0.34924,1.485,-1,1
226,0.35072,1.4841,-1,1
227,0.3522,1.4834,-1,1
228,0.35368,1.4825,-1,1
229,0.35515,1.481,-1,1
230,0.35661,1.4787,-1,1
231,0.35809,1.4773,-1,1
232,0.35957,1.4762,-1,1
233,0.36251,1.4754,-1,1
234,0.36397,1.4734,-1,1
235,0.36542,1.471,-1,1
236,0.3669,1.4696,-1,1
237,0.3669,1.4683,-1,1
238,0.36837,1.4678,-1,1
239,0.36983,1.4676,-1,1
240,0.37129,1.4669,-1,1
241,0.37274,1.4649,-1,1
242,0.3742,1.4636,-1,1
243,0.37566,1.4635,-1,1
244,0.37858,1.4633,-1,1
245,0.38003,1.4624,-1,1
246,0.38148,1.4601,-1,1
247,0.38148,1.4584,-1,1
248,0.38293,1.4567,-1,1
249,0.38439,1.4558,-1,1
250,0.38584,1.4554,-1,1
251,0.38729,1.455,-1,1
252,0.38874,1.4531,-1,1
253,0.39018,1.4511,-1,1
254,0.39163,1.4505,-1,1
255,0.39308,1.4501,-1,1
256,0.39597,1.4493,-1,1
257,0.39741,1.4477,-1,1
258,0.39741,1.4466,-1,1
259,0.39885,1.4451,-1,1
260,0.4003,1.4444,-1,1
261,0.40174,1.4441,-1,1
262,0.40318,1.4433,-1,1
263,0.40461,1.4418,-1,1
264,0.40604,1.4401,-1,1
265,0.40748,1.4397,-1,1
266,0.40892,1.4397,-1,1
267,0.41179,1.4389,-1,1
268,0.41322,1.4373,-1,1
269,0.41322,1.4357,-1,1
270,0.41465,1.4337,-1,1
271,0.41608,1.4326,-1,1
272,0.41752,1.4328,-1,1
273,0.41895,1.4332,-1,1
274,0.42038,1.4325,-1,1
275,0.4218,1.4304,-1,1
276,0.42322,1.4296,-1,1
277,0.42466,1.4298,-1,1
278,0.42752,1.43,-1,1
279,0.42894,1.4294,-1,1
280,0.42894,1.4284,-1,1
281,0.43035,1.4267,-1,1
282,0.43177,1.425,-1,1
283,0.4332,1.4242,-1,1
284,0.43463,1.4241,-1,1
285,0.43747,1.4235,-1,1
286,0.43888,1.4218,-1,1
287,0.4403,1.4202,-1,1
288,0.44172,1.4194,-1,1
289,0.44313,1.4192,-1,1
290,0.44455,1.4192,-1,1
291,0.44596,1.4186,-1,1
292,0.44737,1.4175,-1,1
293,0.44878,1.4159,-1,1
294,0.4502,1.4146,-1,1
295,0.45161,1.4142,-1,1
296,0.45302,1.4137,-1,1
297,0.45442,1.4127,-1,1
298,0.45583,1.4113,-1,1
299,0.45864,1.4098,-1,1
300,0.46005,1.4085,-1,1
301,0.46145,1.4076,-1,1
302,0.46285,1.4069,-1,1
303,0.46425,1.4061,-1,1
304,0.46565,1.405,-1,1
305,0.46705,1.4037,-1,1
306,0.46845,1.4024,-1,1
307,0.46985,1.4014,-1,1
308,0.47124,1.4002,-1,1
309,0.47264,1.3994,-1,1
310,0.47403,1.3985,-1,1
311,0.47542,1.3974,-1,1
312,0.47681,1.3959,-1,1
313,0.4782,1.3946,-1,1
314,0.47959,1.3933,-1,1
315,0.48098,1.3924,-1,1
316,0.48236,1.3914,-1,1
317,0.48375,1.3902,-1,1
318,0.48513,1.3887,-1,1
319,0.48651,1.3871,-1,1
320,0.48788,1.3855,-1,1
321,0.49064,1.384,-1,1
322,0.49064,1.3827,-1,1
323,0.49201,1.3809,-1,1
324,0.49339,1.3791,-1,1
325,0.49476,1.3773,-1,1
326,0.49613,1.3757,-1,1
327,0.4975,1.3743,-1,1
328,0.50023,1.3726,-1,1
329,0.50159,1.3707,-1,1
330,0.50295,1.3689,-1,1
331,0.50431,1.3673,-1,1
332,0.50567,1.3656,-1,1
333,0.50702,1.364,-1,1
334,0.50837,1.362,-1,1
335,0.50972,1.3598,-1,1
336,0.51107,1.3575,-1,1
337,0.51242,1.3552,-1,1
338,0.51376,1.3534,-1,1
339,0.5151,1.3513,-1,1
340,0.51644,1.3489,-1,1
341,0.51777,1.3463,-1,1
342,0.5191,1.3439,-1,1
343,0.52177,1.3416,-1,1
344,0.5231,1.3394,-1,1
345,0.52442,1.3369,-1,1
346,0.52575,1.3344,-1,1
347,0.52575,1.3315,-1,1
348,0.52706,1.329,-1,1
349,0.5297,1.3269,-1,1
350,0.53102,1.3247,-1,1
351,0.53233,1.3225,-1,1
352,0.53364,1.3198,-1,1
353,0.53494,1.3171,-1,1
354,0.53625,1.3147,-1,1
355,0.53755,1.3125,-1,1
356,0.53885,1.3103,-1,1
357,0.54015,1.3082,-1,1
358,0.54144,1.3055,-1,1
359,0.54273,1.3027,-1,1
360,0.54402,1.3001,-1,1
361,0.5453,1.2974,-1,1
362,0.54658,1.2948,-1,1
363,0.54786,1.2923,-1,1
364,0.54914,1.2898,-1,1
365,0.55042,1.2872,-1,1
366,0.55169,1.2847,-1,1
367,0.55296,1.2819,-1,1
368,0.55423,1.2792,-1,1
369,0.55549,1.2764,-1,1
370,0.55675,1.2735,-1,1
371,0.55801,1.2712,-1,1
372,0.55927,1.2688,-1,1
373,0.56053,1.2663,-1,1
374,0.56177,1.2631,-1,1
375,0.56302,1.2602,-1,1
376,0.56426,1.2571,-1,1
377,0.56551,1.2544,-1,1
378,0.56675,1.2517,-1,1
379,0.56798,1.2491,-1,1
380,0.56922,1.2465,-1,1
381,0.57045,1.2436,-1,1
382,0.57168,1.2406,-1,1
383,0.5729,1.2376,-1,1
384,0.57412,1.2349,-1,1
385,0.57534,1.232,-1,1
386,0.57656,1.2293,-1,1
387,0.57777,1.2266,-1,1
388,0.57899,1.224,-1,1
389,0.58019,1.2212,-1,1
390,0.5814,1.2183,-1,1
391,0.5826,1.2152,-1,1
392,0.5838,1.2122,-1,1
393,0.585,1.2096,-1,1
394,0.5862,1.2074,-1,1
395,0.58739,1.2049,-1,1
396,0.58858,1.2021,-1,1
397,0.58976,1.199,-1,1
398,0.59094,1.1959,-1,1
399,0.59212,1.1931,-1,1
400,0.59331,1.1908,-1,1
401,0.59449,1.1886,-1,1
402,0.59566,1.1862,-1,1
403,0.59683,1.1833,-1,1
404,0.598,1.1799,-1,1
405,0.59916,1.1771,-1,1
406,0.60032,1.1745,-1,1
407,0.60149,1.1724,-1,1
408,0.60265,1.1703,-1,1
409,0.60381,1.1679,-1,1
410,0.60496,1.165,-1,1
411,0.60611,1.1617,-1,1
412,0.60725,1.159,-1,1
413,0.6084,1.1567,-1,1
414,0.60955,1.1549,-1,1
415,0.61069,1.1529,-1,1
416,0.61183,1.1505,-1,1
417,0.61296,1.1477,-1,1
418,0.6141,1.1446,-1,1
419,0.61522,1.1419,-1,1
420,0.61635,1.1396,-1,1
421,0.61748,1.1377,-1,1
422,0.61861,1.1357,-1,1
423,0.61973,1.1332,-1,1
424,0.62085,1.1302,-1,1
425,0.62196,1.1271,-1,1
426,0.62307,1.1244,-1,1
427,0.62418,1.122,-1,1
428,0.6253,1.1201,-1,1
429,0.62641,1.118,-1,1
430,0.62751,1.1156,-1,1
431,0.62861,1.113,-1,1
432,0.62971,1.1101,-1,1
433,0.6308,1.1072,-1,1
434,0.6319,1.1048,-1,1
435,0.63299,1.1028,-1,1
436,0.63408,1.101,-1,1
437,0.63518,1.099,-1,1
438,0.63626,1.0965,-1,1
439,0.63734,1.0938,-1,1
440,0.63842,1.0911,-1,1
441,0.6395,1.0886,-1,1
442,0.64058,1.0867,-1,1
443,0.64165,1.0851,-1,1
444,0.64273,1.0836,-1,1
445,0.6438,1.0814,-1,1
446,0.64487,1.0786,-1,1
447,0.64593,1.0756,-1,1
448,0.64699,1.0731,-1,1
449,0.64805,1.0711,-1,1
450,0.64911,1.0693,-1,1
451,0.65017,1.0676,-1,1
452,0.65123,1.0655,-1,1
453,0.65228,1.0628,-1,1
454,0.65333,1.0596,-1,1
455,0.65437,1.0568,-1,1
456,0.65542,1.0546,-1,1
457,0.65646,1.0531,-1,1
458,0.65751,1.0513,-1,1
459,0.65855,1.0491,-1,1
460,0.65958,1.0465,-1,1
461,0.66061,1.0437,-1,1
462,0.66164,1.041,-1,1
463,0.66267,1.0388,-1,1
464,0.6637,1.0367,-1,1
465,0.66472,1.0347,-1,1
466,0.66575,1.0328,-1,1
467,0.66677,1.0304,-1,1
468,0.66778,1.0278,-1,1
469,0.6688,1.025,-1,1
470,0.66981,1.0225,-1,1
471,0.67081,1.0202,-1,1
472,0.67283,1.018,-1,1
473,0.67384,1.0157,-1,1
474,0.67484,1.0135,-1,1
475,0.67584,1.0108,-1,1
476,0.67683,1.0076,-1,1
477,0.67782,1.0044,-1,1
478,0.67881,1.0017,-1,1
479,0.68079,0.9994,-1,1
480,0.68178,0.9971,-1,1
481,0.68276,0.9944,-1,1
482,0.68374,0.9915,-1,1
483,0.68472,0.9886,-1,1
484,0.68569,0.9857,-1,1
485,0.68666,0.9833,-1,1
486,0.68763,0.9811,-1,1
487,0.68861,0.9792,-1,1
488,0.68957,0.9771,-1,1
489,0.69054,0.9749,-1,1
490,0.6915,0.9724,-1,1
491,0.69246,0.97,-1,1
492,0.69342,0.9676,-1,1
493,0.69437,0.9655,-1,1
494,0.69532,0.9633,-1,1
495,0.69628,0.9612,-1,1
496,0.69723,0.9592,-1,1
497,0.69818,0.9572,-1,1
498,0.69912,0.955,-1,1
499,0.70006,0.9521,-1,1
500,0.701,0.9497,-1,1
501,0.70193,0.9473,-1,1
502,0.70287,0.9453,-1,1
503,0.7038,0.9433,-1,1
504,0.70474,0.9414,-1,1
505,0.70567,0.9393,-1,1
506,0.7066,0.937,-1,1
507,0.70752,0.9344,-1,1
508,0.70844,0.9319,-1,1
509,0.70936,0.9299,-1,1
510,0.71027,0.9275,-1,1
511,0.71119,0.9255,-1,1
512,0.7121,0.9234,-1,1
513,0.71302,0.9213,-1,1
514,0.71393,0.9193,-1,1
515,0.71484,0.9171,-1,1
516,0.71574,0.9145,-1,1
517,0.71664,0.9118,-1,1
518,0.71754,0.9094,-1,1
519,0.71843,0.9073,-1,1
520,0.71933,0.9053,-1,1
521,0.72022,0.9033,-1,1
522,0.72112,0.9013,-1,1
523,0.72201,0.8992,-1,1
524,0.7229,0.8966,-1,1
525,0.72378,0.8939,-1,1
526,0.72466,0.8915,-1,1
527,0.72554,0.8895,-1,1
528,0.72641,0.8875,-1,1
529,0.72729,0.8856,-1,1
530,0.72817,0.8838,-1,1
531,0.72904,0.8817,-1,1
532,0.72991,0.8793,-1,1
533,0.73078,0.8768,-1,1
534,0.73164,0.8745,-1,1
535,0.7325,0.8724,-1,1
536,0.73336,0.8706,-1,1
537,0.73422,0.8685,-1,1
538,0.73508,0.8664,-1,1
539,0.73593,0.8643,-1,1
540,0.73679,0.8623,-1,1
541,0.73764,0.8602,-1,1
542,0.73849,0.8579,-1,1
543,0.73933,0.8554,-1,1
544,0.74017,0.8531,-1,1
545,0.74101,0.8512,-1,1
546,0.74185,0.8493,-1,1
547,0.74269,0.8474,-1,1
548,0.74353,0.8453,-1,1
549,0.74437,0.8433,-1,1
550,0.7452,0.8413,-1,1
551,0.74603,0.8393,-1,1
552,0.74686,0.8372,-1,1
553,0.74768,0.835,-1,1
554,0.7485,0.8328,-1,1
555,0.74932,0.8307,-1,1
556,0.75014,0.8288,-1,1
557,0.75097,0.8273,-1,1
558,0.75178,0.8256,-1,1
559,0.7526,0.8235,-1,1
560,0.75341,0.8211,-1,1
561,0.75422,0.8188,-1,1
562,0.75503,0.8169,-1,1
563,0.75583,0.8154,-1,1
564,0.75664,0.8139,-1,1
565,0.75744,0.8119,-1,1
566,0.75824,0.8098,-1,1
567,0.75904,0.8078,-1,1
568,0.75985,0.8061,-1,1
569,0.76065,0.8045,-1,1
570,0.76144,0.8028,-1,1
571,0.76223,0.8008,-1,1
572,0.76302,0.7985,-1,1
573,0.7638,0.7966,-1,1
574,0.76459,0.795,-1,1
575,0.76538,0.7937,-1,1
576,0.76616,0.7921,-1,1
577,0.76695,0.79,-1,1
578,0.76851,0.7879,-1,1
579,0.76929,0.7858,-1,1
580,0.77006,0.7838,-1,1
581,0.77083,0.782,-1,1
582,0.7716,0.7804,-1,1
583,0.77237,0.7786,-1,1
584,0.77314,0.7769,-1,1
585,0.77391,0.7752,-1,1
586,0.77468,0.7738,-1,1
587,0.77545,0.7725,-1,1
588,0.77622,0.7709,-1,1
589,0.77698,0.7692,-1,1
590,0.77774,0.7676,-1,1
591,0.7785,0.7663,-1,1
592,0.77925,0.7654,-1,1
593,0.78001,0.7642,-1,1
594,0.78077,0.7625,-1,1
595,0.78152,0.7609,-1,1
596,0.78228,0.7595,-1,1
597,0.78379,0.758,-1,1
598,0.78454,0.7565,-1,1
599,0.78529,0.755,-1,1
600,0.78603,0.7534,-1,1
601,0.78677,0.7519,-1,1
602,0.78752,0.7506,-1,1
603,0.78826,0.7493,-1,1
604,0.789,0.7482,-1,1
605,0.78975,0.7469,-1,1
606,0.79049,0.7453,-1,1
607,0.79197,0.7439,-1,1
608,0.7927,0.7426,-1,1
609,0.79343,0.7411,-1,1
610,0.79416,0.7398,-1,1
611,0.79489,0.7382,-1,1
612,0.79562,0.7363,-1,1
613,0.79635,0.7347,-1,1
614,0.79708,0.7333,-1,1
615,0.7978,0.7319,-1,1
616,0.79853,0.7306,-1,1
617,0.79925,0.7286,-1,1
618,0.79997,0.7266,-1,1
619,0.80068,0.725,-1,1
620,0.8014,0.7235,-1,1
621,0.80212,0.7224,-1,1
622,0.80283,0.7209,-1,1
623,0.80354,0.7191,-1,1
624,0.80424,0.7168,-1,1
625,0.80495,0.7145,-1,1
626,0.80566,0.7124,-1,1
627,0.80636,0.7111,-1,1
628,0.80707,0.71,-1,1
629,0.80777,0.7086,-1,1
630,0.80847,0.7068,-1,1
631,0.80916,0.7042,-1,1
632,0.80985,0.702,-1,1
633,0.81054,0.6998,-1,1
634,0.81123,0.6984,-1,1
635,0.81192,0.6967,-1,1
636,0.81261,0.6949,-1,1
637,0.81329,0.6925,-1,1
638,0.81397,0.6901,-1,1
639,0.81465,0.6877,-1,1
640,0.81533,0.686,-1,1
641,0.816,0.6847,-1,1
642,0.81668,0.6832,-1,1
643,0.81735,0.6814,-1,1
644,0.81801,0.6788,-1,1
645,0.81868,0.6764,-1,1
646,0.81934,0.6738,-1,1
647,0.82001,0.6721,-1,1
648,0.82067,0.6706,-1,1
649,0.82134,0.6692,-1,1
650,0.822,0.6674,-1,1
651,0.82266,0.6653,-1,1
652,0.82331,0.6632,-1,1
653,0.82396,0.6615,-1,1
654,0.82462,0.6601,-1,1
655,0.82527,0.659,-1,1
656,0.82592,0.6577,-1,1
657,0.82657,0.6559,-1,1
658,0.82721,0.6537,-1,1
659,0.82785,0.6516,-1,1
660,0.8285,0.6499,-1,1
661,0.82915,0.649,-1,1
662,0.82979,0.6483,-1,1
663,0.83044,0.6476,-1,1
664,0.83108,0.6467,-1,1
665,0.83172,0.6452,-1,1
666,0.83236,0.6438,-1,1
667,0.83299,0.6428,-1,1
668,0.83363,0.6422,-1,1
669,0.83427,0.6419,-1,1
670,0.83491,0.6414,-1,1
671,0.83555,0.6404,-1,1
672,0.83618,0.6391,-1,1
673,0.83682,0.6381,-1,1
674,0.83746,0.6378,-1,1
675,0.8381,0.6379,-1,1
676,0.83874,0.6383,-1,1
677,0.83938,0.6383,-1,1
678,0.84001,0.638,-1,1
679,0.84065,0.6375,-1,1
680,0.84128,0.6372,-1,1
681,0.84192,0.6373,-1,1
682,0.84256,0.6379,-1,1
683,0.8432,0.6384,-1,1
684,0.84384,0.6386,-1,1
685,0.84448,0.6388,-1,1
686,0.84513,0.6393,-1,1
687,0.84577,0.64,-1,1
688,0.84642,0.641,-1,1
689,0.84707,0.6423,-1,1
690,0.84772,0.6435,-1,1
691,0.84837,0.6447,-1,1
692,0.84902,0.646,-1,1
693,0.84967,0.6472,-1,1
694,0.85033,0.6489,-1,1
695,0.85099,0.6507,-1,1
696,0.85231,0.6527,-1,1
697,0.85231,0.6551,-1,1
698,0.85298,0.6577,-1,1
699,0.85365,0.6604,-1,1
700,0.855,0.663,-1,1
701,0.85568,0.6659,-1,1
702,0.85636,0.6687,-1,1
703,0.85705,0.6723,-1,1
704,0.85774,0.6755,-1,1
705,0.85844,0.6795,-1,1
706,0.85914,0.6835,-1,1
707,0.85985,0.6871,-1,1
708,0.86055,0.6907,-1,1
709,0.86127,0.6947,-1,1
710,0.86199,0.6994,-1,1
711,0.86272,0.7046,-1,1
712,0.86418,0.7101,-1,1
713,0.86492,0.7154,-1,1
714,0.86567,0.7209,-1,1
715,0.86642,0.7264,-1,1
716,0.86642,0.7319,-1,1
717,0.86718,0.7381,-1,1
718,0.86795,0.744,-1,1
719,0.86873,0.75,-1,1
720,0.86951,0.7558,-1,1
721,0.87029,0.7612,-1,1
722,0.87108,0.7668,-1,1
723,0.87189,0.7735,-1,1
724,0.87269,0.7805,-1,1
725,0.87433,0.7872,-1,1
726,0.87516,0.7937,-1,1
727,0.87599,0.8004,-1,1
728,0.87599,0.8083,-1,1
729,0.87684,0.8154,-1,1
730,0.87769,0.823,-1,1
731,0.87856,0.8308,-1,1
732,0.87942,0.8382,-1,1
733,0.88029,0.8451,-1,1
734,0.88117,0.8525,-1,1
735,0.88296,0.8604,-1,1
736,0.88387,0.8689,-1,1
737,0.88479,0.8771,-1,1
738,0.88479,0.8849,-1,1
739,0.88571,0.8927,-1,1
740,0.88664,0.9,-1,1
741,0.88758,0.9075,-1,1
742,0.88852,0.9154,-1,1
743,0.88948,0.9228,-1,1
744,0.89044,0.93,-1,1
745,0.89141,0.9372,-1,1
746,0.89239,0.945,-1,1
747,0.89437,0.9527,-1,1
748,0.89537,0.9603,-1,1
749,0.89537,0.9684,-1,1
750,0.89638,0.977,-1,1
751,0.89739,0.9847,-1,1
752,0.89842,0.9924,-1,1
753,0.89945,1.0004,-1,1
754,0.90049,1.0083,-1,1
755,0.90153,1.0157,-1,1
756,0.90259,1.0223,-1,1
757,0.90364,1.0291,-1,1
758,0.90577,1.0359,-1,1
759,0.90685,1.0434,-1,1
760,0.90685,1.0505,-1,1
761,0.90793,1.0576,-1,1
762,0.90903,1.0646,-1,1
763,0.91012,1.0709,-1,1
764,0.91122,1.0767,-1,1
765,0.91232,1.0825,-1,1
766,0.91344,1.0884,-1,1
767,0.91456,1.0951,-1,1
768,0.91569,1.1014,-1,1
769,0.91795,1.1067,-1,1
770,0.91909,1.1118,-1,1
771,0.91909,1.1179,-1,1
772,0.92024,1.1243,-1,1
773,0.92139,1.1304,-1,1
774,0.92255,1.1363,-1,1
775,0.92371,1.1418,-1,1
776,0.92487,1.1469,-1,1
777,0.92604,1.1518,-1,1
778,0.92722,1.1568,-1,1
779,0.9284,1.1622,-1,1
780,0.93078,1.1675,-1,1
781,0.93197,1.1718,-1,1
782,0.93197,1.1752,-1,1
783,0.93316,1.1793,-1,1
784,0.93437,1.1838,-1,1
785,0.93557,1.1886,-1,1
786,0.93679,1.1936,-1,1
787,0.938,1.1975,-1,1
788,0.93922,1.2013,-1,1
789,0.94045,1.205,-1,1
790,0.94167,1.2085,-1,1
791,0.9429,1.2127,-1,1
792,0.94414,1.2173,-1,1
793,0.94538,1.222,-1,1
794,0.94663,1.2263,-1,1
795,0.94788,1.2306,-1,1
796,0.94913,1.2344,-1,1
797,0.95039,1.2385,-1,1
798,0.95165,1.243,-1,1
799,0.95291,1.2477,-1,1
800,0.95546,1.2526,-1,1
801,0.95674,1.2572,-1,1
802,0.95801,1.2614,-1,1
803,0.95929,1.2649,-1,1
804,0.96057,1.2682,-1,1
805,0.96186,1.2717,-1,1
806,0.96315,1.2757,-1,1
807,0.96444,1.2796,-1,1
808,0.96574,1.2826,-1,1
809,0.96703,1.2849,-1,1
810,0.96833,1.2872,-1,1
811,0.97093,1.2899,-1,1
812,0.97224,1.2932,-1,1
813,0.97355,1.2964,-1,1
814,0.97486,1.2992,-1,1
815,0.97616,1.301,-1,1
816,0.97747,1.3025,-1,1
817,0.97878,1.304,-1,1
818,0.9801,1.3064,-1,1
819,0.98141,1.3089,-1,1
820,0.98273,1.3107,-1,1
821,0.98404,1.3113,-1,1
822,0.98667,1.3119,-1,1
823,0.98799,1.3131,-1,1
824,0.98931,1.3146,-1,1
825,0.99063,1.3159,-1,1
826,0.99194,1.3165,-1,1
827,0.99326,1.3167,-1,1
828,0.99458,1.3169,-1,1
829,0.9959,1.3171,-1,1
830,0.99722,1.3176,-1,1
831,0.99984,1.3175,-1,1
832,1.00115,1.3169,-1,1
833,1.00247,1.3163,-1,1
834,1.00379,1.3158,-1,1
835,1.0051,1.3159,-1,1
836,1.00641,1.3153,-1,1
837,1.00771,1.3141,-1,1
838,1.00901,1.3124,-1,1
