cnt,pos,speed,Dir,Force,
1,0,1.3731,-1,1
2,0.00135994,1.3707,-1,1
3,0.00273037,1.3688,-1,1
4,0.00409031,1.3674,-1,1
5,0.00544024,1.3655,-1,1
6,0.00679016,1.3628,-1,1
7,0.00813007,1.3598,-1,1
8,0.00948,1.3573,-1,1
9,0.0108299,1.3554,-1,1
10,0.0121803,1.3538,-1,1
11,0.0135202,1.3517,-1,1
12,0.0148501,1.3486,-1,1
13,0.01618,1.3455,-1,1
14,0.01752,1.343,-1,1
15,0.0188503,1.3412,-1,1
16,0.0201902,1.3397,-1,1
17,0.0215101,1.3376,-1,1
18,0.02283,1.3344,-1,1
19,0.0241404,1.3309,-1,1
20,0.0254703,1.3286,-1,1
21,0.0267901,1.3274,-1,1
22,0.02811,1.3262,-1,1
23,0.0294204,1.3232,-1,1
24,0.0320301,1.3197,-1,1
25,0.03334,1.3172,-1,1
26,0.0346503,1.3153,-1,1
27,0.0359602,1.3137,-1,1
28,0.0372601,1.3118,-1,1
29,0.0385504,1.3093,-1,1
30,0.0398402,1.3061,-1,1
31,0.0411401,1.3035,-1,1
32,0.0424399,1.3019,-1,1
33,0.0437403,1.3013,-1,1
34,0.0450301,1.3,-1,1
35,0.0463099,1.2969,-1,1
36,0.0475903,1.2945,-1,1
37,0.0488801,1.293,-1,1
38,0.0501699,1.2925,-1,1
39,0.0514503,1.2919,-1,1
40,0.0527301,1.2903,-1,1
41,0.0540004,1.2872,-1,1
42,0.0552702,1.2839,-1,1
43,0.05655,1.2827,-1,1
44,0.0578403,1.2823,-1,1
45,0.0591102,1.2817,-1,1
46,0.06037,1.279,-1,1
47,0.0616302,1.2764,-1,1
48,0.0629001,1.2744,-1,1
49,0.0641704,1.2733,-1,1
50,0.0654502,1.2734,-1,1
51,0.06672,1.2733,-1,1
52,0.0679703,1.2719,-1,1
53,0.0692301,1.2687,-1,1
54,0.0704803,1.2656,-1,1
55,0.0717402,1.2645,-1,1
56,0.07301,1.2648,-1,1
57,0.0755301,1.2636,-1,1
58,0.0755301,1.2608,-1,1
59,0.0767803,1.2579,-1,1
60,0.0780201,1.2547,-1,1
61,0.0792704,1.2529,-1,1
62,0.0805302,1.2532,-1,1
63,0.08179,1.2542,-1,1
64,0.0830503,1.2544,-1,1
65,0.08429,1.252,-1,1
66,0.0855303,1.2495,-1,1
67,0.0880203,1.2491,-1,1
68,0.0892801,1.2501,-1,1
69,0.0892801,1.251,-1,1
70,0.0905299,1.2512,-1,1
71,0.0917702,1.2508,-1,1
72,0.0930099,1.2483,-1,1
73,0.0942402,1.2454,-1,1
74,0.09548,1.2441,-1,1
75,0.0967402,1.2453,-1,1
76,0.09799,1.2455,-1,1
77,0.0992303,1.2438,-1,1
78,0.10169,1.2413,-1,1
79,0.10293,1.2396,-1,1
80,0.10293,1.2395,-1,1
81,0.10418,1.2394,-1,1
82,0.10543,1.2409,-1,1
83,0.10667,1.2418,-1,1
84,0.1079,1.2409,-1,1
85,0.10913,1.2383,-1,1
86,0.11036,1.2381,-1,1
87,0.1116,1.2396,-1,1
88,0.11285,1.2408,-1,1
89,0.11532,1.2405,-1,1
90,0.11532,1.2383,-1,1
91,0.11655,1.2361,-1,1
92,0.11777,1.2338,-1,1
93,0.11901,1.2332,-1,1
94,0.12026,1.2345,-1,1
95,0.1215,1.2365,-1,1
96,0.12274,1.236,-1,1
97,0.12396,1.2336,-1,1
98,0.12518,1.2314,-1,1
99,0.12641,1.2309,-1,1
100,0.12765,1.2328,-1,1
101,0.1289,1.2354,-1,1
102,0.13014,1.2368,-1,1
103,0.13137,1.2362,-1,1
104,0.13259,1.2335,-1,1
105,0.13381,1.2313,-1,1
106,0.13505,1.2311,-1,1
107,0.1363,1.2333,-1,1
108,0.13754,1.2358,-1,1
109,0.13878,1.2368,-1,1
110,0.14,1.235,-1,1
111,0.14122,1.2319,-1,1
112,0.14245,1.2304,-1,1
113,0.14369,1.2316,-1,1
114,0.14494,1.2339,-1,1
115,0.14618,1.2358,-1,1
116,0.14863,1.2344,-1,1
117,0.14985,1.232,-1,1
118,0.15108,1.2308,-1,1
119,0.15233,1.2316,-1,1
120,0.15357,1.2336,-1,1
121,0.15481,1.234,-1,1
122,0.15603,1.2336,-1,1
123,0.15848,1.2322,-1,1
124,0.15848,1.2321,-1,1
125,0.16097,1.2324,-1,1
126,0.16221,1.2343,-1,1
127,0.16343,1.2347,-1,1
128,0.16465,1.2333,-1,1
129,0.16588,1.2312,-1,1
130,0.16711,1.2304,-1,1
131,0.16836,1.2326,-1,1
132,0.1696,1.2344,-1,1
133,0.17083,1.2347,-1,1
134,0.17205,1.2326,-1,1
135,0.17327,1.2301,-1,1
136,0.1745,1.2289,-1,1
137,0.17574,1.2301,-1,1
138,0.17698,1.2325,-1,1
139,0.17944,1.2323,-1,1
140,0.18065,1.2305,-1,1
141,0.18188,1.2283,-1,1
142,0.18311,1.2271,-1,1
143,0.18434,1.2277,-1,1
144,0.18558,1.2294,-1,1
145,0.18681,1.2304,-1,1
146,0.18803,1.2299,-1,1
147,0.18925,1.2278,-1,1
148,0.19047,1.2259,-1,1
149,0.1917,1.2266,-1,1
150,0.19294,1.2282,-1,1
151,0.19417,1.2288,-1,1
152,0.19539,1.2284,-1,1
153,0.19661,1.2264,-1,1
154,0.19783,1.2248,-1,1
155,0.19905,1.2243,-1,1
156,0.20028,1.2248,-1,1
157,0.20151,1.2255,-1,1
158,0.20272,1.2249,-1,1
159,0.20394,1.2235,-1,1
160,0.20516,1.2219,-1,1
161,0.20638,1.2212,-1,1
162,0.2076,1.2212,-1,1
163,0.20882,1.2215,-1,1
164,0.21004,1.2207,-1,1
165,0.21124,1.2189,-1,1
166,0.21245,1.2172,-1,1
167,0.21367,1.2164,-1,1
168,0.21489,1.2168,-1,1
169,0.21611,1.2171,-1,1
170,0.21732,1.216,-1,1
171,0.21852,1.214,-1,1
172,0.21972,1.2114,-1,1
173,0.22092,1.2096,-1,1
174,0.22213,1.2098,-1,1
175,0.22335,1.2107,-1,1
176,0.22456,1.2106,-1,1
177,0.22576,1.2087,-1,1
178,0.22694,1.2052,-1,1
179,0.22813,1.2022,-1,1
180,0.22933,1.2012,-1,1
181,0.23054,1.2018,-1,1
182,0.23174,1.2025,-1,1
183,0.23294,1.202,-1,1
184,0.23413,1.1992,-1,1
185,0.2353,1.1954,-1,1
186,0.23648,1.1925,-1,1
187,0.23767,1.1917,-1,1
188,0.23887,1.1924,-1,1
189,0.24006,1.1929,-1,1
190,0.24125,1.1916,-1,1
191,0.24242,1.1881,-1,1
192,0.24359,1.1844,-1,1
193,0.24476,1.1817,-1,1
194,0.24593,1.1807,-1,1
195,0.24711,1.1809,-1,1
196,0.24829,1.1805,-1,1
197,0.24946,1.1782,-1,1
198,0.25062,1.1748,-1,1
199,0.25177,1.171,-1,1
200,0.25293,1.1685,-1,1
201,0.25409,1.1675,-1,1
202,0.25526,1.167,-1,1
203,0.25642,1.1658,-1,1
204,0.25757,1.1631,-1,1
205,0.25871,1.1595,-1,1
206,0.25985,1.1562,-1,1
207,0.261,1.1541,-1,1
208,0.26215,1.1529,-1,1
209,0.26329,1.1515,-1,1
210,0.26442,1.1491,-1,1
211,0.26555,1.1458,-1,1
212,0.26668,1.1422,-1,1
213,0.26781,1.1392,-1,1
214,0.26894,1.1372,-1,1
215,0.27007,1.1357,-1,1
216,0.27119,1.1336,-1,1
217,0.2723,1.1304,-1,1
218,0.27341,1.1263,-1,1
219,0.27452,1.1228,-1,1
220,0.27562,1.1202,-1,1
221,0.27674,1.1184,-1,1
222,0.27784,1.1164,-1,1
223,0.27894,1.1137,-1,1
224,0.28004,1.1099,-1,1
225,0.28112,1.1056,-1,1
226,0.2822,1.1017,-1,1
227,0.28329,1.0989,-1,1
228,0.28438,1.0969,-1,1
229,0.28546,1.0947,-1,1
230,0.28654,1.0917,-1,1
231,0.28761,1.0874,-1,1
232,0.28867,1.083,-1,1
233,0.28973,1.0791,-1,1
234,0.2908,1.076,-1,1
235,0.29186,1.0738,-1,1
236,0.29292,1.0715,-1,1
237,0.29397,1.0684,-1,1
238,0.29502,1.0642,-1,1
239,0.29606,1.0595,-1,1
240,0.2971,1.0554,-1,1
241,0.29918,1.0527,-1,1
242,0.30021,1.05,-1,1
243,0.30124,1.0467,-1,1
244,0.30227,1.0429,-1,1
245,0.30328,1.0382,-1,1
246,0.3043,1.0339,-1,1
247,0.30532,1.0299,-1,1
248,0.30734,1.0264,-1,1
249,0.30734,1.0233,-1,1
250,0.30935,1.0193,-1,1
251,0.31034,1.0147,-1,1
252,0.31134,1.0105,-1,1
253,0.31233,1.0071,-1,1
254,0.31333,1.004,-1,1
255,0.31431,1.0007,-1,1
256,0.31529,0.9969,-1,1
257,0.31626,0.993,-1,1
258,0.31724,0.9895,-1,1
259,0.31821,0.9861,-1,1
260,0.31918,0.9833,-1,1
261,0.32015,0.9805,-1,1
262,0.32111,0.9773,-1,1
263,0.32207,0.9736,-1,1
264,0.32302,0.9697,-1,1
265,0.32397,0.9664,-1,1
266,0.32492,0.9631,-1,1
267,0.32586,0.9597,-1,1
268,0.3268,0.9563,-1,1
269,0.32774,0.9527,-1,1
270,0.32867,0.949,-1,1
271,0.3296,0.9454,-1,1
272,0.33053,0.9419,-1,1
273,0.33146,0.9386,-1,1
274,0.33238,0.9355,-1,1
275,0.33329,0.9319,-1,1
276,0.3342,0.9285,-1,1
277,0.33511,0.9252,-1,1
278,0.33602,0.9217,-1,1
279,0.33692,0.9184,-1,1
280,0.33782,0.9151,-1,1
281,0.33872,0.9116,-1,1
282,0.33961,0.9079,-1,1
283,0.3405,0.9042,-1,1
284,0.34138,0.9003,-1,1
285,0.34226,0.8968,-1,1
286,0.34314,0.8935,-1,1
287,0.34401,0.8902,-1,1
288,0.34489,0.8871,-1,1
289,0.34576,0.8838,-1,1
290,0.34663,0.8805,-1,1
291,0.34748,0.8768,-1,1
292,0.34834,0.8733,-1,1
293,0.34919,0.87,-1,1
294,0.35005,0.8669,-1,1
295,0.3509,0.864,-1,1
296,0.35174,0.8607,-1,1
297,0.35259,0.8574,-1,1
298,0.35343,0.8539,-1,1
299,0.35427,0.8505,-1,1
300,0.3551,0.8472,-1,1
301,0.35593,0.8445,-1,1
302,0.35676,0.8417,-1,1
303,0.35758,0.8386,-1,1
304,0.3584,0.8354,-1,1
305,0.35922,0.8324,-1,1
306,0.36004,0.8297,-1,1
307,0.36086,0.8271,-1,1
308,0.36167,0.8243,-1,1
309,0.36248,0.8216,-1,1
310,0.36329,0.8186,-1,1
311,0.36409,0.8156,-1,1
312,0.36489,0.8129,-1,1
313,0.36569,0.8103,-1,1
314,0.36648,0.8078,-1,1
315,0.36728,0.8051,-1,1
316,0.36807,0.8026,-1,1
317,0.36886,0.8001,-1,1
318,0.36965,0.7978,-1,1
319,0.37043,0.7951,-1,1
320,0.37121,0.7926,-1,1
321,0.37199,0.7902,-1,1
322,0.37277,0.7878,-1,1
323,0.37354,0.7856,-1,1
324,0.37432,0.7835,-1,1
325,0.37509,0.7812,-1,1
326,0.37586,0.7787,-1,1
327,0.37663,0.7764,-1,1
328,0.37739,0.7742,-1,1
329,0.37816,0.7722,-1,1
330,0.37892,0.7704,-1,1
331,0.37968,0.7683,-1,1
332,0.38043,0.7662,-1,1
333,0.38119,0.764,-1,1
334,0.38194,0.7622,-1,1
335,0.3827,0.7606,-1,1
336,0.38345,0.759,-1,1
337,0.3842,0.7571,-1,1
338,0.38569,0.7551,-1,1
339,0.38644,0.7534,-1,1
340,0.38718,0.7518,-1,1
341,0.38793,0.7504,-1,1
342,0.38867,0.7489,-1,1
343,0.3894,0.7471,-1,1
344,0.39014,0.7453,-1,1
345,0.39088,0.7438,-1,1
346,0.39162,0.7425,-1,1
347,0.39236,0.7414,-1,1
348,0.39309,0.7398,-1,1
349,0.39382,0.7382,-1,1
350,0.39529,0.7368,-1,1
351,0.39602,0.7356,-1,1
352,0.39675,0.7348,-1,1
353,0.39675,0.7339,-1,1
354,0.39748,0.7328,-1,1
355,0.3982,0.7313,-1,1
356,0.39893,0.7301,-1,1
357,0.39966,0.729,-1,1
358,0.40039,0.7288,-1,1
359,0.40112,0.7283,-1,1
360,0.40184,0.7274,-1,1
361,0.40329,0.7265,-1,1
362,0.40401,0.7255,-1,1
363,0.40473,0.7251,-1,1
364,0.40473,0.7246,-1,1
365,0.40545,0.7243,-1,1
366,0.40618,0.7238,-1,1
367,0.4069,0.7234,-1,1
368,0.40762,0.7228,-1,1
369,0.40835,0.7224,-1,1
370,0.40907,0.7223,-1,1
371,0.40979,0.7226,-1,1
372,0.41123,0.7225,-1,1
373,0.41195,0.7222,-1,1
374,0.41195,0.7218,-1,1
375,0.41267,0.7214,-1,1
376,0.41339,0.7209,-1,1
377,0.41411,0.7207,-1,1
378,0.41484,0.7208,-1,1
379,0.41556,0.7213,-1,1
380,0.41628,0.7215,-1,1
381,0.41701,0.721,-1,1
382,0.41772,0.7209,-1,1
383,0.41917,0.7212,-1,1
384,0.41989,0.722,-1,1
385,0.41989,0.7225,-1,1
386,0.42062,0.723,-1,1
387,0.42134,0.7229,-1,1
388,0.42206,0.7226,-1,1
389,0.42278,0.7223,-1,1
390,0.42351,0.7228,-1,1
391,0.42496,0.7234,-1,1
392,0.42569,0.7239,-1,1
393,0.42641,0.7238,-1,1
394,0.42713,0.7235,-1,1
395,0.42713,0.7238,-1,1
396,0.42786,0.7241,-1,1
397,0.42859,0.7247,-1,1
398,0.42931,0.7254,-1,1
399,0.43004,0.7258,-1,1
400,0.43077,0.7257,-1,1
401,0.4315,0.7262,-1,1
402,0.43223,0.7266,-1,1
403,0.43296,0.7275,-1,1
404,0.43442,0.7284,-1,1
405,0.43516,0.7289,-1,1
406,0.43516,0.7295,-1,1
407,0.43589,0.73,-1,1
408,0.43662,0.7303,-1,1
409,0.43735,0.7309,-1,1
410,0.43809,0.732,-1,1
411,0.43883,0.7327,-1,1
412,0.43957,0.7337,-1,1
413,0.4403,0.7343,-1,1
414,0.44104,0.735,-1,1
415,0.44252,0.736,-1,1
416,0.44326,0.737,-1,1
417,0.44326,0.7381,-1,1
418,0.44401,0.7393,-1,1
419,0.44475,0.7403,-1,1
420,0.44549,0.7407,-1,1
421,0.44623,0.7412,-1,1
422,0.44698,0.7421,-1,1
423,0.44773,0.7433,-1,1
424,0.44848,0.7443,-1,1
425,0.44998,0.745,-1,1
426,0.45072,0.7454,-1,1
427,0.45147,0.7459,-1,1
428,0.45222,0.7467,-1,1
429,0.45298,0.7477,-1,1
430,0.45373,0.749,-1,1
431,0.45448,0.75,-1,1
432,0.45524,0.7505,-1,1
433,0.45599,0.7509,-1,1
434,0.4575,0.7518,-1,1
435,0.45826,0.7528,-1,1
436,0.45902,0.7537,-1,1
437,0.45977,0.7543,-1,1
438,0.46053,0.7549,-1,1
439,0.46129,0.7557,-1,1
440,0.46205,0.7565,-1,1
441,0.46281,0.7575,-1,1
442,0.46358,0.7584,-1,1
443,0.46434,0.7591,-1,1
444,0.46509,0.7592,-1,1
445,0.46586,0.7597,-1,1
446,0.46662,0.7608,-1,1
447,0.46739,0.7621,-1,1
448,0.46816,0.7629,-1,1
449,0.46892,0.7633,-1,1
450,0.46969,0.7636,-1,1
451,0.47046,0.7642,-1,1
452,0.47123,0.7651,-1,1
453,0.472,0.7662,-1,1
454,0.47277,0.7674,-1,1
455,0.47354,0.768,-1,1
456,0.47431,0.7683,-1,1
457,0.47508,0.7685,-1,1
458,0.47585,0.7694,-1,1
459,0.47662,0.7704,-1,1
460,0.4774,0.7714,-1,1
461,0.47817,0.7719,-1,1
462,0.47895,0.7721,-1,1
463,0.47972,0.7725,-1,1
464,0.4805,0.773,-1,1
465,0.48128,0.7739,-1,1
466,0.48205,0.7746,-1,1
467,0.48283,0.7752,-1,1
468,0.4836,0.7752,-1,1
469,0.48438,0.7753,-1,1
470,0.48515,0.7757,-1,1
471,0.48594,0.7764,-1,1
472,0.48672,0.7772,-1,1
473,0.48749,0.7774,-1,1
474,0.48827,0.7774,-1,1
475,0.48905,0.7773,-1,1
476,0.48983,0.7777,-1,1
477,0.49061,0.7783,-1,1
478,0.49139,0.7788,-1,1
479,0.49216,0.7789,-1,1
480,0.49294,0.7786,-1,1
481,0.49372,0.7784,-1,1
482,0.4945,0.7787,-1,1
483,0.49529,0.7792,-1,1
484,0.49606,0.7794,-1,1
485,0.49684,0.7794,-1,1
486,0.49762,0.7791,-1,1
487,0.4984,0.779,-1,1
488,0.49918,0.7791,-1,1
489,0.49996,0.7793,-1,1
490,0.50073,0.7792,-1,1
491,0.50151,0.779,-1,1
492,0.50229,0.7784,-1,1
493,0.50307,0.778,-1,1
494,0.50384,0.778,-1,1
495,0.50462,0.7777,-1,1
496,0.50539,0.7775,-1,1
497,0.50617,0.7769,-1,1
498,0.50694,0.7764,-1,1
499,0.50772,0.7759,-1,1
500,0.50849,0.7755,-1,1
501,0.50926,0.7751,-1,1
502,0.51003,0.7746,-1,1
503,0.51081,0.774,-1,1
504,0.51158,0.7732,-1,1
505,0.51234,0.7725,-1,1
506,0.51311,0.7719,-1,1
507,0.51388,0.7714,-1,1
508,0.51465,0.7708,-1,1
509,0.51542,0.7701,-1,1
510,0.51618,0.7692,-1,1
511,0.51694,0.7682,-1,1
512,0.51771,0.7675,-1,1
513,0.51848,0.7669,-1,1
514,0.51924,0.7662,-1,1
515,0.52,0.7655,-1,1
516,0.52076,0.7644,-1,1
517,0.52152,0.7635,-1,1
518,0.52228,0.7626,-1,1
519,0.52304,0.7619,-1,1
520,0.5238,0.7614,-1,1
521,0.52455,0.7608,-1,1
522,0.52531,0.7598,-1,1
523,0.52606,0.7588,-1,1
524,0.52682,0.758,-1,1
525,0.52757,0.7575,-1,1
526,0.52833,0.7569,-1,1
527,0.52908,0.756,-1,1
528,0.52983,0.7551,-1,1
529,0.53058,0.754,-1,1
530,0.53132,0.7532,-1,1
531,0.53282,0.7525,-1,1
532,0.53357,0.7519,-1,1
533,0.53432,0.7509,-1,1
534,0.53506,0.7496,-1,1
535,0.5358,0.748,-1,1
536,0.53654,0.7468,-1,1
537,0.53728,0.746,-1,1
538,0.53803,0.7453,-1,1
539,0.53877,0.7445,-1,1
540,0.53951,0.7433,-1,1
541,0.54024,0.7421,-1,1
542,0.54098,0.7407,-1,1
543,0.54172,0.7398,-1,1
544,0.54245,0.7393,-1,1
545,0.54319,0.7388,-1,1
546,0.54392,0.7379,-1,1
547,0.54465,0.7366,-1,1
548,0.54538,0.7351,-1,1
549,0.54611,0.734,-1,1
550,0.54684,0.7333,-1,1
551,0.5483,0.7327,-1,1
552,0.54902,0.7316,-1,1
553,0.54975,0.7302,-1,1
554,0.55047,0.7288,-1,1
555,0.55119,0.7277,-1,1
556,0.55192,0.7272,-1,1
557,0.55264,0.7266,-1,1
558,0.55336,0.7258,-1,1
559,0.55408,0.7247,-1,1
560,0.5548,0.7233,-1,1
561,0.55552,0.7222,-1,1
562,0.55697,0.722,-1,1
563,0.55769,0.7216,-1,1
564,0.5584,0.7206,-1,1
565,0.55911,0.7194,-1,1
566,0.55982,0.7181,-1,1
567,0.56054,0.7173,-1,1
568,0.56126,0.7172,-1,1
569,0.56198,0.7168,-1,1
570,0.56269,0.7161,-1,1
571,0.5634,0.715,-1,1
572,0.56411,0.714,-1,1
573,0.56482,0.7137,-1,1
574,0.56554,0.7138,-1,1
575,0.56625,0.714,-1,1
576,0.56696,0.7133,-1,1
577,0.56766,0.7122,-1,1
578,0.56837,0.7109,-1,1
579,0.56908,0.7104,-1,1
580,0.56979,0.7105,-1,1
581,0.5705,0.7103,-1,1
582,0.57121,0.7098,-1,1
583,0.57191,0.7088,-1,1
584,0.57262,0.7083,-1,1
585,0.57333,0.7079,-1,1
586,0.57404,0.7081,-1,1
587,0.57474,0.7081,-1,1
588,0.57545,0.7077,-1,1
589,0.57615,0.7072,-1,1
590,0.57686,0.7067,-1,1
591,0.57757,0.7068,-1,1
592,0.57827,0.7066,-1,1
593,0.57898,0.7066,-1,1
594,0.57968,0.7064,-1,1
595,0.58039,0.7063,-1,1
596,0.5811,0.7065,-1,1
597,0.58181,0.7068,-1,1
598,0.58252,0.7072,-1,1
599,0.58322,0.7072,-1,1
600,0.58393,0.7074,-1,1
601,0.58464,0.7074,-1,1
602,0.58535,0.7078,-1,1
603,0.58606,0.7082,-1,1
604,0.58677,0.7084,-1,1
605,0.58748,0.7086,-1,1
606,0.58819,0.7088,-1,1
607,0.58891,0.7094,-1,1
608,0.58962,0.7101,-1,1
609,0.59033,0.7108,-1,1
610,0.59104,0.7111,-1,1
611,0.59175,0.7111,-1,1
612,0.59247,0.7116,-1,1
613,0.59318,0.7122,-1,1
614,0.5939,0.713,-1,1
615,0.59461,0.7135,-1,1
616,0.59533,0.7137,-1,1
617,0.59605,0.714,-1,1
618,0.59676,0.7144,-1,1
619,0.59748,0.7151,-1,1
620,0.5982,0.716,-1,1
621,0.59892,0.717,-1,1
622,0.59964,0.7175,-1,1
623,0.60036,0.7179,-1,1
624,0.60108,0.7184,-1,1
625,0.60181,0.7191,-1,1
626,0.60253,0.7201,-1,1
627,0.60326,0.721,-1,1
628,0.60398,0.7218,-1,1
629,0.60471,0.7225,-1,1
630,0.60543,0.7232,-1,1
631,0.60616,0.724,-1,1
632,0.60689,0.7249,-1,1
633,0.60762,0.7261,-1,1
634,0.60835,0.7268,-1,1
635,0.60908,0.7278,-1,1
636,0.60981,0.7285,-1,1
637,0.61055,0.7292,-1,1
638,0.61128,0.7301,-1,1
639,0.61202,0.7312,-1,1
640,0.61276,0.7322,-1,1
641,0.61349,0.7332,-1,1
642,0.61423,0.7341,-1,1
643,0.61497,0.7349,-1,1
644,0.61571,0.736,-1,1
645,0.61645,0.7369,-1,1
646,0.61719,0.7379,-1,1
647,0.61794,0.739,-1,1
648,0.61868,0.7402,-1,1
649,0.61943,0.741,-1,1
650,0.62017,0.7418,-1,1
651,0.62092,0.7428,-1,1
652,0.62167,0.7439,-1,1
653,0.62242,0.745,-1,1
654,0.62317,0.7463,-1,1
655,0.62393,0.7474,-1,1
656,0.62467,0.7483,-1,1
657,0.62543,0.7491,-1,1
658,0.62618,0.7499,-1,1
659,0.62694,0.7512,-1,1
660,0.6277,0.7527,-1,1
661,0.62846,0.7538,-1,1
662,0.62922,0.7548,-1,1
663,0.62998,0.7556,-1,1
664,0.63074,0.7567,-1,1
665,0.63151,0.758,-1,1
666,0.63227,0.7595,-1,1
667,0.63304,0.7608,-1,1
668,0.6338,0.7617,-1,1
669,0.63457,0.7626,-1,1
670,0.63534,0.7639,-1,1
671,0.63688,0.7653,-1,1
672,0.63766,0.7667,-1,1
673,0.63843,0.7683,-1,1
674,0.63921,0.7695,-1,1
675,0.63999,0.7707,-1,1
676,0.64076,0.7721,-1,1
677,0.64155,0.7736,-1,1
678,0.64233,0.7753,-1,1
679,0.64311,0.7767,-1,1
680,0.64389,0.7777,-1,1
681,0.64468,0.779,-1,1
682,0.64546,0.7803,-1,1
683,0.64625,0.782,-1,1
684,0.64704,0.7835,-1,1
685,0.64783,0.7849,-1,1
686,0.64862,0.786,-1,1
687,0.64941,0.787,-1,1
688,0.65021,0.7882,-1,1
689,0.651,0.7897,-1,1
690,0.6518,0.7911,-1,1
691,0.6526,0.7922,-1,1
692,0.65339,0.7934,-1,1
693,0.65499,0.7944,-1,1
694,0.65499,0.7958,-1,1
695,0.6558,0.7972,-1,1
696,0.65661,0.7987,-1,1
697,0.65741,0.8001,-1,1
698,0.65821,0.8009,-1,1
699,0.65901,0.8017,-1,1
700,0.65982,0.8027,-1,1
701,0.66063,0.8041,-1,1
702,0.66144,0.8055,-1,1
703,0.66225,0.8063,-1,1
704,0.66387,0.8068,-1,1
705,0.66469,0.8076,-1,1
706,0.66469,0.8086,-1,1
707,0.6655,0.8097,-1,1
708,0.66632,0.8112,-1,1
709,0.66713,0.8124,-1,1
710,0.66795,0.8132,-1,1
711,0.66876,0.8137,-1,1
712,0.66958,0.8144,-1,1
713,0.67041,0.8157,-1,1
714,0.67123,0.8168,-1,1
715,0.67287,0.8175,-1,1
716,0.67369,0.8179,-1,1
717,0.67369,0.8187,-1,1
718,0.67451,0.8194,-1,1
719,0.67534,0.8202,-1,1
720,0.67616,0.8213,-1,1
721,0.67699,0.8223,-1,1
722,0.67781,0.8229,-1,1
723,0.67864,0.8231,-1,1
724,0.67947,0.8239,-1,1
725,0.68029,0.8248,-1,1
726,0.68195,0.8255,-1,1
727,0.68277,0.8258,-1,1
728,0.6836,0.8262,-1,1
729,0.6836,0.8269,-1,1
730,0.68443,0.8274,-1,1
731,0.68527,0.8281,-1,1
732,0.6861,0.8288,-1,1
733,0.68693,0.8292,-1,1
734,0.68776,0.8294,-1,1
735,0.68942,0.8299,-1,1
736,0.69026,0.8306,-1,1
737,0.69109,0.8313,-1,1
738,0.69192,0.8317,-1,1
739,0.69275,0.8321,-1,1
740,0.69359,0.8327,-1,1
741,0.69443,0.8334,-1,1
742,0.69527,0.8338,-1,1
743,0.6961,0.8344,-1,1
744,0.69694,0.8348,-1,1
745,0.69777,0.8352,-1,1
746,0.69861,0.8358,-1,1
747,0.69945,0.8364,-1,1
748,0.70029,0.8372,-1,1
749,0.70113,0.8376,-1,1
750,0.70197,0.838,-1,1
751,0.70281,0.8383,-1,1
752,0.70366,0.8389,-1,1
753,0.7045,0.8396,-1,1
754,0.70534,0.8402,-1,1
755,0.70618,0.8404,-1,1
756,0.70702,0.8408,-1,1
757,0.70787,0.8414,-1,1
758,0.70871,0.8421,-1,1
759,0.70956,0.8427,-1,1
760,0.7104,0.8431,-1,1
761,0.71125,0.8432,-1,1
762,0.71209,0.8437,-1,1
763,0.71294,0.8442,-1,1
764,0.71379,0.8448,-1,1
765,0.71463,0.8455,-1,1
766,0.71548,0.8461,-1,1
767,0.71718,0.8466,-1,1
768,0.71803,0.8471,-1,1
769,0.71888,0.8477,-1,1
770,0.71973,0.8482,-1,1
771,0.72058,0.8489,-1,1
772,0.72143,0.8494,-1,1
773,0.72229,0.85,-1,1
774,0.72314,0.8509,-1,1
775,0.724,0.8517,-1,1
776,0.72485,0.8524,-1,1
777,0.72657,0.8532,-1,1
778,0.72742,0.854,-1,1
779,0.72742,0.8547,-1,1
780,0.72828,0.8554,-1,1
781,0.72914,0.8561,-1,1
782,0.73,0.8568,-1,1
783,0.73086,0.8576,-1,1
784,0.73172,0.8584,-1,1
785,0.73259,0.8595,-1,1
786,0.73345,0.8603,-1,1
787,0.73432,0.861,-1,1
788,0.73605,0.8617,-1,1
789,0.73692,0.8627,-1,1
790,0.73692,0.8639,-1,1
791,0.73779,0.8651,-1,1
792,0.73866,0.8662,-1,1
793,0.73953,0.8674,-1,1
794,0.74041,0.8685,-1,1
795,0.74128,0.8696,-1,1
796,0.74216,0.8708,-1,1
797,0.74304,0.872,-1,1
798,0.74391,0.8735,-1,1
799,0.74568,0.8749,-1,1
800,0.74656,0.8766,-1,1
801,0.74656,0.8784,-1,1
802,0.74745,0.8801,-1,1
803,0.74834,0.8815,-1,1
804,0.74923,0.883,-1,1
805,0.75012,0.8846,-1,1
806,0.75101,0.8864,-1,1
807,0.75191,0.8884,-1,1
808,0.75281,0.8902,-1,1
809,0.75371,0.8921,-1,1
810,0.75551,0.894,-1,1
811,0.75642,0.8962,-1,1
812,0.75733,0.8986,-1,1
813,0.75733,0.901,-1,1
814,0.75825,0.9031,-1,1
815,0.75916,0.9054,-1,1
816,0.76008,0.9078,-1,1
817,0.761,0.9098,-1,1
818,0.76192,0.912,-1,1
819,0.76284,0.9146,-1,1
820,0.76377,0.9176,-1,1
821,0.76564,0.9202,-1,1
822,0.76658,0.9227,-1,1
823,0.76751,0.9254,-1,1
824,0.76751,0.9284,-1,1
825,0.76845,0.9309,-1,1
826,0.7694,0.9338,-1,1
827,0.77035,0.9369,-1,1
828,0.7713,0.9402,-1,1
829,0.77226,0.9435,-1,1
830,0.77419,0.9463,-1,1
831,0.77515,0.9494,-1,1
832,0.77612,0.9526,-1,1
833,0.77709,0.9559,-1,1
834,0.77807,0.9594,-1,1
835,0.77807,0.9636,-1,1
836,0.77905,0.9672,-1,1
837,0.78004,0.9711,-1,1
838,0.78103,0.9746,-1,1
