cnt,pos,speed,Dir,Force,
1,3.22967,1.006,-1,5
2,3.23068,1.009,-1,5
3,3.23168,1.001,-1,5
4,3.23268,1.001,-1,5
5,3.23369,1.009,-1,5
6,3.23471,1.024,-1,5
7,3.23574,1.030,-1,5
8,3.23676,1.021,-1,5
9,3.23778,1.017,-1,5
10,3.23881,1.032,-1,5
11,3.23986,1.046,-1,5
12,3.24090,1.042,-1,5
13,3.24193,1.031,-1,5
14,3.24297,1.038,-1,5
15,3.24403,1.058,-1,5
16,3.24510,1.068,-1,5
17,3.24615,1.056,-1,5
18,3.24720,1.046,-1,5
19,3.24826,1.058,-1,5
20,3.24934,1.081,-1,5
21,3.25042,1.083,-1,5
22,3.25149,1.070,-1,5
23,3.25256,1.069,-1,5
24,3.25365,1.089,-1,5
25,3.25475,1.104,-1,5
26,3.25585,1.093,-1,5
27,3.25693,1.078,-1,5
28,3.25802,1.093,-1,5
29,3.25914,1.122,-1,5
30,3.26026,1.123,-1,5
31,3.26136,1.101,-1,5
32,3.26246,1.098,-1,5
33,3.26359,1.125,-1,5
34,3.26473,1.141,-1,5
35,3.26585,1.125,-1,5
36,3.26696,1.110,-1,5
37,3.26809,1.129,-1,5
38,3.26925,1.155,-1,5
39,3.27040,1.150,-1,5
40,3.27152,1.127,-1,5
41,3.27266,1.131,-1,5
42,3.27382,1.160,-1,5
43,3.27499,1.169,-1,5
44,3.27614,1.151,-1,5
45,3.27728,1.142,-1,5
46,3.27844,1.165,-1,5
47,3.27963,1.181,-1,5
48,3.28079,1.169,-1,5
49,3.28195,1.158,-1,5
50,3.28313,1.172,-1,5
51,3.28432,1.191,-1,5
52,3.28550,1.187,-1,5
53,3.28668,1.175,-1,5
54,3.28786,1.181,-1,5
55,3.28905,1.195,-1,5
56,3.29025,1.197,-1,5
57,3.29145,1.195,-1,5
58,3.29264,1.198,-1,5
59,3.29385,1.203,-1,5
60,3.29505,1.203,-1,5
61,3.29625,1.205,-1,5
62,3.29746,1.210,-1,5
63,3.29868,1.214,-1,5
64,3.29989,1.210,-1,5
65,3.30111,1.221,-1,5
66,3.30233,1.223,-1,5
67,3.30355,1.219,-1,5
68,3.30477,1.218,-1,5
69,3.30600,1.230,-1,5
70,3.30724,1.243,-1,5
71,3.30848,1.234,-1,5
72,3.30970,1.226,-1,5
73,3.31094,1.235,-1,5
74,3.31219,1.256,-1,5
75,3.31345,1.244,-1,5
76,3.31469,1.244,-1,5
77,3.31594,1.247,-1,5
78,3.31720,1.265,-1,5
79,3.31846,1.261,-1,5
80,3.31972,1.258,-1,5
81,3.32099,1.265,-1,5
82,3.32226,1.275,-1,5
83,3.32354,1.274,-1,5
84,3.32609,1.279,-1,5
85,3.32737,1.282,-1,5
86,3.32866,1.287,-1,5
87,3.32996,1.296,-1,5
88,3.33126,1.299,-1,5
89,3.33255,1.293,-1,5
90,3.33385,1.295,-1,5
91,3.33515,1.308,-1,5
92,3.33647,1.314,-1,5
93,3.33778,1.313,-1,5
94,3.33909,1.313,-1,5
95,3.34042,1.326,-1,5
96,3.34174,1.326,-1,5
97,3.34306,1.320,-1,5
98,3.34439,1.327,-1,5
99,3.34573,1.337,-1,5
100,3.34707,1.341,-1,5
101,3.34841,1.342,-1,5
102,3.34975,1.343,-1,5
103,3.35109,1.342,-1,5
104,3.35244,1.347,-1,5
105,3.35380,1.358,-1,5
106,3.35516,1.361,-1,5
107,3.35652,1.354,-1,5
108,3.35787,1.355,-1,5
109,3.35924,1.369,-1,5
110,3.36061,1.372,-1,5
111,3.36198,1.371,-1,5
112,3.36336,1.371,-1,5
113,3.36473,1.377,-1,5
114,3.36611,1.378,-1,5
115,3.36750,1.385,-1,5
116,3.36888,1.388,-1,5
117,3.37027,1.387,-1,5
118,3.37166,1.387,-1,5
119,3.37305,1.396,-1,5
120,3.37445,1.398,-1,5
121,3.37585,1.397,-1,5
122,3.37725,1.404,-1,5
123,3.37866,1.410,-1,5
124,3.38007,1.407,-1,5
125,3.38148,1.406,-1,5
126,3.38289,1.414,-1,5
127,3.38430,1.414,-1,5
128,3.38572,1.419,-1,5
129,3.38715,1.422,-1,5
130,3.38857,1.427,-1,5
131,3.39000,1.421,-1,5
132,3.39142,1.425,-1,5
133,3.39286,1.435,-1,5
134,3.39429,1.437,-1,5
135,3.39573,1.437,-1,5
136,3.39717,1.441,-1,5
137,3.39861,1.440,-1,5
138,3.40005,1.442,-1,5
139,3.40150,1.452,-1,5
140,3.40296,1.456,-1,5
141,3.40441,1.452,-1,5
142,3.40587,1.454,-1,5
143,3.40879,1.461,-1,5
144,3.40879,1.461,-1,5
145,3.41025,1.466,-1,5
146,3.41172,1.466,-1,5
147,3.41318,1.466,-1,5
148,3.41465,1.470,-1,5
149,3.41613,1.474,-1,5
150,3.41761,1.479,-1,5
151,3.41909,1.480,-1,5
152,3.42057,1.482,-1,5
153,3.42353,1.483,-1,5
154,3.42353,1.494,-1,5
155,3.42502,1.494,-1,5
156,3.42652,1.496,-1,5
157,3.42801,1.490,-1,5
158,3.42951,1.496,-1,5
159,3.43100,1.495,-1,5
160,3.43250,1.501,-1,5
161,3.43401,1.510,-1,5
162,3.43553,1.513,-1,5
163,3.43703,1.505,-1,5
164,3.43853,1.501,-1,5
165,3.44004,1.513,-1,5
166,3.44156,1.518,-1,5
167,3.44309,1.527,-1,5
168,3.44461,1.523,-1,5
169,3.44613,1.516,-1,5
170,3.44764,1.516,-1,5
171,3.44918,1.535,-1,5
172,3.45072,1.538,-1,5
173,3.45378,1.531,-1,5
174,3.45378,1.529,-1,5
175,3.45531,1.538,-1,5
176,3.45685,1.538,-1,5
177,3.45840,1.552,-1,5
178,3.45995,1.551,-1,5
179,3.46149,1.538,-1,5
180,3.46303,1.543,-1,5
181,3.46459,1.552,-1,5
182,3.46614,1.558,-1,5
183,3.46771,1.560,-1,5
184,3.46926,1.551,-1,5
185,3.47080,1.549,-1,5
186,3.47237,1.566,-1,5
187,3.47394,1.571,-1,5
188,3.47551,1.565,-1,5
189,3.47707,1.562,-1,5
190,3.47863,1.559,-1,5
191,3.48020,1.569,-1,5
192,3.48336,1.579,-1,5
193,3.48493,1.564,-1,5
194,3.48650,1.570,-1,5
195,3.48808,1.581,-1,5
196,3.48967,1.590,-1,5
197,3.49126,1.589,-1,5
198,3.49283,1.579,-1,5
199,3.49441,1.572,-1,5
200,3.49599,1.587,-1,5
201,3.49759,1.596,-1,5
202,3.49919,1.598,-1,5
203,3.50078,1.589,-1,5
204,3.50236,1.581,-1,5
205,3.50394,1.586,-1,5
206,3.50555,1.607,-1,5
207,3.50715,1.604,-1,5
208,3.50875,1.593,-1,5
209,3.51034,1.589,-1,5
210,3.51193,1.597,-1,5
211,3.51354,1.609,-1,5
212,3.51515,1.610,-1,5
213,3.51675,1.596,-1,5
214,3.51834,1.592,-1,5
215,3.51995,1.608,-1,5
216,3.52156,1.615,-1,5
217,3.52317,1.606,-1,5
218,3.52477,1.596,-1,5
219,3.52636,1.597,-1,5
220,3.52797,1.612,-1,5
221,3.52960,1.622,-1,5
222,3.53120,1.603,-1,5
223,3.53439,1.601,-1,5
224,3.53439,1.614,-1,5
225,3.53600,1.618,-1,5
226,3.53762,1.618,-1,5
227,3.53923,1.604,-1,5
228,3.54081,1.587,-1,5
229,3.54241,1.598,-1,5
230,3.54403,1.616,-1,5
231,3.54564,1.598,-1,5
232,3.54882,1.586,-1,5
233,3.54882,1.593,-1,5
234,3.55041,1.593,-1,5
235,3.55202,1.607,-1,5
236,3.55363,1.607,-1,5
237,3.55521,1.585,-1,5
238,3.55679,1.576,-1,5
239,3.55838,1.590,-1,5
240,3.55998,1.601,-1,5
241,3.56157,1.594,-1,5
242,3.56315,1.564,-1,5
243,3.56471,1.564,-1,5
244,3.56629,1.585,-1,5
245,3.56789,1.594,-1,5
246,3.56946,1.574,-1,5
247,3.57102,1.555,-1,5
248,3.57257,1.555,-1,5
249,3.57414,1.571,-1,5
250,3.57572,1.579,-1,5
251,3.57728,1.562,-1,5
252,3.58036,1.536,-1,5
253,3.58036,1.554,-1,5
254,3.58191,1.554,-1,5
255,3.58347,1.558,-1,5
256,3.58501,1.545,-1,5
257,3.58653,1.519,-1,5
258,3.58805,1.514,-1,5
259,3.58958,1.530,-1,5
260,3.59112,1.543,-1,5
261,3.59264,1.502,-1,5
262,3.59564,1.493,-1,5
263,3.59714,1.507,-1,5
264,3.59866,1.515,-1,5
265,3.60016,1.507,-1,5
266,3.60164,1.477,-1,5
267,3.60311,1.469,-1,5
268,3.60460,1.487,-1,5
269,3.60609,1.493,-1,5
270,3.60757,1.475,-1,5
271,3.60902,1.455,-1,5
272,3.61046,1.443,-1,5
273,3.61192,1.453,-1,5
274,3.61339,1.471,-1,5
275,3.61485,1.457,-1,5
276,3.61627,1.425,-1,5
277,3.61769,1.414,-1,5
278,3.61911,1.428,-1,5
279,3.62055,1.440,-1,5
280,3.62198,1.431,-1,5
281,3.62340,1.411,-1,5
282,3.62479,1.390,-1,5
283,3.62618,1.393,-1,5
284,3.62759,1.411,-1,5
285,3.62900,1.406,-1,5
286,3.63038,1.383,-1,5
287,3.63175,1.370,-1,5
288,3.63312,1.372,-1,5
289,3.63450,1.375,-1,5
290,3.63587,1.373,-1,5
291,3.63723,1.363,-1,5
292,3.63858,1.347,-1,5
293,3.63992,1.340,-1,5
294,3.64127,1.349,-1,5
295,3.64261,1.347,-1,5
296,3.64394,1.330,-1,5
297,3.64526,1.320,-1,5
298,3.64659,1.322,-1,5
299,3.64791,1.321,-1,5
300,3.64922,1.314,-1,5
301,3.65053,1.306,-1,5
302,3.65183,1.301,-1,5
303,3.65312,1.294,-1,5
304,3.65442,1.294,-1,5
305,3.65571,1.294,-1,5
306,3.65699,1.280,-1,5
307,3.65826,1.270,-1,5
308,3.65953,1.273,-1,5
309,3.66081,1.278,-1,5
310,3.66208,1.270,-1,5
311,3.66333,1.251,-1,5
312,3.66458,1.246,-1,5
313,3.66583,1.250,-1,5
314,3.66708,1.250,-1,5
315,3.66832,1.245,-1,5
316,3.66956,1.237,-1,5
317,3.67079,1.229,-1,5
318,3.67201,1.221,-1,5
319,3.67323,1.222,-1,5
320,3.67446,1.226,-1,5
321,3.67568,1.218,-1,5
322,3.67689,1.209,-1,5
323,3.67809,1.205,-1,5
324,3.67930,1.207,-1,5
325,3.68050,1.205,-1,5
326,3.68169,1.193,-1,5
327,3.68288,1.189,-1,5
328,3.68408,1.195,-1,5
329,3.68527,1.194,-1,5
330,3.68645,1.182,-1,5
331,3.68763,1.176,-1,5
332,3.68881,1.176,-1,5
333,3.68998,1.175,-1,5
334,3.69115,1.171,-1,5
335,3.69232,1.171,-1,5
336,3.69349,1.170,-1,5
337,3.69466,1.162,-1,5
338,3.69581,1.152,-1,5
339,3.69696,1.155,-1,5
340,3.69813,1.163,-1,5
341,3.69929,1.161,-1,5
342,3.70044,1.151,-1,5
343,3.70158,1.142,-1,5
344,3.70273,1.147,-1,5
345,3.70388,1.151,-1,5
346,3.70503,1.147,-1,5
347,3.70617,1.142,-1,5
348,3.70731,1.147,-1,5
349,3.70846,1.148,-1,5
350,3.70960,1.140,-1,5
351,3.71074,1.136,-1,5
352,3.71188,1.139,-1,5
353,3.71302,1.145,-1,5
354,3.71416,1.140,-1,5
355,3.71530,1.139,-1,5
356,3.71645,1.145,-1,5
357,3.71759,1.143,-1,5
358,3.71873,1.136,-1,5
359,3.71986,1.131,-1,5
360,3.72099,1.138,-1,5
361,3.72214,1.148,-1,5
362,3.72329,1.144,-1,5
363,3.72443,1.139,-1,5
364,3.72557,1.140,-1,5
365,3.72671,1.142,-1,5
366,3.72785,1.141,-1,5
367,3.72899,1.138,-1,5
368,3.73013,1.147,-1,5
369,3.73129,1.153,-1,5
370,3.73244,1.151,-1,5
371,3.73358,1.143,-1,5
372,3.73472,1.142,-1,5
373,3.73587,1.152,-1,5
374,3.73703,1.159,-1,5
375,3.73819,1.156,-1,5
376,3.73934,1.153,-1,5
377,3.74050,1.156,-1,5
378,3.74166,1.157,-1,5
379,3.74281,1.155,-1,5
380,3.74397,1.160,-1,5
381,3.74514,1.167,-1,5
382,3.74631,1.169,-1,5
383,3.74747,1.161,-1,5
384,3.74863,1.159,-1,5
385,3.74979,1.166,-1,5
386,3.75096,1.170,-1,5
387,3.75213,1.165,-1,5
388,3.75330,1.169,-1,5
389,3.75447,1.176,-1,5
390,3.75565,1.177,-1,5
391,3.75682,1.166,-1,5
392,3.75798,1.165,-1,5
393,3.75915,1.173,-1,5
394,3.76033,1.182,-1,5
395,3.76151,1.178,-1,5
396,3.76269,1.176,-1,5
397,3.76387,1.178,-1,5
398,3.76505,1.178,-1,5
399,3.76622,1.173,-1,5
400,3.76739,1.176,-1,5
401,3.76858,1.185,-1,5
402,3.76976,1.187,-1,5
403,3.77094,1.179,-1,5
404,3.77212,1.177,-1,5
405,3.77330,1.181,-1,5
406,3.77449,1.184,-1,5
407,3.77567,1.181,-1,5
408,3.77685,1.180,-1,5
409,3.77803,1.186,-1,5
410,3.77922,1.183,-1,5
411,3.78039,1.179,-1,5
412,3.78157,1.177,-1,5
413,3.78275,1.183,-1,5
414,3.78394,1.186,-1,5
415,3.78512,1.180,-1,5
416,3.78630,1.176,-1,5
417,3.78748,1.179,-1,5
418,3.78866,1.183,-1,5
419,3.78984,1.179,-1,5
420,3.79102,1.178,-1,5
421,3.79220,1.179,-1,5
422,3.79338,1.183,-1,5
423,3.79456,1.178,-1,5
424,3.79573,1.176,-1,5
425,3.79691,1.178,-1,5
426,3.79809,1.179,-1,5
427,3.79926,1.175,-1,5
428,3.80044,1.177,-1,5
429,3.80162,1.181,-1,5
430,3.80280,1.172,-1,5
431,3.80398,1.166,-1,5
432,3.80514,1.166,-1,5
433,3.80632,1.176,-1,5
434,3.80750,1.181,-1,5
435,3.80868,1.176,-1,5
436,3.80985,1.170,-1,5
437,3.81102,1.175,-1,5
438,3.81220,1.176,-1,5
439,3.81337,1.169,-1,5
440,3.81453,1.166,-1,5
441,3.81571,1.176,-1,5
442,3.81689,1.174,-1,5
443,3.81806,1.174,-1,5
444,3.81923,1.171,-1,5
445,3.82040,1.171,-1,5
446,3.82157,1.176,-1,5
447,3.82275,1.173,-1,5
448,3.82392,1.171,-1,5
449,3.82628,1.179,-1,5
450,3.82745,1.171,-1,5
451,3.82745,1.171,-1,5
452,3.82861,1.167,-1,5
453,3.82979,1.176,-1,5
454,3.83097,1.181,-1,5
455,3.83215,1.176,-1,5
456,3.83332,1.170,-1,5
457,3.83449,1.178,-1,5
458,3.83568,1.181,-1,5
459,3.83685,1.174,-1,5
460,3.83802,1.169,-1,5
461,3.83920,1.180,-1,5
462,3.84038,1.186,-1,5
463,3.84156,1.179,-1,5
464,3.84274,1.173,-1,5
465,3.84392,1.181,-1,5
466,3.84510,1.186,-1,5
467,3.84629,1.181,-1,5
468,3.84747,1.180,-1,5
469,3.84865,1.188,-1,5
470,3.84985,1.192,-1,5
471,3.85103,1.185,-1,5
472,3.85221,1.184,-1,5
473,3.85340,1.190,-1,5
474,3.85460,1.194,-1,5
475,3.85579,1.192,-1,5
476,3.85698,1.193,-1,5
477,3.85818,1.197,-1,5
478,3.85938,1.201,-1,5
479,3.86058,1.195,-1,5
480,3.86177,1.193,-1,5
481,3.86297,1.205,-1,5
482,3.86418,1.209,-1,5
483,3.86539,1.202,-1,5
484,3.86659,1.205,-1,5
485,3.86780,1.209,-1,5
486,3.86901,1.211,-1,5
487,3.87022,1.209,-1,5
488,3.87143,1.213,-1,5
489,3.87266,1.225,-1,5
490,3.87388,1.223,-1,5
491,3.87510,1.216,-1,5
492,3.87632,1.220,-1,5
493,3.87755,1.229,-1,5
494,3.87878,1.234,-1,5
495,3.88001,1.229,-1,5
496,3.88125,1.237,-1,5
497,3.88249,1.240,-1,5
498,3.88373,1.240,-1,5
499,3.88496,1.237,-1,5
500,3.88621,1.246,-1,5
501,3.88746,1.254,-1,5
502,3.88872,1.255,-1,5
503,3.88997,1.250,-1,5
504,3.89122,1.256,-1,5
505,3.89248,1.257,-1,5
506,3.89374,1.260,-1,5
507,3.89501,1.269,-1,5
508,3.89629,1.276,-1,5
509,3.89756,1.273,-1,5
510,3.89882,1.265,-1,5
511,3.90010,1.273,-1,5
512,3.90138,1.287,-1,5
513,3.90267,1.285,-1,5
514,3.90396,1.287,-1,5
515,3.90525,1.291,-1,5
516,3.90654,1.294,-1,5
517,3.90784,1.293,-1,5
518,3.90913,1.296,-1,5
519,3.91044,1.306,-1,5
520,3.91175,1.310,-1,5
521,3.91306,1.310,-1,5
522,3.91437,1.311,-1,5
523,3.91568,1.314,-1,5
524,3.91700,1.315,-1,5
525,3.91832,1.319,-1,5
526,3.91965,1.328,-1,5
527,3.92097,1.329,-1,5
528,3.92230,1.326,-1,5
529,3.92363,1.329,-1,5
530,3.92497,1.337,-1,5
531,3.92630,1.339,-1,5
532,3.92764,1.338,-1,5
533,3.92899,1.346,-1,5
534,3.93034,1.350,-1,5
535,3.93168,1.343,-1,5
536,3.93303,1.348,-1,5
537,3.93439,1.358,-1,5
538,3.93575,1.361,-1,5
539,3.93711,1.359,-1,5
540,3.93847,1.363,-1,5
541,3.93983,1.362,-1,5
542,3.94120,1.364,-1,5
543,3.94257,1.375,-1,5
544,3.94395,1.380,-1,5
545,3.94532,1.372,-1,5
546,3.94669,1.367,-1,5
547,3.94807,1.379,-1,5
548,3.94946,1.388,-1,5
549,3.95084,1.386,-1,5
550,3.95223,1.385,-1,5
551,3.95362,1.387,-1,5
552,3.95500,1.387,-1,5
553,3.95640,1.393,-1,5
554,3.95779,1.399,-1,5
555,3.95919,1.395,-1,5
556,3.96059,1.397,-1,5
557,3.96199,1.402,-1,5
558,3.96339,1.404,-1,5
559,3.96479,1.401,-1,5
560,3.96620,1.407,-1,5
561,3.96761,1.414,-1,5
562,3.96903,1.413,-1,5
563,3.97044,1.410,-1,5
564,3.97185,1.413,-1,5
565,3.97326,1.414,-1,5
566,3.97468,1.417,-1,5
567,3.97610,1.420,-1,5
568,3.97752,1.422,-1,5
569,3.97894,1.416,-1,5
570,3.98036,1.428,-1,5
571,3.98179,1.426,-1,5
572,3.98321,1.426,-1,5
573,3.98464,1.426,-1,5
574,3.98606,1.425,-1,5
575,3.98749,1.427,-1,5
576,3.98892,1.431,-1,5
577,3.99036,1.440,-1,5
578,3.99180,1.435,-1,5
579,3.99322,1.426,-1,5
580,3.99465,1.432,-1,5
581,3.99610,1.442,-1,5
582,3.99754,1.442,-1,5
583,3.99898,1.438,-1,5
584,4.00042,1.439,-1,5
585,4.00185,1.438,-1,5
586,4.00329,1.441,-1,5
587,4.00474,1.447,-1,5
588,4.00619,1.444,-1,5
589,4.00763,1.441,-1,5
590,4.01052,1.450,-1,5
591,4.01052,1.445,-1,5
592,4.01197,1.443,-1,5
593,4.01341,1.443,-1,5
594,4.01486,1.450,-1,5
595,4.01631,1.451,-1,5
596,4.01922,1.451,-1,5
597,4.02066,1.447,-1,5
598,4.02211,1.450,-1,5
599,4.02357,1.458,-1,5
600,4.02503,1.456,-1,5
601,4.02648,1.449,-1,5
602,4.02793,1.451,-1,5
603,4.02938,1.455,-1,5
604,4.03084,1.456,-1,5
605,4.03229,1.454,-1,5
606,4.03375,1.452,-1,5
607,4.03519,1.448,-1,5
608,4.03665,1.456,-1,5
609,4.03811,1.462,-1,5
610,4.03957,1.454,-1,5
611,4.04101,1.445,-1,5
612,4.04246,1.452,-1,5
613,4.04392,1.457,-1,5
614,4.04537,1.455,-1,5
615,4.04683,1.455,-1,5
616,4.04828,1.450,-1,5
617,4.04973,1.446,-1,5
618,4.05118,1.452,-1,5
619,4.05263,1.455,-1,5
620,4.05408,1.451,-1,5
621,4.05553,1.448,-1,5
622,4.05698,1.449,-1,5
623,4.05843,1.446,-1,5
624,4.05987,1.446,-1,5
625,4.06132,1.452,-1,5
626,4.06277,1.447,-1,5
627,4.06421,1.439,-1,5
628,4.06565,1.443,-1,5
629,4.06710,1.444,-1,5
630,4.06854,1.440,-1,5
631,4.06998,1.442,-1,5
632,4.07142,1.441,-1,5
633,4.07286,1.436,-1,5
634,4.07429,1.434,-1,5
635,4.07573,1.438,-1,5
636,4.07716,1.435,-1,5
637,4.07860,1.433,-1,5
638,4.08003,1.432,-1,5
639,4.08146,1.428,-1,5
640,4.08288,1.424,-1,5
641,4.08431,1.431,-1,5
642,4.08574,1.429,-1,5
643,4.08716,1.419,-1,5
644,4.08858,1.415,-1,5
645,4.08999,1.417,-1,5
646,4.09141,1.420,-1,5
647,4.09283,1.415,-1,5
648,4.09424,1.416,-1,5
649,4.09565,1.403,-1,5
650,4.09705,1.400,-1,5
651,4.09845,1.406,-1,5
652,4.09986,1.410,-1,5
653,4.10126,1.401,-1,5
654,4.10266,1.394,-1,5
655,4.10405,1.393,-1,5
656,4.10544,1.390,-1,5
657,4.10683,1.390,-1,5
658,4.10822,1.392,-1,5
659,4.10961,1.386,-1,5
660,4.11098,1.375,-1,5
661,4.11236,1.377,-1,5
662,4.11374,1.379,-1,5
663,4.11511,1.371,-1,5
664,4.11648,1.365,-1,5
665,4.11784,1.369,-1,5
666,4.11921,1.363,-1,5
667,4.12056,1.353,-1,5
668,4.12191,1.352,-1,5
669,4.12327,1.355,-1,5
670,4.12462,1.348,-1,5
671,4.12596,1.343,-1,5
672,4.12730,1.341,-1,5
673,4.12863,1.333,-1,5
674,4.12996,1.329,-1,5
675,4.13129,1.331,-1,5
676,4.13262,1.331,-1,5
677,4.13394,1.320,-1,5
678,4.13525,1.311,-1,5
679,4.13657,1.313,-1,5
680,4.13788,1.311,-1,5
681,4.13918,1.303,-1,5
682,4.14048,1.301,-1,5
683,4.14178,1.300,-1,5
684,4.14307,1.291,-1,5
685,4.14435,1.279,-1,5
686,4.14563,1.282,-1,5
687,4.14692,1.285,-1,5
688,4.14819,1.273,-1,5
689,4.14946,1.266,-1,5
690,4.15072,1.264,-1,5
691,4.15198,1.257,-1,5
692,4.15323,1.253,-1,5
693,4.15449,1.253,-1,5
694,4.15574,1.254,-1,5
695,4.15698,1.238,-1,5
696,4.15821,1.232,-1,5
697,4.15944,1.233,-1,5
698,4.16068,1.239,-1,5
699,4.16191,1.225,-1,5
700,4.16312,1.215,-1,5
701,4.16434,1.219,-1,5
702,4.16556,1.218,-1,5
703,4.16677,1.207,-1,5
704,4.16797,1.199,-1,5
705,4.16917,1.203,-1,5
706,4.17037,1.206,-1,5
707,4.17157,1.193,-1,5
708,4.17275,1.184,-1,5
709,4.17394,1.187,-1,5
710,4.17512,1.185,-1,5
711,4.17630,1.177,-1,5
712,4.17747,1.174,-1,5
713,4.17865,1.178,-1,5
714,4.17982,1.173,-1,5
715,4.18098,1.160,-1,5
716,4.18214,1.158,-1,5
717,4.18331,1.163,-1,5
718,4.18447,1.165,-1,5
719,4.18562,1.151,-1,5
720,4.18677,1.148,-1,5
721,4.18792,1.155,-1,5
722,4.18908,1.156,-1,5
723,4.19022,1.141,-1,5
724,4.19136,1.139,-1,5
725,4.19251,1.144,-1,5
726,4.19366,1.150,-1,5
727,4.19479,1.138,-1,5
728,4.19592,1.132,-1,5
729,4.19706,1.139,-1,5
730,4.19821,1.143,-1,5
731,4.19934,1.132,-1,5
732,4.20046,1.126,-1,5
733,4.20160,1.134,-1,5
734,4.20274,1.141,-1,5
735,4.20387,1.132,-1,5
736,4.20499,1.120,-1,5
737,4.20612,1.126,-1,5
738,4.20726,1.140,-1,5
739,4.20839,1.135,-1,5
740,4.20952,1.123,-1,5
741,4.21064,1.125,-1,5
742,4.21178,1.139,-1,5
743,4.21292,1.140,-1,5
744,4.21405,1.126,-1,5
745,4.21517,1.128,-1,5
746,4.21631,1.140,-1,5
747,4.21746,1.148,-1,5
748,4.21860,1.140,-1,5
749,4.21974,1.134,-1,5
750,4.22088,1.145,-1,5
751,4.22204,1.156,-1,5
752,4.22319,1.148,-1,5
753,4.22433,1.145,-1,5
754,4.22549,1.157,-1,5
755,4.22666,1.168,-1,5
756,4.22782,1.164,-1,5
757,4.22898,1.156,-1,5
758,4.23014,1.167,-1,5
759,4.23132,1.180,-1,5
760,4.23250,1.180,-1,5
761,4.23368,1.176,-1,5
762,4.23487,1.187,-1,5
763,4.23606,1.197,-1,5
764,4.23726,1.195,-1,5
765,4.23845,1.194,-1,5
766,4.23966,1.206,-1,5
767,4.24087,1.216,-1,5
768,4.24209,1.219,-1,5
769,4.24331,1.220,-1,5
770,4.24454,1.229,-1,5
771,4.24578,1.238,-1,5
772,4.24702,1.237,-1,5
773,4.24826,1.246,-1,5
774,4.24952,1.257,-1,5
775,4.25078,1.263,-1,5
776,4.25204,1.262,-1,5
777,4.25331,1.269,-1,5
778,4.25460,1.284,-1,5
779,4.25588,1.286,-1,5
780,4.25717,1.288,-1,5
781,4.25847,1.298,-1,5
782,4.25978,1.307,-1,5
783,4.26109,1.310,-1,5
784,4.26240,1.316,-1,5
785,4.26373,1.328,-1,5
786,4.26506,1.334,-1,5
787,4.26640,1.335,-1,5
788,4.26774,1.344,-1,5
789,4.26910,1.354,-1,5
790,4.27045,1.358,-1,5
791,4.27182,1.363,-1,5
792,4.27319,1.376,-1,5
793,4.27457,1.382,-1,5
794,4.27596,1.383,-1,5
795,4.27735,1.389,-1,5
796,4.27875,1.401,-1,5
797,4.28015,1.404,-1,5
798,4.28157,1.413,-1,5
799,4.28299,1.422,-1,5
800,4.28441,1.422,-1,5
801,4.28583,1.421,-1,5
802,4.28726,1.433,-1,5
803,4.28871,1.443,-1,5
804,4.29015,1.448,-1,5
805,4.29161,1.453,-1,5
806,4.29306,1.454,-1,5
807,4.29451,1.452,-1,5
808,4.29598,1.464,-1,5
809,4.29745,1.477,-1,5
810,4.29893,1.478,-1,5
811,4.30041,1.476,-1,5
812,4.30189,1.479,-1,5
813,4.30337,1.483,-1,5
814,4.30487,1.496,-1,5
815,4.30637,1.503,-1,5
816,4.30787,1.500,-1,5
817,4.30936,1.493,-1,5
818,4.31087,1.504,-1,5
819,4.31238,1.517,-1,5
820,4.31390,1.519,-1,5
821,4.31542,1.517,-1,5
822,4.31693,1.513,-1,5
823,4.31845,1.517,-1,5
824,4.31998,1.532,-1,5
825,4.32152,1.540,-1,5
826,4.32305,1.532,-1,5
827,4.32458,1.525,-1,5
828,4.32611,1.534,-1,5
829,4.32765,1.543,-1,5
830,4.32921,1.556,-1,5
831,4.33076,1.555,-1,5
832,4.33230,1.540,-1,5
833,4.33385,1.544,-1,5
834,4.33541,1.558,-1,5
835,4.33698,1.568,-1,5
836,4.33855,1.572,-1,5
837,4.34011,1.556,-1,5
838,4.34167,1.569,-1,5
839,4.34324,1.569,-1,5
840,4.34482,1.585,-1,5
841,4.34641,1.584,-1,5
842,4.34799,1.581,-1,5
843,4.34956,1.578,-1,5
844,4.35115,1.583,-1,5
845,4.35274,1.597,-1,5
846,4.35435,1.606,-1,5
847,4.35595,1.593,-1,5
848,4.35754,1.593,-1,5
849,4.35914,1.605,-1,5
850,4.36076,1.614,-1,5
851,4.36238,1.621,-1,5
852,4.36400,1.617,-1,5
853,4.36561,1.612,-1,5
854,4.36723,1.624,-1,5
855,4.36887,1.641,-1,5
856,4.37051,1.638,-1,5
857,4.37214,1.631,-1,5
858,4.37377,1.631,-1,5
859,4.37542,1.645,-1,5
860,4.37708,1.659,-1,5
861,4.37874,1.659,-1,5
862,4.38039,1.645,-1,5
863,4.38204,1.651,-1,5
864,4.38371,1.671,-1,5
865,4.38540,1.680,-1,5
866,4.38874,1.663,-1,5
867,4.39041,1.672,-1,5
868,4.39211,1.699,-1,5
869,4.39382,1.705,-1,5
870,4.39551,1.696,-1,5
871,4.39720,1.687,-1,5
872,4.39889,1.696,-1,5
873,4.40062,1.722,-1,5
