cnt,pos,speed,Dir,Force,
1,0,1.0014,-1,5
2,0.00100994,1.0031,-1,5
3,0.00201988,1.004,-1,5
4,0.00201988,1.0071,-1,5
5,0.00303984,1.0075,-1,5
6,0.00406003,1.0092,-1,5
7,0.00509,1.0118,-1,5
8,0.00609994,1.014,-1,5
9,0.00711989,1.0152,-1,5
10,0.00814986,1.0165,-1,5
11,0.00917983,1.0191,-1,5
12,0.0102,1.02,-1,5
13,0.01123,1.0212,-1,5
14,0.0122499,1.0229,-1,5
15,0.0132799,1.0233,-1,5
16,0.0143199,1.0263,-1,5
17,0.0153499,1.0259,-1,5
18,0.0163898,1.0289,-1,5
19,0.0174198,1.0298,-1,5
20,0.0184598,1.0315,-1,5
21,0.01951,1.0332,-1,5
22,0.02054,1.0336,-1,5
23,0.02158,1.0358,-1,5
24,0.02263,1.0379,-1,5
25,0.02367,1.0401,-1,5
26,0.02473,1.041,-1,5
27,0.0257599,1.0418,-1,5
28,0.0268099,1.0422,-1,5
29,0.0289099,1.0444,-1,5
30,0.0299499,1.0435,-1,5
31,0.0309999,1.0439,-1,5
32,0.0320499,1.0456,-1,5
33,0.0331099,1.0473,-1,5
34,0.0341599,1.0473,-1,5
35,0.0352199,1.0495,-1,5
36,0.0362699,1.0495,-1,5
37,0.0373399,1.0521,-1,5
38,0.0383799,1.0521,-1,5
39,0.0394599,1.0542,-1,5
40,0.04052,1.0564,-1,5
41,0.04158,1.0577,-1,5
42,0.04265,1.0599,-1,5
43,0.04371,1.0604,-1,5
44,0.0458598,1.0643,-1,5
45,0.0469198,1.0638,-1,5
46,0.0480099,1.0668,-1,5
47,0.0501599,1.0694,-1,5
48,0.0501599,1.0716,-1,5
49,0.05123,1.0712,-1,5
50,0.05231,1.0734,-1,5
51,0.05338,1.0743,-1,5
52,0.0544498,1.0747,-1,5
53,0.0555398,1.0773,-1,5
54,0.0566199,1.076,-1,5
55,0.0577099,1.0795,-1,5
56,0.05879,1.0786,-1,5
57,0.05989,1.0799,-1,5
58,0.0609798,1.0821,-1,5
59,0.0620699,1.0838,-1,5
60,0.06317,1.0863,-1,5
61,0.06425,1.0872,-1,5
62,0.0653498,1.0902,-1,5
63,0.0664299,1.0884,-1,5
64,0.0675299,1.091,-1,5
65,0.06862,1.0901,-1,5
66,0.06972,1.0936,-1,5
67,0.0708199,1.0936,-1,5
68,0.0719199,1.0944,-1,5
69,0.07305,1.0979,-1,5
70,0.0741298,1.0958,-1,5
71,0.0752399,1.0988,-1,5
72,0.0763199,1.0963,-1,5
73,0.0785198,1.0985,-1,5
74,0.0796299,1.0989,-1,5
75,0.0796299,1.0989,-1,5
76,0.08183,1.0997,-1,5
77,0.0829298,1.0989,-1,5
78,0.0840399,1.1002,-1,5
79,0.08513,1.0976,-1,5
80,0.08622,1.098,-1,5
81,0.0873199,1.0971,-1,5
82,0.0884099,1.0984,-1,5
83,0.08952,1.0997,-1,5
84,0.0906298,1.0997,-1,5
85,0.0917399,1.1023,-1,5
86,0.09284,1.101,-1,5
87,0.0950499,1.1018,-1,5
88,0.0961499,1.1009,-1,5
89,0.09724,1.1,-1,5
90,0.09835,1.1026,-1,5
91,0.0994401,1.1009,-1,5
92,0.10054,1.1017,-1,5
93,0.10165,1.1017,-1,5
94,0.10274,1.1009,-1,5
95,0.10384,1.0996,-1,5
96,0.10494,1.0992,-1,5
97,0.10603,1.0984,-1,5
98,0.10713,1.0976,-1,5
99,0.10822,1.0985,-1,5
100,0.10934,1.0985,-1,5
101,0.11043,1.0989,-1,5
102,0.11154,1.1002,-1,5
103,0.11262,1.0976,-1,5
104,0.11373,1.0989,-1,5
105,0.11482,1.0976,-1,5
106,0.11592,1.098,-1,5
107,0.11701,1.0975,-1,5
108,0.11811,1.0983,-1,5
109,0.11922,1.0996,-1,5
110,0.12032,1.0983,-1,5
111,0.12143,1.1005,-1,5
112,0.12252,1.0984,-1,5
113,0.12363,1.101,-1,5
114,0.12473,1.1005,-1,5
115,0.12584,1.1022,-1,5
116,0.12804,1.1014,-1,5
117,0.12914,1.1031,-1,5
118,0.13024,1.1027,-1,5
119,0.13136,1.104,-1,5
120,0.13246,1.1036,-1,5
121,0.13358,1.1049,-1,5
122,0.13469,1.107,-1,5
123,0.1358,1.1065,-1,5
124,0.13692,1.1083,-1,5
125,0.13802,1.1079,-1,5
126,0.13915,1.1109,-1,5
127,0.14025,1.1114,-1,5
128,0.14135,1.1114,-1,5
129,0.14358,1.1122,-1,5
130,0.14468,1.1135,-1,5
131,0.14579,1.1122,-1,5
132,0.14691,1.1126,-1,5
133,0.14802,1.1131,-1,5
134,0.14914,1.1131,-1,5
135,0.15025,1.1144,-1,5
136,0.15136,1.1131,-1,5
137,0.15246,1.1122,-1,5
138,0.15359,1.1148,-1,5
139,0.15469,1.1118,-1,5
140,0.15578,1.1105,-1,5
141,0.15691,1.1126,-1,5
142,0.15801,1.1109,-1,5
143,0.15914,1.113,-1,5
144,0.16026,1.1125,-1,5
145,0.16137,1.1121,-1,5
146,0.16249,1.113,-1,5
147,0.16359,1.1134,-1,5
148,0.16472,1.1134,-1,5
149,0.16582,1.113,-1,5
150,0.16693,1.1143,-1,5
151,0.16803,1.1122,-1,5
152,0.16912,1.1109,-1,5
153,0.17026,1.1114,-1,5
154,0.17136,1.1097,-1,5
155,0.17246,1.1088,-1,5
156,0.17356,1.1075,-1,5
157,0.17467,1.108,-1,5
158,0.17577,1.1067,-1,5
159,0.17799,1.1071,-1,5
160,0.1791,1.1079,-1,5
161,0.1802,1.1066,-1,5
162,0.18131,1.1083,-1,5
163,0.18243,1.1074,-1,5
164,0.18352,1.1061,-1,5
165,0.18463,1.1074,-1,5
166,0.18572,1.1052,-1,5
167,0.18683,1.1052,-1,5
168,0.18791,1.1022,-1,5
169,0.18902,1.1031,-1,5
170,0.19013,1.1027,-1,5
171,0.19123,1.1027,-1,5
172,0.19234,1.1036,-1,5
173,0.19455,1.1023,-1,5
174,0.19564,1.1028,-1,5
175,0.19675,1.1032,-1,5
176,0.19786,1.1054,-1,5
177,0.19895,1.1037,-1,5
178,0.20006,1.1058,-1,5
179,0.20114,1.1062,-1,5
180,0.20225,1.1062,-1,5
181,0.20336,1.107,-1,5
182,0.20446,1.1061,-1,5
183,0.20557,1.1061,-1,5
184,0.20667,1.1078,-1,5
185,0.20778,1.1053,-1,5
186,0.20999,1.1061,-1,5
187,0.20999,1.1073,-1,5
188,0.2111,1.1073,-1,5
189,0.2122,1.1064,-1,5
190,0.21332,1.1068,-1,5
191,0.21442,1.1064,-1,5
192,0.21552,1.1056,-1,5
193,0.21662,1.1039,-1,5
194,0.21773,1.1022,-1,5
195,0.21882,1.1039,-1,5
196,0.21993,1.1031,-1,5
197,0.22101,1.101,-1,5
198,0.22213,1.1019,-1,5
199,0.22321,1.1002,-1,5
200,0.22431,1.0977,-1,5
201,0.22652,1.0973,-1,5
202,0.22761,1.0964,-1,5
203,0.22872,1.0977,-1,5
204,0.22982,1.0985,-1,5
205,0.2309,1.0963,-1,5
206,0.23201,1.0963,-1,5
207,0.23309,1.0997,-1,5
208,0.23529,1.0967,-1,5
209,0.23638,1.0976,-1,5
210,0.23748,1.0984,-1,5
211,0.23856,1.0967,-1,5
212,0.23966,1.0984,-1,5
213,0.24074,1.0949,-1,5
214,0.24182,1.0932,-1,5
215,0.2429,1.0919,-1,5
216,0.24399,1.0902,-1,5
217,0.24614,1.0872,-1,5
218,0.24721,1.0855,-1,5
219,0.2483,1.0855,-1,5
220,0.24937,1.0825,-1,5
221,0.25045,1.0829,-1,5
222,0.25152,1.0786,-1,5
223,0.2526,1.0791,-1,5
224,0.25365,1.0761,-1,5
225,0.25473,1.0766,-1,5
226,0.2558,1.0748,-1,5
227,0.25687,1.0731,-1,5
228,0.25795,1.0744,-1,5
229,0.25901,1.0714,-1,5
230,0.26009,1.0723,-1,5
231,0.26114,1.0684,-1,5
232,0.26221,1.0697,-1,5
233,0.26326,1.0671,-1,5
234,0.26433,1.0688,-1,5
235,0.26538,1.0657,-1,5
236,0.26644,1.064,-1,5
237,0.26749,1.0623,-1,5
238,0.26854,1.0597,-1,5
239,0.2696,1.0584,-1,5
240,0.27064,1.0575,-1,5
241,0.27275,1.0566,-1,5
242,0.27381,1.0553,-1,5
243,0.27485,1.054,-1,5
244,0.27592,1.054,-1,5
245,0.27694,1.0519,-1,5
246,0.27801,1.0523,-1,5
247,0.27904,1.0505,-1,5
248,0.28009,1.0505,-1,5
249,0.28113,1.0492,-1,5
250,0.28217,1.0453,-1,5
251,0.28321,1.0466,-1,5
252,0.28426,1.0449,-1,5
253,0.28531,1.0436,-1,5
254,0.28738,1.0414,-1,5
255,0.28841,1.0414,-1,5
256,0.28944,1.0388,-1,5
257,0.29047,1.0384,-1,5
258,0.2915,1.0358,-1,5
259,0.29255,1.0366,-1,5
260,0.29357,1.0353,-1,5
261,0.29459,1.0332,-1,5
262,0.29562,1.0315,-1,5
263,0.29666,1.0323,-1,5
264,0.29768,1.0297,-1,5
265,0.2987,1.0292,-1,5
266,0.29973,1.0288,-1,5
267,0.30076,1.0279,-1,5
268,0.3018,1.0292,-1,5
269,0.30281,1.0258,-1,5
270,0.30383,1.0258,-1,5
271,0.30485,1.0253,-1,5
272,0.30584,1.0218,-1,5
273,0.30687,1.0214,-1,5
274,0.30788,1.0202,-1,5
275,0.30888,1.0181,-1,5
276,0.3099,1.0168,-1,5
277,0.31091,1.0151,-1,5
278,0.31191,1.0112,-1,5
279,0.3129,1.009,-1,5
280,0.31491,1.0064,-1,5
281,0.31591,1.0039,-1,5
282,0.31591,1.0052,-1,5
283,0.31791,1.0018,-1,5
284,0.31891,1.0005,-1,5
285,0.3199,1.0001,-1,5
286,0.32089,0.9971,-1,5
287,0.32189,0.9967,-1,5
288,0.32289,0.9967,-1,5
289,0.32389,0.9972,-1,5
290,0.32489,0.9981,-1,5
291,0.32588,0.9972,-1,5
292,0.32688,0.9972,-1,5
293,0.32788,0.9967,-1,5
294,0.32887,0.9967,-1,5
295,0.32987,0.9971,-1,5
296,0.33185,0.9967,-1,5
297,0.33285,0.9967,-1,5
298,0.33385,0.9963,-1,5
299,0.33483,0.995,-1,5
300,0.33581,0.9924,-1,5
301,0.3368,0.9928,-1,5
302,0.33779,0.9911,-1,5
303,0.33878,0.9911,-1,5
304,0.33978,0.9915,-1,5
305,0.34078,0.9906,-1,5
306,0.34177,0.9914,-1,5
307,0.34275,0.9892,-1,5
308,0.34375,0.9896,-1,5
309,0.34473,0.9896,-1,5
310,0.34573,0.9922,-1,5
311,0.34671,0.9905,-1,5
312,0.3477,0.9914,-1,5
313,0.34867,0.9888,-1,5
314,0.34967,0.9884,-1,5
315,0.35065,0.9871,-1,5
316,0.35164,0.9876,-1,5
317,0.35261,0.9868,-1,5
318,0.35361,0.9868,-1,5
319,0.35459,0.9855,-1,5
320,0.35558,0.9851,-1,5
321,0.35753,0.9851,-1,5
322,0.35852,0.9842,-1,5
323,0.35949,0.9851,-1,5
324,0.36048,0.9846,-1,5
325,0.36144,0.9825,-1,5
326,0.36242,0.9807,-1,5
327,0.3634,0.9811,-1,5
328,0.36438,0.9794,-1,5
329,0.36535,0.9789,-1,5
330,0.36632,0.9763,-1,5
331,0.36731,0.978,-1,5
332,0.36924,0.9767,-1,5
333,0.37021,0.9758,-1,5
334,0.37117,0.9728,-1,5
335,0.37215,0.9749,-1,5
336,0.37312,0.9745,-1,5
337,0.3741,0.9749,-1,5
338,0.37507,0.9731,-1,5
339,0.37605,0.9744,-1,5
340,0.37702,0.9748,-1,5
341,0.378,0.9727,-1,5
342,0.37896,0.9714,-1,5
343,0.37991,0.9706,-1,5
344,0.38089,0.9723,-1,5
345,0.38185,0.9702,-1,5
346,0.38282,0.9693,-1,5
347,0.3838,0.9698,-1,5
348,0.38476,0.969,-1,5
349,0.38573,0.9686,-1,5
350,0.38669,0.9669,-1,5
351,0.38767,0.9677,-1,5
352,0.38864,0.9681,-1,5
353,0.3896,0.9681,-1,5
354,0.39056,0.9664,-1,5
355,0.39153,0.9677,-1,5
356,0.39251,0.969,-1,5
357,0.39347,0.9668,-1,5
358,0.39445,0.9689,-1,5
359,0.39541,0.9672,-1,5
360,0.39639,0.9693,-1,5
361,0.39735,0.9676,-1,5
362,0.39833,0.9689,-1,5
363,0.39929,0.9693,-1,5
364,0.40027,0.9715,-1,5
365,0.40124,0.971,-1,5
366,0.40223,0.9719,-1,5
367,0.40417,0.9736,-1,5
368,0.40513,0.9719,-1,5
369,0.40612,0.9749,-1,5
370,0.40708,0.9732,-1,5
371,0.40807,0.9754,-1,5
372,0.40901,0.9724,-1,5
373,0.40999,0.9741,-1,5
374,0.41095,0.9715,-1,5
375,0.41192,0.9715,-1,5
376,0.41288,0.9689,-1,5
377,0.41386,0.9694,-1,5
378,0.41482,0.9707,-1,5
379,0.41676,0.9685,-1,5
380,0.41773,0.9689,-1,5
381,0.41869,0.9667,-1,5
382,0.41967,0.9693,-1,5
383,0.42062,0.9667,-1,5
384,0.4216,0.9693,-1,5
385,0.42257,0.9693,-1,5
386,0.42353,0.9663,-1,5
387,0.42544,0.9654,-1,5
388,0.42544,0.962,-1,5
389,0.42638,0.9595,-1,5
390,0.42734,0.9591,-1,5
391,0.4283,0.9591,-1,5
392,0.42925,0.9565,-1,5
393,0.43022,0.9578,-1,5
394,0.43117,0.9543,-1,5
395,0.43214,0.9548,-1,5
396,0.43308,0.9561,-1,5
397,0.43404,0.9539,-1,5
398,0.43499,0.9551,-1,5
399,0.43594,0.9563,-1,5
400,0.43689,0.955,-1,5
401,0.43783,0.9529,-1,5
402,0.43881,0.9551,-1,5
403,0.43975,0.953,-1,5
404,0.44069,0.9517,-1,5
405,0.44166,0.9517,-1,5
406,0.44261,0.953,-1,5
407,0.44356,0.9543,-1,5
408,0.44547,0.9539,-1,5
409,0.44642,0.9539,-1,5
410,0.44738,0.9548,-1,5
411,0.44832,0.9543,-1,5
412,0.44925,0.9508,-1,5
413,0.45022,0.9529,-1,5
414,0.45115,0.9525,-1,5
415,0.45212,0.952,-1,5
416,0.45307,0.9511,-1,5
417,0.45401,0.9486,-1,5
418,0.45496,0.9486,-1,5
419,0.45591,0.9486,-1,5
420,0.45687,0.9486,-1,5
421,0.45781,0.9495,-1,5
422,0.45971,0.95,-1,5
423,0.46066,0.9487,-1,5
424,0.46163,0.9521,-1,5
425,0.46256,0.9491,-1,5
426,0.46353,0.9508,-1,5
427,0.46449,0.9525,-1,5
428,0.46546,0.9547,-1,5
429,0.46641,0.9543,-1,5
430,0.46738,0.956,-1,5
431,0.46832,0.9556,-1,5
432,0.46929,0.9581,-1,5
433,0.47023,0.9564,-1,5
434,0.4712,0.9569,-1,5
435,0.47215,0.9591,-1,5
436,0.47313,0.9604,-1,5
437,0.47409,0.9604,-1,5
438,0.47507,0.9608,-1,5
439,0.47602,0.9617,-1,5
440,0.477,0.9621,-1,5
441,0.47797,0.9642,-1,5
442,0.47894,0.9651,-1,5
443,0.47991,0.9681,-1,5
444,0.4809,0.9698,-1,5
445,0.48186,0.9702,-1,5
446,0.48283,0.9698,-1,5
447,0.48379,0.9698,-1,5
448,0.48477,0.9698,-1,5
449,0.48574,0.9711,-1,5
450,0.48673,0.9729,-1,5
451,0.4877,0.9729,-1,5
452,0.4887,0.9755,-1,5
453,0.48967,0.9786,-1,5
454,0.49067,0.9773,-1,5
455,0.49265,0.9816,-1,5
456,0.49363,0.982,-1,5
457,0.49462,0.9859,-1,5
458,0.49562,0.9876,-1,5
459,0.4966,0.9893,-1,5
460,0.4976,0.9888,-1,5
461,0.4986,0.9927,-1,5
462,0.49958,0.9905,-1,5
463,0.50059,0.9922,-1,5
464,0.50158,0.9935,-1,5
465,0.50258,0.9927,-1,5
466,0.50458,0.9958,-1,5
467,0.50557,0.9953,-1,5
468,0.50658,0.9971,-1,5
469,0.50759,0.9988,-1,5
470,0.50859,1.0001,-1,5
471,0.50962,0.9992,-1,5
472,0.51061,1.0005,-1,5
473,0.51164,1.0018,-1,5
474,0.51264,1.0035,-1,5
475,0.51365,1.0073,-1,5
476,0.51469,1.0073,-1,5
477,0.51673,1.0116,-1,5
478,0.51673,1.0128,-1,5
479,0.51775,1.0145,-1,5
480,0.51876,1.015,-1,5
481,0.51981,1.0202,-1,5
482,0.52082,1.0241,-1,5
483,0.52288,1.0241,-1,5
484,0.52288,1.0271,-1,5
485,0.52495,1.0267,-1,5
486,0.52495,1.0284,-1,5
487,0.52598,1.0276,-1,5
488,0.52702,1.0298,-1,5
489,0.52804,1.0294,-1,5
490,0.52909,1.0332,-1,5
491,0.53012,1.0319,-1,5
492,0.5322,1.0319,-1,5
493,0.53325,1.0345,-1,5
494,0.53429,1.035,-1,5
495,0.53535,1.0376,-1,5
496,0.5364,1.0393,-1,5
497,0.53746,1.0427,-1,5
498,0.5385,1.0427,-1,5
499,0.54063,1.047,-1,5
500,0.54169,1.0488,-1,5
501,0.54277,1.0531,-1,5
502,0.54383,1.0566,-1,5
503,0.54491,1.0592,-1,5
504,0.54597,1.0613,-1,5
505,0.54705,1.063,-1,5
506,0.54811,1.0652,-1,5
507,0.55025,1.0652,-1,5
508,0.55134,1.0691,-1,5
509,0.55242,1.0713,-1,5
510,0.5535,1.0726,-1,5
511,0.55459,1.0744,-1,5
512,0.55566,1.0752,-1,5
513,0.55677,1.0777,-1,5
514,0.55785,1.0803,-1,5
515,0.55896,1.0833,-1,5
516,0.56005,1.0863,-1,5
517,0.56115,1.0894,-1,5
518,0.56225,1.0915,-1,5
519,0.56334,1.0919,-1,5
520,0.56444,1.0944,-1,5
521,0.56553,1.0944,-1,5
522,0.56665,1.0983,-1,5
523,0.56774,1.0971,-1,5
524,0.56885,1.0993,-1,5
525,0.56995,1.0993,-1,5
526,0.57106,1.1006,-1,5
527,0.57216,1.1014,-1,5
528,0.57327,1.1023,-1,5
529,0.57437,1.1036,-1,5
530,0.57549,1.1049,-1,5
531,0.57658,1.1049,-1,5
532,0.5777,1.1049,-1,5
533,0.57879,1.1053,-1,5
534,0.57991,1.1061,-1,5
535,0.58102,1.1066,-1,5
536,0.58213,1.107,-1,5
537,0.58323,1.1083,-1,5
538,0.58434,1.1083,-1,5
539,0.58656,1.1087,-1,5
540,0.58768,1.1092,-1,5
541,0.58878,1.11,-1,5
542,0.58991,1.1113,-1,5
543,0.59101,1.1121,-1,5
544,0.59212,1.1108,-1,5
545,0.59323,1.1112,-1,5
546,0.59435,1.1116,-1,5
547,0.59545,1.1107,-1,5
548,0.59655,1.109,-1,5
549,0.59767,1.1108,-1,5
550,0.59878,1.109,-1,5
551,0.5999,1.1116,-1,5
552,0.60212,1.109,-1,5
553,0.60324,1.1108,-1,5
554,0.60435,1.1108,-1,5
555,0.60547,1.1117,-1,5
556,0.60658,1.1113,-1,5
557,0.6077,1.1131,-1,5
558,0.60881,1.1139,-1,5
559,0.60993,1.1139,-1,5
560,0.61105,1.1157,-1,5
561,0.61217,1.1153,-1,5
562,0.61332,1.1162,-1,5
563,0.61442,1.1149,-1,5
564,0.61555,1.1175,-1,5
565,0.61667,1.117,-1,5
566,0.61779,1.1179,-1,5
567,0.61892,1.1179,-1,5
568,0.62003,1.1192,-1,5
569,0.62117,1.1205,-1,5
570,0.62228,1.1196,-1,5
571,0.62342,1.1217,-1,5
572,0.62456,1.1243,-1,5
573,0.62568,1.1256,-1,5
574,0.62682,1.1269,-1,5
575,0.62794,1.1265,-1,5
576,0.62908,1.1291,-1,5
577,0.63021,1.1291,-1,5
578,0.63135,1.1317,-1,5
579,0.63248,1.1312,-1,5
580,0.63475,1.1347,-1,5
581,0.63588,1.133,-1,5
582,0.63703,1.1343,-1,5
583,0.63815,1.1369,-1,5
584,0.64043,1.1356,-1,5
585,0.64157,1.1378,-1,5
586,0.64271,1.1378,-1,5
587,0.64383,1.1373,-1,5
588,0.64498,1.1378,-1,5
589,0.64609,1.1361,-1,5
590,0.64723,1.1356,-1,5
591,0.64835,1.1343,-1,5
592,0.65061,1.1317,-1,5
593,0.65174,1.1295,-1,5
594,0.65285,1.1278,-1,5
595,0.65397,1.1265,-1,5
596,0.6551,1.1243,-1,5
597,0.65623,1.1261,-1,5
598,0.65736,1.1243,-1,5
599,0.65849,1.1252,-1,5
600,0.65961,1.1231,-1,5
601,0.66073,1.1244,-1,5
602,0.66185,1.1239,-1,5
603,0.66297,1.123,-1,5
604,0.66408,1.1226,-1,5
605,0.66516,1.1191,-1,5
606,0.6663,1.1204,-1,5
607,0.6674,1.1165,-1,5
608,0.66851,1.1148,-1,5
609,0.66961,1.1122,-1,5
610,0.67072,1.1109,-1,5
611,0.67181,1.1075,-1,5
612,0.67291,1.1062,-1,5
613,0.674,1.1032,-1,5
614,0.67511,1.1036,-1,5
615,0.67621,1.1041,-1,5
616,0.67731,1.1002,-1,5
617,0.67838,1.098,-1,5
618,0.67948,1.0967,-1,5
619,0.68056,1.0954,-1,5
620,0.68165,1.0937,-1,5
621,0.68274,1.0937,-1,5
622,0.68383,1.0937,-1,5
623,0.68494,1.0916,-1,5
624,0.68709,1.0886,-1,5
625,0.68816,1.0864,-1,5
626,0.68925,1.086,-1,5
627,0.69031,1.0847,-1,5
628,0.69139,1.0821,-1,5
629,0.69247,1.0821,-1,5
630,0.69354,1.0795,-1,5
631,0.69461,1.0773,-1,5
632,0.69567,1.073,-1,5
633,0.69674,1.0738,-1,5
634,0.69779,1.0708,-1,5
635,0.69888,1.0721,-1,5
636,0.70101,1.0704,-1,5
637,0.70207,1.07,-1,5
638,0.70314,1.0696,-1,5
639,0.7042,1.0674,-1,5
640,0.70527,1.0678,-1,5
641,0.70633,1.0669,-1,5
642,0.70736,1.0639,-1,5
643,0.70842,1.0631,-1,5
644,0.70947,1.0652,-1,5
645,0.71054,1.0613,-1,5
646,0.71159,1.06,-1,5
647,0.7137,1.0587,-1,5
648,0.7137,1.0591,-1,5
649,0.71477,1.0604,-1,5
650,0.71581,1.0574,-1,5
651,0.71687,1.0574,-1,5
652,0.71791,1.06,-1,5
653,0.71897,1.0591,-1,5
654,0.72003,1.0561,-1,5
655,0.72214,1.0587,-1,5
656,0.72214,1.0565,-1,5
657,0.72318,1.0565,-1,5
658,0.72425,1.0557,-1,5
659,0.72531,1.0544,-1,5
660,0.72637,1.0565,-1,5
661,0.72744,1.057,-1,5
662,0.72849,1.0561,-1,5
663,0.72955,1.0565,-1,5
664,0.73061,1.0582,-1,5
665,0.73273,1.0586,-1,5
666,0.73376,1.0577,-1,5
667,0.73483,1.0599,-1,5
668,0.73589,1.0594,-1,5
669,0.73694,1.0581,-1,5
670,0.738,1.0573,-1,5
671,0.74013,1.0577,-1,5
672,0.74117,1.0577,-1,5
673,0.74224,1.0582,-1,5
674,0.74329,1.0574,-1,5
675,0.74436,1.0566,-1,5
676,0.74541,1.0584,-1,5
677,0.74648,1.0588,-1,5
678,0.74754,1.0588,-1,5
679,0.74862,1.0614,-1,5
680,0.74968,1.0622,-1,5
681,0.75073,1.0609,-1,5
682,0.7518,1.0631,-1,5
683,0.75284,1.0631,-1,5
684,0.75496,1.0631,-1,5
685,0.75604,1.0644,-1,5
686,0.75709,1.0644,-1,5
687,0.75817,1.0648,-1,5
688,0.75922,1.0635,-1,5
689,0.76029,1.0635,-1,5
690,0.76135,1.0635,-1,5
691,0.76241,1.0639,-1,5
692,0.76349,1.0643,-1,5
693,0.76454,1.0625,-1,5
694,0.7656,1.0633,-1,5
695,0.76664,1.0594,-1,5
696,0.7677,1.0607,-1,5
697,0.76876,1.0586,-1,5
698,0.76982,1.0599,-1,5
699,0.77087,1.0578,-1,5
700,0.77194,1.0583,-1,5
701,0.773,1.0588,-1,5
702,0.77405,1.0562,-1,5
703,0.77512,1.0584,-1,5
704,0.77617,1.0576,-1,5
705,0.77723,1.0597,-1,5
706,0.77828,1.0579,-1,5
707,0.77935,1.0596,-1,5
708,0.78039,1.0575,-1,5
709,0.78144,1.0575,-1,5
710,0.78248,1.0544,-1,5
711,0.78355,1.0552,-1,5
712,0.78459,1.0544,-1,5
713,0.78565,1.0531,-1,5
714,0.78776,1.0552,-1,5
715,0.78879,1.0522,-1,5
716,0.78983,1.0514,-1,5
717,0.79089,1.0505,-1,5
718,0.79193,1.0509,-1,5
719,0.79298,1.05,-1,5
720,0.79403,1.0518,-1,5
721,0.79508,1.0492,-1,5
722,0.79611,1.0487,-1,5
723,0.79717,1.0483,-1,5
724,0.7982,1.0444,-1,5
725,0.79926,1.0448,-1,5
726,0.80133,1.0439,-1,5
727,0.80239,1.0435,-1,5
728,0.80342,1.0426,-1,5
729,0.80446,1.0422,-1,5
730,0.80549,1.04,-1,5
731,0.80653,1.0392,-1,5
732,0.80756,1.0375,-1,5
733,0.80858,1.0349,-1,5
734,0.81064,1.0349,-1,5
735,0.81064,1.0341,-1,5
736,0.81167,1.0337,-1,5
737,0.8127,1.0311,-1,5
738,0.81374,1.0316,-1,5
739,0.81476,1.0294,-1,5
740,0.81579,1.029,-1,5
741,0.8168,1.0268,-1,5
742,0.81784,1.0285,-1,5
743,0.81885,1.0268,-1,5
744,0.81987,1.0251,-1,5
745,0.82088,1.0238,-1,5
746,0.82191,1.0238,-1,5
747,0.82292,1.0221,-1,5
748,0.82397,1.0225,-1,5
749,0.82497,1.0208,-1,5
750,0.826,1.0212,-1,5
751,0.827,1.0199,-1,5
752,0.82803,1.0186,-1,5
753,0.82903,1.0177,-1,5
754,0.83006,1.019,-1,5
755,0.83106,1.0177,-1,5
756,0.83206,1.0151,-1,5
757,0.83307,1.0151,-1,5
758,0.83408,1.0117,-1,5
759,0.83508,1.0117,-1,5
760,0.83608,1.0083,-1,5
761,0.8381,1.0075,-1,5
762,0.83912,1.0075,-1,5
763,0.84012,1.0075,-1,5
764,0.84114,1.0066,-1,5
765,0.84213,1.0057,-1,5
766,0.84315,1.0074,-1,5
767,0.84415,1.0057,-1,5
768,0.84516,1.0061,-1,5
769,0.84615,1.0052,-1,5
770,0.84716,1.0065,-1,5
771,0.84816,1.0065,-1,5
772,0.84918,1.0061,-1,5
773,0.85018,1.0061,-1,5
774,0.85119,1.0031,-1,5
775,0.85319,1.0049,-1,5
776,0.85419,1.0028,-1,5
777,0.85518,1.0028,-1,5
778,0.85619,1.0015,-1,5
779,0.85719,1.0033,-1,5
780,0.85819,1.0015,-1,5
781,0.85917,0.9997,-1,5
782,0.86018,0.9989,-1,5
783,0.86116,0.9972,-1,5
784,0.86216,0.9981,-1,5
785,0.86314,0.9955,-1,5
786,0.86413,0.9942,-1,5
787,0.86513,0.995,-1,5
788,0.86611,0.9928,-1,5
789,0.86712,0.9928,-1,5
790,0.86811,0.9924,-1,5
791,0.86909,0.9929,-1,5
792,0.87009,0.9916,-1,5
793,0.87106,0.9903,-1,5
794,0.87204,0.9881,-1,5
795,0.87303,0.9889,-1,5
796,0.87402,0.9889,-1,5
797,0.875,0.9863,-1,5
798,0.87598,0.9872,-1,5
799,0.87696,0.9841,-1,5
800,0.87794,0.9832,-1,5
801,0.87893,0.9836,-1,5
802,0.87991,0.9818,-1,5
803,0.88087,0.9805,-1,5
804,0.88186,0.9814,-1,5
805,0.88283,0.9797,-1,5
806,0.88382,0.9801,-1,5
807,0.88478,0.978,-1,5
808,0.88672,0.9754,-1,5
809,0.88771,0.9759,-1,5
810,0.88868,0.9755,-1,5
811,0.88966,0.9746,-1,5
812,0.89064,0.9742,-1,5
813,0.8916,0.975,-1,5
814,0.89259,0.9746,-1,5
815,0.89356,0.9746,-1,5
816,0.89453,0.9724,-1,5
817,0.89552,0.9754,-1,5
818,0.89648,0.9758,-1,5
819,0.89745,0.9753,-1,5
820,0.8994,0.9749,-1,5
821,0.90036,0.9728,-1,5
822,0.90131,0.9702,-1,5
823,0.90228,0.9702,-1,5
824,0.90324,0.968,-1,5
825,0.90421,0.9676,-1,5
826,0.90615,0.9676,-1,5
827,0.90615,0.965,-1,5
828,0.90807,0.9646,-1,5
829,0.90903,0.9629,-1,5
830,0.90903,0.9629,-1,5
831,0.91,0.9642,-1,5
832,0.91096,0.9655,-1,5
833,0.91193,0.9651,-1,5
834,0.91288,0.9642,-1,5
835,0.91384,0.9629,-1,5
836,0.91478,0.9608,-1,5
837,0.91576,0.9625,-1,5
