cnt,pos,speed,Dir,Force,
1,16.26156,-1.003,1,5
2,16.26055,-1.011,1,5
3,16.25955,-1.002,1,5
4,16.25856,-0.992,1,5
5,16.25755,-1.007,1,5
6,16.25652,-1.028,1,5
7,16.25549,-1.029,1,5
8,16.25447,-1.017,1,5
9,16.25346,-1.014,1,5
10,16.25243,-1.028,1,5
11,16.25139,-1.046,1,5
12,16.25034,-1.044,1,5
13,16.24931,-1.030,1,5
14,16.24828,-1.032,1,5
15,16.24722,-1.055,1,5
16,16.24615,-1.069,1,5
17,16.24510,-1.060,1,5
18,16.24405,-1.042,1,5
19,16.24300,-1.052,1,5
20,16.24192,-1.078,1,5
21,16.24084,-1.087,1,5
22,16.23977,-1.069,1,5
23,16.23871,-1.059,1,5
24,16.23763,-1.080,1,5
25,16.23653,-1.101,1,5
26,16.23543,-1.096,1,5
27,16.23436,-1.074,1,5
28,16.23328,-1.076,1,5
29,16.23218,-1.103,1,5
30,16.23106,-1.120,1,5
31,16.22995,-1.107,1,5
32,16.22886,-1.090,1,5
33,16.22776,-1.098,1,5
34,16.22664,-1.120,1,5
35,16.22552,-1.125,1,5
36,16.22440,-1.115,1,5
37,16.22329,-1.110,1,5
38,16.22217,-1.125,1,5
39,16.22103,-1.137,1,5
40,16.21990,-1.134,1,5
41,16.21877,-1.124,1,5
42,16.21765,-1.128,1,5
43,16.21651,-1.141,1,5
44,16.21535,-1.149,1,5
45,16.21421,-1.146,1,5
46,16.21306,-1.145,1,5
47,16.21192,-1.144,1,5
48,16.21077,-1.147,1,5
49,16.20962,-1.153,1,5
50,16.20846,-1.162,1,5
51,16.20730,-1.162,1,5
52,16.20614,-1.157,1,5
53,16.20498,-1.158,1,5
54,16.20382,-1.166,1,5
55,16.20264,-1.173,1,5
56,16.20148,-1.166,1,5
57,16.20031,-1.165,1,5
58,16.19914,-1.173,1,5
59,16.19796,-1.182,1,5
60,16.19678,-1.178,1,5
61,16.19560,-1.173,1,5
62,16.19443,-1.177,1,5
63,16.19324,-1.185,1,5
64,16.19205,-1.187,1,5
65,16.19087,-1.189,1,5
66,16.18968,-1.190,1,5
67,16.18849,-1.188,1,5
68,16.18730,-1.188,1,5
69,16.18611,-1.191,1,5
70,16.18491,-1.199,1,5
71,16.18371,-1.202,1,5
72,16.18251,-1.198,1,5
73,16.18132,-1.194,1,5
74,16.18012,-1.198,1,5
75,16.17891,-1.204,1,5
76,16.17771,-1.201,1,5
77,16.17651,-1.203,1,5
78,16.17530,-1.209,1,5
79,16.17409,-1.210,1,5
80,16.17288,-1.206,1,5
81,16.17168,-1.200,1,5
82,16.17048,-1.206,1,5
83,16.16926,-1.214,1,5
84,16.16805,-1.213,1,5
85,16.16683,-1.215,1,5
86,16.16562,-1.214,1,5
87,16.16441,-1.210,1,5
88,16.16320,-1.208,1,5
89,16.16199,-1.215,1,5
90,16.16076,-1.223,1,5
91,16.15954,-1.224,1,5
92,16.15833,-1.216,1,5
93,16.15711,-1.214,1,5
94,16.15590,-1.216,1,5
95,16.15467,-1.221,1,5
96,16.15345,-1.220,1,5
97,16.15223,-1.224,1,5
98,16.15100,-1.227,1,5
99,16.14978,-1.219,1,5
100,16.14857,-1.217,1,5
101,16.14734,-1.220,1,5
102,16.14612,-1.227,1,5
103,16.14489,-1.228,1,5
104,16.14366,-1.226,1,5
105,16.14244,-1.227,1,5
106,16.14121,-1.224,1,5
107,16.13999,-1.221,1,5
108,16.13877,-1.223,1,5
109,16.13753,-1.236,1,5
110,16.13630,-1.238,1,5
111,16.13507,-1.230,1,5
112,16.13384,-1.223,1,5
113,16.13262,-1.227,1,5
114,16.13138,-1.235,1,5
115,16.13014,-1.238,1,5
116,16.12891,-1.239,1,5
117,16.12767,-1.237,1,5
118,16.12643,-1.235,1,5
119,16.12520,-1.231,1,5
120,16.12396,-1.239,1,5
121,16.12272,-1.243,1,5
122,16.12148,-1.243,1,5
123,16.12024,-1.237,1,5
124,16.11900,-1.244,1,5
125,16.11775,-1.245,1,5
126,16.11651,-1.243,1,5
127,16.11527,-1.239,1,5
128,16.11402,-1.249,1,5
129,16.11277,-1.253,1,5
130,16.11152,-1.252,1,5
131,16.11027,-1.246,1,5
132,16.10902,-1.250,1,5
133,16.10777,-1.251,1,5
134,16.10651,-1.255,1,5
135,16.10525,-1.260,1,5
136,16.10399,-1.263,1,5
137,16.10273,-1.257,1,5
138,16.10148,-1.252,1,5
139,16.10022,-1.263,1,5
140,16.09895,-1.271,1,5
141,16.09768,-1.270,1,5
142,16.09641,-1.268,1,5
143,16.09514,-1.265,1,5
144,16.09387,-1.268,1,5
145,16.09261,-1.270,1,5
146,16.09133,-1.275,1,5
147,16.09005,-1.281,1,5
148,16.08877,-1.278,1,5
149,16.08749,-1.277,1,5
150,16.08622,-1.274,1,5
151,16.08494,-1.282,1,5
152,16.08365,-1.286,1,5
153,16.08237,-1.287,1,5
154,16.08107,-1.291,1,5
155,16.07978,-1.293,1,5
156,16.07850,-1.285,1,5
157,16.07721,-1.288,1,5
158,16.07591,-1.299,1,5
159,16.07461,-1.300,1,5
160,16.07331,-1.301,1,5
161,16.07200,-1.303,1,5
162,16.06941,-1.298,1,5
163,16.06810,-1.313,1,5
164,16.06547,-1.315,1,5
165,16.06416,-1.309,1,5
166,16.06285,-1.308,1,5
167,16.06022,-1.319,1,5
168,16.05890,-1.319,1,5
169,16.05758,-1.321,1,5
170,16.05626,-1.323,1,5
171,16.05494,-1.322,1,5
172,16.05361,-1.323,1,5
173,16.05228,-1.332,1,5
174,16.05095,-1.333,1,5
175,16.04962,-1.330,1,5
176,16.04828,-1.334,1,5
177,16.04561,-1.335,1,5
178,16.04428,-1.338,1,5
179,16.04293,-1.345,1,5
180,16.04158,-1.347,1,5
181,16.04024,-1.343,1,5
182,16.03890,-1.343,1,5
183,16.03755,-1.347,1,5
184,16.03485,-1.355,1,5
185,16.03349,-1.357,1,5
186,16.03214,-1.353,1,5
187,16.03079,-1.348,1,5
188,16.02944,-1.353,1,5
189,16.02807,-1.363,1,5
190,16.02671,-1.364,1,5
191,16.02535,-1.361,1,5
192,16.02399,-1.363,1,5
193,16.02263,-1.359,1,5
194,16.02127,-1.359,1,5
195,16.01853,-1.375,1,5
196,16.01716,-1.369,1,5
197,16.01579,-1.363,1,5
198,16.01443,-1.366,1,5
199,16.01306,-1.371,1,5
200,16.01168,-1.376,1,5
201,16.01030,-1.377,1,5
202,16.00893,-1.371,1,5
203,16.00620,-1.371,1,5
204,16.00481,-1.381,1,5
205,16.00344,-1.381,1,5
206,16.00206,-1.372,1,5
207,16.00069,-1.373,1,5
208,15.99931,-1.376,1,5
209,15.99794,-1.378,1,5
210,15.99655,-1.382,1,5
211,15.99517,-1.384,1,5
212,15.99242,-1.377,1,5
213,15.99103,-1.383,1,5
214,15.98965,-1.386,1,5
215,15.98826,-1.384,1,5
216,15.98688,-1.386,1,5
217,15.98549,-1.388,1,5
218,15.98411,-1.384,1,5
219,15.98272,-1.383,1,5
220,15.98133,-1.391,1,5
221,15.97855,-1.392,1,5
222,15.97716,-1.393,1,5
223,15.97577,-1.390,1,5
224,15.97438,-1.385,1,5
225,15.97299,-1.394,1,5
226,15.97159,-1.403,1,5
227,15.97019,-1.401,1,5
228,15.96879,-1.392,1,5
229,15.96740,-1.393,1,5
230,15.96600,-1.406,1,5
231,15.96318,-1.411,1,5
232,15.96178,-1.402,1,5
233,15.96038,-1.398,1,5
234,15.95898,-1.406,1,5
235,15.95756,-1.418,1,5
236,15.95614,-1.419,1,5
237,15.95473,-1.412,1,5
238,15.95332,-1.412,1,5
239,15.95191,-1.412,1,5
240,15.94906,-1.426,1,5
241,15.94763,-1.428,1,5
242,15.94621,-1.422,1,5
243,15.94479,-1.420,1,5
244,15.94336,-1.429,1,5
245,15.94192,-1.434,1,5
246,15.94049,-1.439,1,5
247,15.93904,-1.440,1,5
248,15.93761,-1.435,1,5
249,15.93473,-1.444,1,5
250,15.93328,-1.453,1,5
251,15.93182,-1.454,1,5
252,15.93037,-1.452,1,5
253,15.92892,-1.452,1,5
254,15.92747,-1.452,1,5
255,15.92600,-1.463,1,5
256,15.92453,-1.474,1,5
257,15.92306,-1.466,1,5
258,15.92013,-1.468,1,5
259,15.91865,-1.477,1,5
260,15.91716,-1.488,1,5
261,15.91567,-1.493,1,5
262,15.91418,-1.487,1,5
263,15.91270,-1.482,1,5
264,15.91121,-1.491,1,5
265,15.90970,-1.508,1,5
266,15.90668,-1.511,1,5
267,15.90517,-1.503,1,5
268,15.90367,-1.508,1,5
269,15.90214,-1.524,1,5
270,15.90060,-1.538,1,5
271,15.89907,-1.534,1,5
272,15.89754,-1.528,1,5
273,15.89601,-1.527,1,5
274,15.89447,-1.541,1,5
275,15.89292,-1.558,1,5
276,15.89135,-1.565,1,5
277,15.88980,-1.556,1,5
278,15.88669,-1.560,1,5
279,15.88511,-1.579,1,5
280,15.88352,-1.589,1,5
281,15.88193,-1.588,1,5
282,15.88035,-1.578,1,5
283,15.87877,-1.582,1,5
284,15.87717,-1.600,1,5
285,15.87556,-1.616,1,5
286,15.87233,-1.611,1,5
287,15.87072,-1.609,1,5
288,15.86909,-1.626,1,5
289,15.86745,-1.644,1,5
290,15.86580,-1.647,1,5
291,15.86416,-1.641,1,5
292,15.86252,-1.642,1,5
293,15.86086,-1.656,1,5
294,15.85919,-1.677,1,5
295,15.85584,-1.671,1,5
296,15.85416,-1.678,1,5
297,15.85247,-1.694,1,5
298,15.85076,-1.705,1,5
299,15.84906,-1.707,1,5
300,15.84735,-1.707,1,5
301,15.84563,-1.717,1,5
302,15.84216,-1.739,1,5
303,15.84042,-1.741,1,5
304,15.83868,-1.742,1,5
305,15.83692,-1.754,1,5
306,15.83515,-1.772,1,5
307,15.83338,-1.773,1,5
308,15.83160,-1.778,1,5
309,15.82982,-1.783,1,5
310,15.82802,-1.795,1,5
311,15.82440,-1.816,1,5
312,15.82258,-1.815,1,5
313,15.82076,-1.828,1,5
314,15.81892,-1.835,1,5
315,15.81707,-1.848,1,5
316,15.81522,-1.857,1,5
317,15.81335,-1.863,1,5
318,15.81148,-1.871,1,5
319,15.80960,-1.877,1,5
320,15.80772,-1.886,1,5
321,15.80582,-1.910,1,5
322,15.80199,-1.915,1,5
323,15.80007,-1.918,1,5
324,15.79814,-1.933,1,5
325,15.79619,-1.950,1,5
326,15.79424,-1.953,1,5
327,15.79228,-1.956,1,5
328,15.78833,-1.985,1,5
329,15.78634,-1.996,1,5
330,15.78434,-2.000,1,5
331,15.78234,-2.002,1,5
332,15.78032,-2.016,1,5
333,15.77829,-2.033,1,5
334,15.77625,-2.040,1,5
335,15.77420,-2.047,1,5
336,15.77215,-2.052,1,5
337,15.77008,-2.065,1,5
338,15.76591,-2.091,1,5
339,15.76381,-2.096,1,5
340,15.76171,-2.101,1,5
341,15.75960,-2.114,1,5
342,15.75746,-2.133,1,5
343,15.75532,-2.141,1,5
344,15.75318,-2.142,1,5
345,15.75103,-2.149,1,5
346,15.74886,-2.170,1,5
347,15.74668,-2.187,1,5
348,15.74231,-2.189,1,5
349,15.74010,-2.207,1,5
350,15.73788,-2.219,1,5
351,15.73565,-2.226,1,5
352,15.73342,-2.233,1,5
353,15.73117,-2.247,1,5
354,15.72892,-2.255,1,5
355,15.72665,-2.276,1,5
356,15.72209,-2.283,1,5
357,15.71980,-2.296,1,5
358,15.71749,-2.308,1,5
359,15.71517,-2.316,1,5
360,15.71284,-2.327,1,5
361,15.71051,-2.335,1,5
362,15.70816,-2.349,1,5
363,15.70581,-2.353,1,5
364,15.70106,-2.377,1,5
365,15.69868,-2.386,1,5
366,15.69628,-2.395,1,5
367,15.69387,-2.407,1,5
368,15.69145,-2.418,1,5
369,15.68903,-2.427,1,5
370,15.68659,-2.437,1,5
371,15.68415,-2.446,1,5
372,15.68169,-2.455,1,5
373,15.67922,-2.474,1,5
374,15.67426,-2.485,1,5
375,15.67177,-2.495,1,5
376,15.66926,-2.507,1,5
377,15.66675,-2.511,1,5
378,15.66423,-2.522,1,5
379,15.66170,-2.531,1,5
380,15.65916,-2.540,1,5
381,15.65661,-2.550,1,5
382,15.65405,-2.562,1,5
383,15.64891,-2.573,1,5
384,15.64632,-2.589,1,5
385,15.64372,-2.594,1,5
386,15.64112,-2.601,1,5
387,15.63851,-2.610,1,5
388,15.63590,-2.618,1,5
389,15.63327,-2.629,1,5
390,15.63063,-2.638,1,5
391,15.62799,-2.642,1,5
392,15.62534,-2.651,1,5
393,15.62001,-2.667,1,5
394,15.61733,-2.675,1,5
395,15.61465,-2.682,1,5
396,15.61196,-2.689,1,5
397,15.60927,-2.697,1,5
398,15.60656,-2.707,1,5
399,15.60385,-2.713,1,5
400,15.60113,-2.716,1,5
401,15.59841,-2.723,1,5
402,15.59293,-2.739,1,5
403,15.59019,-2.747,1,5
404,15.58744,-2.751,1,5
405,15.58468,-2.757,1,5
406,15.58192,-2.762,1,5
407,15.57915,-2.770,1,5
408,15.57637,-2.774,1,5
409,15.57359,-2.780,1,5
410,15.57081,-2.785,1,5
411,15.56522,-2.796,1,5
412,15.56242,-2.799,1,5
413,15.55961,-2.807,1,5
414,15.55680,-2.812,1,5
415,15.55399,-2.813,1,5
416,15.55117,-2.819,1,5
417,15.54834,-2.826,1,5
418,15.54552,-2.829,1,5
419,15.54268,-2.831,1,5
420,15.53701,-2.839,1,5
421,15.53417,-2.844,1,5
422,15.53132,-2.844,1,5
423,15.52847,-2.849,1,5
424,15.52563,-2.849,1,5
425,15.52278,-2.851,1,5
426,15.51992,-2.856,1,5
427,15.51706,-2.857,1,5
428,15.51421,-2.856,1,5
429,15.51135,-2.860,1,5
430,15.50563,-2.859,1,5
431,15.50276,-2.865,1,5
432,15.49990,-2.865,1,5
433,15.49704,-2.862,1,5
434,15.49417,-2.865,1,5
435,15.49131,-2.865,1,5
436,15.48844,-2.867,1,5
437,15.48558,-2.862,1,5
438,15.47985,-2.867,1,5
439,15.47698,-2.865,1,5
440,15.47412,-2.864,1,5
441,15.47126,-2.862,1,5
442,15.46840,-2.860,1,5
443,15.46554,-2.861,1,5
444,15.46268,-2.859,1,5
445,15.45982,-2.856,1,5
446,15.45412,-2.851,1,5
447,15.45127,-2.849,1,5
448,15.44842,-2.847,1,5
449,15.44558,-2.842,1,5
450,15.44274,-2.841,1,5
451,15.43990,-2.835,1,5
452,15.43707,-2.834,1,5
453,15.43423,-2.834,1,5
454,15.43141,-2.823,1,5
455,15.42577,-2.822,1,5
456,15.42296,-2.814,1,5
457,15.42015,-2.811,1,5
458,15.41734,-2.805,1,5
459,15.41454,-2.800,1,5
460,15.41175,-2.793,1,5
461,15.40896,-2.793,1,5
462,15.40617,-2.786,1,5
463,15.40339,-2.781,1,5
464,15.40061,-2.775,1,5
465,15.39508,-2.764,1,5
466,15.39232,-2.760,1,5
467,15.38957,-2.751,1,5
468,15.38682,-2.745,1,5
469,15.38409,-2.739,1,5
470,15.38135,-2.732,1,5
471,15.37863,-2.729,1,5
472,15.37591,-2.720,1,5
473,15.37319,-2.715,1,5
474,15.36778,-2.701,1,5
475,15.36509,-2.691,1,5
476,15.36240,-2.689,1,5
477,15.35972,-2.679,1,5
478,15.35705,-2.673,1,5
479,15.35438,-2.668,1,5
480,15.35172,-2.661,1,5
481,15.34907,-2.653,1,5
482,15.34642,-2.638,1,5
483,15.34115,-2.633,1,5
484,15.33852,-2.627,1,5
485,15.33590,-2.619,1,5
486,15.33329,-2.611,1,5
487,15.33068,-2.607,1,5
488,15.32809,-2.595,1,5
489,15.32550,-2.591,1,5
490,15.32291,-2.588,1,5
491,15.32033,-2.577,1,5
492,15.31520,-2.566,1,5
493,15.31264,-2.557,1,5
494,15.31009,-2.550,1,5
495,15.30754,-2.547,1,5
496,15.30501,-2.539,1,5
497,15.30248,-2.530,1,5
498,15.29995,-2.527,1,5
499,15.29743,-2.517,1,5
500,15.29241,-2.511,1,5
501,15.28990,-2.502,1,5
502,15.28741,-2.496,1,5
503,15.28491,-2.494,1,5
504,15.28243,-2.486,1,5
505,15.27995,-2.480,1,5
506,15.27747,-2.479,1,5
507,15.27499,-2.474,1,5
508,15.27253,-2.465,1,5
509,15.27006,-2.464,1,5
510,15.26760,-2.459,1,5
511,15.26270,-2.450,1,5
512,15.26025,-2.447,1,5
513,15.25781,-2.441,1,5
514,15.25537,-2.437,1,5
515,15.25294,-2.434,1,5
516,15.25051,-2.427,1,5
517,15.24809,-2.427,1,5
518,15.24566,-2.424,1,5
519,15.24084,-2.409,1,5
520,15.23843,-2.410,1,5
521,15.23603,-2.404,1,5
522,15.23363,-2.396,1,5
523,15.23123,-2.395,1,5
524,15.22884,-2.392,1,5
525,15.22646,-2.382,1,5
526,15.22408,-2.380,1,5
527,15.22170,-2.377,1,5
528,15.21697,-2.364,1,5
529,15.21461,-2.357,1,5
530,15.21225,-2.357,1,5
531,15.20991,-2.348,1,5
532,15.20756,-2.348,1,5
533,15.20522,-2.335,1,5
534,15.20289,-2.333,1,5
535,15.20056,-2.329,1,5
536,15.19824,-2.327,1,5
537,15.19361,-2.308,1,5
538,15.19130,-2.310,1,5
539,15.18900,-2.303,1,5
540,15.18671,-2.291,1,5
541,15.18441,-2.293,1,5
542,15.18213,-2.289,1,5
543,15.17985,-2.278,1,5
544,15.17758,-2.271,1,5
545,15.17303,-2.268,1,5
546,15.17078,-2.257,1,5
547,15.16852,-2.255,1,5
548,15.16627,-2.251,1,5
549,15.16402,-2.250,1,5
550,15.16178,-2.242,1,5
551,15.15954,-2.239,1,5
552,15.15731,-2.232,1,5
553,15.15508,-2.230,1,5
554,15.15062,-2.226,1,5
555,15.14841,-2.216,1,5
556,15.14619,-2.217,1,5
557,15.14397,-2.219,1,5
558,15.14175,-2.216,1,5
559,15.13955,-2.207,1,5
560,15.13734,-2.208,1,5
561,15.13513,-2.211,1,5
562,15.13292,-2.206,1,5
563,15.13072,-2.204,1,5
564,15.12631,-2.205,1,5
565,15.12411,-2.200,1,5
566,15.12191,-2.200,1,5
567,15.11971,-2.202,1,5
568,15.11751,-2.200,1,5
569,15.11532,-2.197,1,5
570,15.11311,-2.201,1,5
571,15.11092,-2.199,1,5
572,15.10652,-2.199,1,5
573,15.10432,-2.203,1,5
574,15.10212,-2.196,1,5
575,15.09993,-2.195,1,5
576,15.09772,-2.202,1,5
577,15.09552,-2.204,1,5
578,15.09332,-2.198,1,5
579,15.09112,-2.200,1,5
580,15.08891,-2.209,1,5
581,15.08671,-2.206,1,5
582,15.08230,-2.206,1,5
583,15.08009,-2.214,1,5
584,15.07787,-2.212,1,5
585,15.07566,-2.214,1,5
586,15.07345,-2.214,1,5
587,15.07123,-2.217,1,5
588,15.06901,-2.221,1,5
589,15.06455,-2.227,1,5
590,15.06233,-2.226,1,5
591,15.06009,-2.231,1,5
592,15.05785,-2.240,1,5
593,15.05561,-2.240,1,5
594,15.05337,-2.242,1,5
595,15.05112,-2.249,1,5
596,15.04887,-2.256,1,5
597,15.04661,-2.257,1,5
598,15.04208,-2.271,1,5
599,15.03981,-2.271,1,5
600,15.03753,-2.275,1,5
601,15.03525,-2.282,1,5
602,15.03296,-2.289,1,5
603,15.03067,-2.294,1,5
604,15.02837,-2.298,1,5
605,15.02607,-2.302,1,5
606,15.02376,-2.317,1,5
607,15.01912,-2.322,1,5
608,15.01679,-2.332,1,5
609,15.01446,-2.332,1,5
610,15.01212,-2.341,1,5
611,15.00977,-2.349,1,5
612,15.00741,-2.353,1,5
613,15.00269,-2.370,1,5
614,15.00031,-2.373,1,5
615,15.00031,-2.381,1,5
616,14.99554,-2.391,1,5
617,14.99314,-2.398,1,5
618,14.99074,-2.410,1,5
619,14.98833,-2.421,1,5
620,14.98591,-2.427,1,5
621,14.98104,-2.438,1,5
622,14.97860,-2.445,1,5
623,14.97614,-2.452,1,5
624,14.97369,-2.457,1,5
625,14.96874,-2.477,1,5
626,14.96626,-2.487,1,5
627,14.96376,-2.495,1,5
628,14.96126,-2.503,1,5
629,14.95875,-2.509,1,5
630,14.95623,-2.518,1,5
631,14.95370,-2.532,1,5
632,14.95116,-2.538,1,5
633,14.94861,-2.548,1,5
634,14.94349,-2.565,1,5
635,14.94091,-2.575,1,5
636,14.93832,-2.589,1,5
637,14.93573,-2.595,1,5
638,14.93312,-2.608,1,5
639,14.93051,-2.616,1,5
640,14.92788,-2.626,1,5
641,14.92524,-2.636,1,5
642,14.92259,-2.656,1,5
643,14.91727,-2.667,1,5
644,14.91459,-2.682,1,5
645,14.91190,-2.689,1,5
646,14.90920,-2.702,1,5
647,14.90648,-2.713,1,5
648,14.90376,-2.722,1,5
649,14.90103,-2.737,1,5
650,14.89828,-2.748,1,5
651,14.89275,-2.771,1,5
652,14.88997,-2.781,1,5
653,14.88718,-2.792,1,5
654,14.88437,-2.804,1,5
655,14.88155,-2.820,1,5
656,14.87872,-2.830,1,5
657,14.87588,-2.842,1,5
658,14.87303,-2.852,1,5
659,14.86728,-2.882,1,5
660,14.86439,-2.893,1,5
661,14.86148,-2.906,1,5
662,14.85857,-2.917,1,5
663,14.85563,-2.931,1,5
664,14.85269,-2.948,1,5
665,14.84973,-2.956,1,5
666,14.84676,-2.968,1,5
667,14.84378,-2.983,1,5
668,14.84078,-2.997,1,5
669,14.83777,-3.012,1,5
670,14.83475,-3.035,1,5
671,14.82867,-3.046,1,5
672,14.82560,-3.063,1,5
673,14.82253,-3.075,1,5
674,14.81944,-3.087,1,5
675,14.81634,-3.099,1,5
676,14.81010,-3.126,1,5
677,14.81010,-3.141,1,5
678,14.80381,-3.153,1,5
679,14.80065,-3.161,1,5
680,14.79747,-3.179,1,5
681,14.79428,-3.207,1,5
682,14.79107,-3.216,1,5
683,14.78785,-3.229,1,5
684,14.78138,-3.244,1,5
685,14.77812,-3.261,1,5
686,14.77485,-3.274,1,5
687,14.77157,-3.279,1,5
688,14.76496,-3.312,1,5
689,14.76164,-3.323,1,5
690,14.75830,-3.337,1,5
691,14.75495,-3.349,1,5
692,14.75159,-3.359,1,5
693,14.74822,-3.372,1,5
694,14.74483,-3.388,1,5
695,14.74143,-3.400,1,5
696,14.73802,-3.422,1,5
697,14.73117,-3.431,1,5
698,14.72772,-3.445,1,5
699,14.72427,-3.458,1,5
700,14.72080,-3.470,1,5
701,14.71732,-3.478,1,5
702,14.71383,-3.488,1,5
703,14.71033,-3.500,1,5
704,14.70681,-3.514,1,5
705,14.69976,-3.533,1,5
706,14.69621,-3.544,1,5
707,14.69266,-3.553,1,5
708,14.68910,-3.565,1,5
709,14.68552,-3.573,1,5
710,14.68194,-3.583,1,5
711,14.67835,-3.592,1,5
712,14.67475,-3.601,1,5
713,14.67114,-3.610,1,5
714,14.66389,-3.628,1,5
715,14.66026,-3.635,1,5
716,14.65662,-3.640,1,5
717,14.65297,-3.648,1,5
718,14.64931,-3.660,1,5
719,14.64564,-3.669,1,5
720,14.64197,-3.672,1,5
721,14.63829,-3.679,1,5
722,14.63460,-3.691,1,5
723,14.63090,-3.694,1,5
724,14.62349,-3.709,1,5
725,14.61977,-3.716,1,5
726,14.61605,-3.723,1,5
727,14.61232,-3.728,1,5
728,14.60859,-3.734,1,5
729,14.60485,-3.739,1,5
730,14.60110,-3.745,1,5
731,14.59736,-3.748,1,5
732,14.59360,-3.761,1,5
733,14.58608,-3.763,1,5
734,14.58231,-3.768,1,5
735,14.57853,-3.777,1,5
736,14.57476,-3.774,1,5
737,14.57098,-3.781,1,5
738,14.56719,-3.787,1,5
739,14.56340,-3.790,1,5
740,14.55582,-3.795,1,5
741,14.55201,-3.801,1,5
742,14.54821,-3.802,1,5
743,14.54441,-3.803,1,5
744,14.54061,-3.805,1,5
745,14.53680,-3.809,1,5
746,14.53299,-3.810,1,5
747,14.52917,-3.813,1,5
748,14.52155,-3.812,1,5
749,14.51774,-3.811,1,5
750,14.51392,-3.815,1,5
751,14.50630,-3.814,1,5
752,14.50630,-3.813,1,5
753,14.50249,-3.814,1,5
754,14.49486,-3.811,1,5
755,14.49105,-3.808,1,5
756,14.48725,-3.804,1,5
757,14.48344,-3.805,1,5
758,14.47584,-3.804,1,5
759,14.47204,-3.795,1,5
760,14.46825,-3.792,1,5
761,14.46446,-3.789,1,5
762,14.46068,-3.785,1,5
763,14.45690,-3.778,1,5
764,14.45312,-3.773,1,5
765,14.44935,-3.771,1,5
766,14.44559,-3.764,1,5
767,14.44183,-3.761,1,5
768,14.43807,-3.754,1,5
769,14.43058,-3.740,1,5
770,14.42685,-3.735,1,5
771,14.42312,-3.729,1,5
772,14.41940,-3.723,1,5
773,14.41568,-3.714,1,5
774,14.41198,-3.706,1,5
775,14.40828,-3.694,1,5
776,14.40091,-3.679,1,5
777,14.39723,-3.672,1,5
778,14.39357,-3.667,1,5
779,14.38991,-3.655,1,5
780,14.38626,-3.650,1,5
781,14.38262,-3.641,1,5
782,14.37899,-3.634,1,5
783,14.37537,-3.621,1,5
784,14.36814,-3.610,1,5
785,14.36454,-3.602,1,5
786,14.36095,-3.588,1,5
787,14.35737,-3.579,1,5
788,14.35380,-3.572,1,5
789,14.35023,-3.566,1,5
790,14.34668,-3.556,1,5
791,14.34313,-3.544,1,5
792,14.33960,-3.534,1,5
793,14.33607,-3.523,1,5
794,14.32904,-3.505,1,5
795,14.32555,-3.496,1,5
796,14.32206,-3.485,1,5
797,14.31858,-3.480,1,5
798,14.31511,-3.473,1,5
799,14.31165,-3.458,1,5
800,14.30821,-3.446,1,5
801,14.30477,-3.436,1,5
802,14.30134,-3.422,1,5
803,14.29450,-3.410,1,5
804,14.29111,-3.398,1,5
805,14.28771,-3.395,1,5
806,14.28432,-3.388,1,5
807,14.28095,-3.374,1,5
808,14.27758,-3.364,1,5
809,14.27088,-3.352,1,5
810,14.27088,-3.342,1,5
811,14.26420,-3.330,1,5
812,14.26088,-3.322,1,5
813,14.25757,-3.311,1,5
814,14.25426,-3.300,1,5
815,14.25095,-3.300,1,5
816,14.24766,-3.283,1,5
817,14.24110,-3.281,1,5
818,14.23782,-3.276,1,5
819,14.23456,-3.264,1,5
820,14.23130,-3.256,1,5
821,14.22480,-3.253,1,5
822,14.22155,-3.243,1,5
823,14.21832,-3.236,1,5
824,14.21509,-3.233,1,5
825,14.21185,-3.230,1,5
826,14.20863,-3.225,1,5
827,14.20541,-3.219,1,5
828,14.20220,-3.216,1,5
829,14.19578,-3.208,1,5
830,14.19257,-3.209,1,5
831,14.18937,-3.200,1,5
832,14.18617,-3.199,1,5
833,14.18297,-3.195,1,5
834,14.17978,-3.195,1,5
835,14.17659,-3.192,1,5
836,14.17340,-3.187,1,5
