cnt,pos,speed,Dir,Force,
1,0,1.001,1,5
2,0.00199032,0.987,1,5
3,0.00298023,0.987,1,5
4,0.00397968,1.007,1,5
5,0.00500011,1.014,1,5
6,0.00599957,1.005,1,5
7,0.00699997,0.992,1,5
8,0.00798988,0.998,1,5
9,0.00901031,1.021,1,5
10,0.0100403,1.028,1,5
11,0.0110502,1.011,1,5
12,0.0120497,0.998,1,5
13,0.0130596,1.009,1,5
14,0.0140896,1.028,1,5
15,0.0151205,1.031,1,5
16,0.01614,1.017,1,5
17,0.0171404,1.006,1,5
18,0.0181599,1.023,1,5
19,0.0192099,1.043,1,5
20,0.0202398,1.036,1,5
21,0.0212603,1.013,1,5
22,0.0222702,1.014,1,5
23,0.0233097,1.037,1,5
24,0.0243597,1.05,1,5
25,0.0254002,1.038,1,5
26,0.0264101,1.018,1,5
27,0.0274401,1.025,1,5
28,0.0284901,1.046,1,5
29,0.0295401,1.053,1,5
30,0.03057,1.033,1,5
31,0.0315905,1.022,1,5
32,0.03263,1.036,1,5
33,0.0336905,1.058,1,5
34,0.0347404,1.052,1,5
35,0.0357704,1.03,1,5
36,0.0367899,1.024,1,5
37,0.0378399,1.045,1,5
38,0.0389004,1.061,1,5
39,0.0399504,1.049,1,5
40,0.0409803,1.03,1,5
41,0.0420103,1.033,1,5
42,0.0430698,1.056,1,5
43,0.0441303,1.056,1,5
44,0.0451603,1.037,1,5
45,0.0461903,1.031,1,5
46,0.0472403,1.048,1,5
47,0.0482998,1.064,1,5
48,0.0493603,1.055,1,5
49,0.0503902,1.034,1,5
50,0.0514297,1.036,1,5
51,0.0524902,1.057,1,5
52,0.0535498,1.064,1,5
53,0.0545998,1.049,1,5
54,0.0556402,1.038,1,5
55,0.0566902,1.05,1,5
56,0.0577497,1.066,1,5
57,0.0588102,1.059,1,5
58,0.0598497,1.04,1,5
59,0.0608997,1.043,1,5
60,0.0619602,1.062,1,5
61,0.0630302,1.067,1,5
62,0.0640802,1.055,1,5
63,0.0651197,1.043,1,5
64,0.0661802,1.054,1,5
65,0.0672398,1.066,1,5
66,0.0683002,1.061,1,5
67,0.0693502,1.048,1,5
68,0.0704098,1.053,1,5
69,0.0714703,1.066,1,5
70,0.0725403,1.071,1,5
71,0.0735998,1.056,1,5
72,0.0746498,1.052,1,5
73,0.0757103,1.062,1,5
74,0.0767899,1.073,1,5
75,0.0778503,1.067,1,5
76,0.0789099,1.058,1,5
77,0.0799799,1.064,1,5
78,0.0810499,1.076,1,5
79,0.0821304,1.075,1,5
80,0.08319,1.06,1,5
81,0.0842505,1.062,1,5
82,0.08533,1.078,1,5
83,0.0864096,1.083,1,5
84,0.0874796,1.072,1,5
85,0.0885496,1.066,1,5
86,0.0896196,1.076,1,5
87,0.0907097,1.087,1,5
88,0.0917902,1.079,1,5
89,0.0928602,1.066,1,5
90,0.0939302,1.074,1,5
91,0.0950203,1.092,1,5
92,0.0961103,1.092,1,5
93,0.0971899,1.076,1,5
94,0.0982599,1.07,1,5
95,0.0993404,1.084,1,5
96,0.10044,1.096,1,5
97,0.10153,1.089,1,5
98,0.10261,1.078,1,5
99,0.10369,1.086,1,5
100,0.10479,1.101,1,5
101,0.10589,1.096,1,5
102,0.10697,1.082,1,5
103,0.10805,1.082,1,5
104,0.10915,1.1,1,5
105,0.11026,1.106,1,5
106,0.11136,1.095,1,5
107,0.11244,1.088,1,5
108,0.11354,1.097,1,5
109,0.11464,1.105,1,5
110,0.11574,1.099,1,5
111,0.11684,1.091,1,5
112,0.11793,1.099,1,5
113,0.11904,1.109,1,5
114,0.12015,1.105,1,5
115,0.12124,1.095,1,5
116,0.12234,1.094,1,5
117,0.12344,1.106,1,5
118,0.12455,1.11,1,5
119,0.12565,1.101,1,5
120,0.12675,1.098,1,5
121,0.12786,1.105,1,5
122,0.12897,1.109,1,5
123,0.13007,1.103,1,5
124,0.13117,1.098,1,5
125,0.13227,1.107,1,5
126,0.13339,1.113,1,5
127,0.13449,1.108,1,5
128,0.1356,1.102,1,5
129,0.1367,1.106,1,5
130,0.13782,1.113,1,5
131,0.13892,1.109,1,5
132,0.14003,1.103,1,5
133,0.14113,1.106,1,5
134,0.14225,1.116,1,5
135,0.14336,1.115,1,5
136,0.14447,1.105,1,5
137,0.14557,1.102,1,5
138,0.14668,1.11,1,5
139,0.14779,1.114,1,5
140,0.1489,1.11,1,5
141,0.15001,1.105,1,5
142,0.15112,1.109,1,5
143,0.15223,1.114,1,5
144,0.15334,1.109,1,5
145,0.15445,1.104,1,5
146,0.15555,1.106,1,5
147,0.15666,1.112,1,5
148,0.15777,1.11,1,5
149,0.15888,1.106,1,5
150,0.15999,1.106,1,5
151,0.1611,1.112,1,5
152,0.16221,1.11,1,5
153,0.16331,1.102,1,5
154,0.16442,1.103,1,5
155,0.16553,1.111,1,5
156,0.16664,1.113,1,5
157,0.16774,1.106,1,5
158,0.16885,1.101,1,5
159,0.16995,1.106,1,5
160,0.17106,1.111,1,5
161,0.17217,1.105,1,5
162,0.17327,1.099,1,5
163,0.17437,1.102,1,5
164,0.17548,1.109,1,5
165,0.17658,1.106,1,5
166,0.17768,1.098,1,5
167,0.17878,1.097,1,5
168,0.17988,1.105,1,5
169,0.18099,1.105,1,5
170,0.18209,1.098,1,5
171,0.18318,1.093,1,5
172,0.18428,1.099,1,5
173,0.18538,1.103,1,5
174,0.18648,1.097,1,5
175,0.18757,1.091,1,5
176,0.18867,1.096,1,5
177,0.18977,1.102,1,5
178,0.19087,1.096,1,5
179,0.19196,1.09,1,5
180,0.19305,1.092,1,5
181,0.19415,1.099,1,5
182,0.19524,1.098,1,5
183,0.19634,1.092,1,5
184,0.19743,1.089,1,5
185,0.19852,1.096,1,5
186,0.19962,1.099,1,5
187,0.20071,1.091,1,5
188,0.2018,1.087,1,5
189,0.20289,1.093,1,5
190,0.20399,1.099,1,5
191,0.20508,1.093,1,5
192,0.20617,1.087,1,5
193,0.20726,1.09,1,5
194,0.20836,1.099,1,5
195,0.20945,1.096,1,5
196,0.21054,1.087,1,5
197,0.21163,1.087,1,5
198,0.21273,1.098,1,5
199,0.21383,1.1,1,5
200,0.21492,1.093,1,5
201,0.21601,1.088,1,5
202,0.2171,1.095,1,5
203,0.2182,1.103,1,5
204,0.21931,1.1,1,5
205,0.2204,1.094,1,5
206,0.2215,1.099,1,5
207,0.22261,1.108,1,5
208,0.22371,1.108,1,5
209,0.22482,1.102,1,5
210,0.22592,1.102,1,5
211,0.22703,1.112,1,5
212,0.22814,1.115,1,5
213,0.22926,1.113,1,5
214,0.23037,1.112,1,5
215,0.23149,1.12,1,5
216,0.23261,1.122,1,5
217,0.23373,1.117,1,5
218,0.23485,1.118,1,5
219,0.23597,1.128,1,5
220,0.23711,1.135,1,5
221,0.23824,1.131,1,5
222,0.23937,1.127,1,5
223,0.2405,1.136,1,5
224,0.24165,1.144,1,5
225,0.24279,1.144,1,5
226,0.24393,1.142,1,5
227,0.24508,1.148,1,5
228,0.24624,1.16,1,5
229,0.2474,1.16,1,5
230,0.24856,1.154,1,5
231,0.24972,1.161,1,5
232,0.25089,1.172,1,5
233,0.25206,1.177,1,5
234,0.25324,1.176,1,5
235,0.25442,1.18,1,5
236,0.25561,1.186,1,5
237,0.2568,1.189,1,5
238,0.25799,1.189,1,5
239,0.25918,1.195,1,5
240,0.26039,1.208,1,5
241,0.2616,1.212,1,5
242,0.2628,1.205,1,5
243,0.26402,1.212,1,5
244,0.26524,1.222,1,5
245,0.26647,1.227,1,5
246,0.2677,1.231,1,5
247,0.26893,1.237,1,5
248,0.27018,1.243,1,5
249,0.27142,1.241,1,5
250,0.27266,1.247,1,5
251,0.27392,1.259,1,5
252,0.27519,1.271,1,5
253,0.27646,1.27,1,5
254,0.27773,1.267,1,5
255,0.27901,1.28,1,5
256,0.28029,1.284,1,5
257,0.28159,1.292,1,5
258,0.28289,1.302,1,5
259,0.2842,1.308,1,5
260,0.28551,1.309,1,5
261,0.28682,1.312,1,5
262,0.28814,1.322,1,5
263,0.28947,1.332,1,5
264,0.2908,1.335,1,5
265,0.29215,1.343,1,5
266,0.2935,1.352,1,5
267,0.29485,1.354,1,5
268,0.29621,1.356,1,5
269,0.29758,1.367,1,5
270,0.29896,1.38,1,5
271,0.30034,1.385,1,5
272,0.30173,1.391,1,5
273,0.30313,1.395,1,5
274,0.30453,1.398,1,5
275,0.30594,1.409,1,5
276,0.30736,1.428,1,5
277,0.3088,1.434,1,5
278,0.31023,1.43,1,5
279,0.31166,1.434,1,5
280,0.31311,1.447,1,5
281,0.31457,1.463,1,5
282,0.31604,1.472,1,5
283,0.31752,1.474,1,5
284,0.31899,1.473,1,5
285,0.32047,1.482,1,5
286,0.32197,1.503,1,5
287,0.32349,1.513,1,5
288,0.325,1.513,1,5
289,0.32652,1.517,1,5
290,0.32804,1.523,1,5
291,0.32958,1.54,1,5
292,0.33114,1.556,1,5
293,0.33269,1.558,1,5
294,0.33425,1.56,1,5
295,0.33582,1.567,1,5
296,0.3374,1.582,1,5
297,0.339,1.597,1,5
298,0.340611,1.608,1,5
299,0.34221,1.605,1,5
300,0.34382,1.608,1,5
301,0.34545,1.626,1,5
302,0.34709,1.642,1,5
303,0.34874,1.65,1,5
304,0.35039,1.652,1,5
305,0.35205,1.652,1,5
306,0.35371,1.669,1,5
307,0.35541,1.692,1,5
308,0.3571,1.697,1,5
309,0.3588,1.695,1,5
310,0.36049,1.696,1,5
311,0.36221,1.716,1,5
312,0.36395,1.74,1,5
313,0.3657,1.746,1,5
314,0.36743,1.735,1,5
315,0.36918,1.744,1,5
316,0.37095,1.769,1,5
317,0.37273,1.787,1,5
318,0.37452,1.79,1,5
319,0.3763,1.777,1,5
320,0.37809,1.792,1,5
321,0.37991,1.818,1,5
322,0.38175,1.838,1,5
323,0.38358,1.833,1,5
324,0.3854,1.823,1,5
325,0.38725,1.843,1,5
326,0.38912,1.87,1,5
327,0.391,1.886,1,5
328,0.39288,1.878,1,5
329,0.39475,1.872,1,5
330,0.39665,1.895,1,5
331,0.39857,1.921,1,5
332,0.4005,1.93,1,5
333,0.40242,1.925,1,5
334,0.40435,1.928,1,5
335,0.4063,1.946,1,5
336,0.40826,1.966,1,5
337,0.41024,1.975,1,5
338,0.41222,1.978,1,5
339,0.4142,1.98,1,5
340,0.41619,1.995,1,5
341,0.4182,2.013,1,5
342,0.42023,2.028,1,5
343,0.42227,2.032,1,5
344,0.42429,2.029,1,5
345,0.42634,2.043,1,5
346,0.4284,2.066,1,5
347,0.43048,2.08,1,5
348,0.43256,2.076,1,5
349,0.43464,2.082,1,5
350,0.43674,2.101,1,5
351,0.43886,2.117,1,5
352,0.44098,2.12,1,5
353,0.44311,2.126,1,5
354,0.44525,2.14,1,5
355,0.44739,2.149,1,5
356,0.44955,2.159,1,5
357,0.45172,2.171,1,5
358,0.45391,2.183,1,5
359,0.45609,2.186,1,5
360,0.45829,2.195,1,5
361,0.4605,2.209,1,5
362,0.46272,2.22,1,5
363,0.46494,2.228,1,5
364,0.46718,2.238,1,5
365,0.46943,2.245,1,5
366,0.47168,2.253,1,5
367,0.47395,2.267,1,5
368,0.47623,2.28,1,5
369,0.47851,2.283,1,5
370,0.4808,2.288,1,5
371,0.4831,2.3,1,5
372,0.48541,2.315,1,5
373,0.48774,2.322,1,5
374,0.49006,2.323,1,5
375,0.4924,2.339,1,5
376,0.49474,2.344,1,5
377,0.4971,2.356,1,5
378,0.49946,2.362,1,5
379,0.50183,2.375,1,5
380,0.50421,2.376,1,5
381,0.5066,2.387,1,5
382,0.50899,2.396,1,5
383,0.5114,2.404,1,5
384,0.51381,2.412,1,5
385,0.51623,2.423,1,5
386,0.51866,2.425,1,5
387,0.521091,2.432,1,5
388,0.52354,2.45,1,5
389,0.52844,2.456,1,5
390,0.53091,2.466,1,5
391,0.533381,2.472,1,5
392,0.53586,2.477,1,5
393,0.53834,2.488,1,5
394,0.54084,2.495,1,5
395,0.54334,2.499,1,5
396,0.54584,2.505,1,5
397,0.55088,2.521,1,5
398,0.55341,2.531,1,5
399,0.55594,2.534,1,5
400,0.55848,2.539,1,5
401,0.56103,2.547,1,5
402,0.56359,2.561,1,5
403,0.56872,2.566,1,5
404,0.57129,2.574,1,5
405,0.57387,2.579,1,5
406,0.57646,2.587,1,5
407,0.57905,2.596,1,5
408,0.58165,2.598,1,5
409,0.58425,2.613,1,5
410,0.58948,2.615,1,5
411,0.5921,2.624,1,5
412,0.59473,2.626,1,5
413,0.59736,2.633,1,5
414,0.6,2.637,1,5
415,0.60264,2.644,1,5
416,0.60529,2.646,1,5
417,0.60794,2.66,1,5
418,0.61326,2.659,1,5
419,0.61593,2.669,1,5
420,0.6186,2.676,1,5
421,0.62128,2.672,1,5
422,0.62396,2.681,1,5
423,0.62665,2.69,1,5
424,0.62933,2.688,1,5
425,0.63203,2.692,1,5
426,0.63473,2.7,1,5
427,0.63743,2.704,1,5
428,0.64285,2.71,1,5
429,0.64556,2.711,1,5
430,0.64828,2.718,1,5
431,0.651,2.72,1,5
432,0.65372,2.723,1,5
433,0.65644,2.726,1,5
434,0.65917,2.724,1,5
435,0.6619,2.728,1,5
436,0.66736,2.733,1,5
437,0.6701,2.732,1,5
438,0.67284,2.739,1,5
439,0.67557,2.738,1,5
440,0.67831,2.737,1,5
441,0.68105,2.741,1,5
442,0.68379,2.742,1,5
443,0.68654,2.742,1,5
444,0.68928,2.744,1,5
445,0.69477,2.747,1,5
446,0.69751,2.746,1,5
447,0.70026,2.742,1,5
448,0.703,2.746,1,5
449,0.70575,2.746,1,5
450,0.70849,2.744,1,5
451,0.71124,2.745,1,5
452,0.71398,2.743,1,5
453,0.71672,2.741,1,5
454,0.71947,2.745,1,5
455,0.72495,2.739,1,5
456,0.72768,2.736,1,5
457,0.73042,2.736,1,5
458,0.73315,2.732,1,5
459,0.73588,2.733,1,5
460,0.73861,2.728,1,5
461,0.74134,2.725,1,5
462,0.74678,2.721,1,5
463,0.74951,2.722,1,5
464,0.75222,2.718,1,5
465,0.75493,2.709,1,5
466,0.75764,2.708,1,5
467,0.76035,2.708,1,5
468,0.76305,2.702,1,5
469,0.76575,2.701,1,5
470,0.76845,2.696,1,5
471,0.77383,2.688,1,5
472,0.77651,2.685,1,5
473,0.77919,2.68,1,5
474,0.78187,2.677,1,5
475,0.78454,2.672,1,5
476,0.7872,2.663,1,5
477,0.78987,2.661,1,5
478,0.79252,2.656,1,5
479,0.79517,2.652,1,5
480,0.80047,2.64,1,5
481,0.8031,2.634,1,5
482,0.80573,2.632,1,5
483,0.80836,2.627,1,5
484,0.81098,2.621,1,5
485,0.8136,2.617,1,5
486,0.81621,2.611,1,5
487,0.81881,2.599,1,5
488,0.82401,2.596,1,5
489,0.8266,2.59,1,5
490,0.82918,2.583,1,5
491,0.83176,2.577,1,5
492,0.83433,2.572,1,5
493,0.8369,2.569,1,5
494,0.83946,2.561,1,5
495,0.84201,2.554,1,5
496,0.84456,2.55,1,5
497,0.84964,2.538,1,5
498,0.85217,2.533,1,5
499,0.8547,2.529,1,5
500,0.85722,2.515,1,5
501,0.85973,2.514,1,5
502,0.86224,2.5,1,5
503,0.86723,2.491,1,5
504,0.86972,2.489,1,5
505,0.86972,2.482,1,5
506,0.8722,2.482,1,5
507,0.87468,2.467,1,5
508,0.8796,2.459,1,5
509,0.88206,2.453,1,5
510,0.884501,2.436,1,5
511,0.88937,2.427,1,5
512,0.89179,2.424,1,5
513,0.89421,2.416,1,5
514,0.89661,2.406,1,5
515,0.89901,2.401,1,5
516,0.90379,2.381,1,5
517,0.90616,2.377,1,5
518,0.90854,2.374,1,5
519,0.91089,2.356,1,5
520,0.91324,2.35,1,5
521,0.91559,2.343,1,5
522,0.91793,2.34,1,5
523,0.92025,2.325,1,5
524,0.92257,2.321,1,5
525,0.92719,2.304,1,5
526,0.92948,2.297,1,5
527,0.93177,2.287,1,5
528,0.93405,2.278,1,5
529,0.93632,2.274,1,5
530,0.93859,2.268,1,5
531,0.94085,2.257,1,5
532,0.94309,2.244,1,5
533,0.94757,2.238,1,5
534,0.9498,2.228,1,5
535,0.95201,2.215,1,5
536,0.95423,2.215,1,5
537,0.95644,2.211,1,5
538,0.95864,2.2,1,5
539,0.96083,2.189,1,5
540,0.96302,2.19,1,5
541,0.96738,2.174,1,5
542,0.96955,2.168,1,5
543,0.97171,2.164,1,5
544,0.97387,2.161,1,5
545,0.97603,2.156,1,5
546,0.97818,2.152,1,5
547,0.98032,2.141,1,5
548,0.9846,2.142,1,5
549,0.98674,2.138,1,5
550,0.98887,2.126,1,5
551,0.99312,2.128,1,5
552,0.99312,2.128,1,5
553,0.99524,2.117,1,5
554,0.99736,2.117,1,5
555,0.99947,2.115,1,5
556,1.0037,2.117,1,5
557,1.00582,2.115,1,5
558,1.00792,2.105,1,5
559,1.01215,2.12,1,5
560,1.01427,2.12,1,5
561,1.01638,2.109,1,5
562,1.01849,2.107,1,5
563,1.02061,2.119,1,5
564,1.02274,2.128,1,5
565,1.02486,2.124,1,5
566,1.02697,2.111,1,5
567,1.02909,2.116,1,5
568,1.03336,2.139,1,5
569,1.03549,2.127,1,5
570,1.03761,2.123,1,5
571,1.03974,2.131,1,5
572,1.04188,2.145,1,5
573,1.04403,2.148,1,5
574,1.04617,2.142,1,5
575,1.04832,2.142,1,5
576,1.05047,2.151,1,5
577,1.05263,2.16,1,5
578,1.05479,2.164,1,5
579,1.05912,2.165,1,5
580,1.06129,2.172,1,5
581,1.06347,2.182,1,5
582,1.06566,2.188,1,5
583,1.06785,2.187,1,5
584,1.07004,2.191,1,5
585,1.07224,2.2,1,5
586,1.07666,2.215,1,5
587,1.07888,2.217,1,5
588,1.0811,2.223,1,5
589,1.08333,2.229,1,5
590,1.08557,2.236,1,5
591,1.08782,2.247,1,5
592,1.09006,2.249,1,5
593,1.09458,2.263,1,5
594,1.09686,2.279,1,5
595,1.10142,2.278,1,5
596,1.10371,2.292,1,5
597,1.10601,2.305,1,5
598,1.10833,2.313,1,5
599,1.11064,2.315,1,5
600,1.11296,2.321,1,5
601,1.1153,2.332,1,5
602,1.11764,2.345,1,5
603,1.12235,2.353,1,5
604,1.12471,2.363,1,5
605,1.12709,2.379,1,5
606,1.12948,2.389,1,5
607,1.13187,2.39,1,5
608,1.13427,2.399,1,5
609,1.13668,2.413,1,5
610,1.1391,2.429,1,5
611,1.14397,2.439,1,5
612,1.14641,2.454,1,5
613,1.14887,2.454,1,5
614,1.15134,2.469,1,5
615,1.15381,2.479,1,5
616,1.15629,2.481,1,5
617,1.15879,2.492,1,5
618,1.16129,2.504,1,5
619,1.16381,2.516,1,5
620,1.16886,2.532,1,5
621,1.1714,2.54,1,5
622,1.17396,2.567,1,5
623,1.17652,2.572,1,5
624,1.1791,2.572,1,5
625,1.18168,2.581,1,5
626,1.18427,2.594,1,5
627,1.18688,2.606,1,5
628,1.18949,2.616,1,5
629,1.19212,2.628,1,5
630,1.19475,2.631,1,5
631,1.20006,2.661,1,5
632,1.20273,2.678,1,5
633,1.2081,2.692,1,5
634,1.2081,2.699,1,5
635,1.2108,2.699,1,5
636,1.21351,2.716,1,5
637,1.21624,2.726,1,5
638,1.21897,2.733,1,5
639,1.22448,2.76,1,5
640,1.22725,2.77,1,5
641,1.23283,2.793,1,5
642,1.23563,2.803,1,5
643,1.23845,2.818,1,5
644,1.24128,2.831,1,5
645,1.24411,2.836,1,5
646,1.24697,2.852,1,5
647,1.24983,2.865,1,5
648,1.2527,2.874,1,5
649,1.25849,2.898,1,5
650,1.26141,2.914,1,5
651,1.26433,2.924,1,5
652,1.26727,2.938,1,5
653,1.27022,2.951,1,5
654,1.27318,2.961,1,5
655,1.27616,2.973,1,5
656,1.28214,2.997,1,5
657,1.28515,3.013,1,5
658,1.28818,3.027,1,5
659,1.29121,3.034,1,5
660,1.29732,3.059,1,5
661,1.29732,3.072,1,5
662,1.30039,3.072,1,5
663,1.30348,3.088,1,5
664,1.30658,3.098,1,5
665,1.30969,3.11,1,5
666,1.31595,3.135,1,5
667,1.3191,3.151,1,5
668,1.32226,3.161,1,5
669,1.32862,3.182,1,5
670,1.33182,3.2,1,5
671,1.33503,3.213,1,5
672,1.33826,3.226,1,5
673,1.3415,3.239,1,5
674,1.34474,3.263,1,5
675,1.35128,3.276,1,5
676,1.35457,3.289,1,5
677,1.35787,3.299,1,5
678,1.36118,3.309,1,5
679,1.3645,3.324,1,5
680,1.36784,3.334,1,5
681,1.37119,3.349,1,5
682,1.37455,3.36,1,5
683,1.37791,3.368,1,5
684,1.38129,3.38,1,5
685,1.38809,3.407,1,5
686,1.39151,3.416,1,5
687,1.39494,3.427,1,5
688,1.39838,3.442,1,5
689,1.40183,3.45,1,5
690,1.40529,3.464,1,5
691,1.40876,3.472,1,5
692,1.41225,3.485,1,5
693,1.41925,3.504,1,5
694,1.42277,3.518,1,5
695,1.42629,3.528,1,5
696,1.42983,3.538,1,5
697,1.43337,3.543,1,5
698,1.43693,3.556,1,5
699,1.4405,3.565,1,5
700,1.44407,3.577,1,5
701,1.45125,3.595,1,5
702,1.45485,3.601,1,5
703,1.45847,3.613,1,5
704,1.46209,3.622,1,5
705,1.46572,3.633,1,5
706,1.46936,3.636,1,5
707,1.473,3.646,1,5
708,1.47666,3.653,1,5
709,1.48032,3.671,1,5
710,1.48767,3.675,1,5
711,1.49136,3.688,1,5
712,1.49505,3.694,1,5
713,1.49875,3.7,1,5
714,1.50246,3.707,1,5
715,1.50617,3.714,1,5
716,1.50989,3.72,1,5
717,1.51362,3.725,1,5
718,1.52109,3.738,1,5
719,1.52483,3.743,1,5
720,1.52857,3.746,1,5
721,1.53233,3.752,1,5
722,1.53609,3.761,1,5
723,1.53985,3.764,1,5
724,1.54362,3.773,1,5
725,1.55118,3.781,1,5
726,1.55496,3.783,1,5
727,1.55875,3.794,1,5
728,1.56255,3.799,1,5
729,1.56635,3.799,1,5
730,1.57015,3.804,1,5
731,1.57395,3.808,1,5
732,1.58157,3.81,1,5
733,1.58539,3.815,1,5
734,1.5892,3.815,1,5
735,1.59302,3.819,1,5
736,1.60066,3.823,1,5
737,1.60448,3.824,1,5
738,1.60831,3.825,1,5
739,1.61213,3.824,1,5
740,1.61596,3.829,1,5
741,1.61979,3.827,1,5
742,1.62362,3.829,1,5
743,1.62745,3.83,1,5
744,1.63511,3.829,1,5
745,1.63894,3.829,1,5
746,1.64277,3.83,1,5
747,1.6466,3.831,1,5
748,1.65042,3.829,1,5
749,1.65425,3.825,1,5
750,1.65808,3.825,1,5
751,1.6619,3.822,1,5
752,1.66572,3.822,1,5
753,1.67336,3.817,1,5
754,1.67717,3.813,1,5
755,1.68098,3.811,1,5
756,1.68479,3.81,1,5
757,1.68859,3.804,1,5
758,1.69239,3.801,1,5
759,1.69619,3.796,1,5
760,1.69998,3.793,1,5
761,1.70377,3.781,1,5
762,1.71133,3.777,1,5
763,1.7151,3.771,1,5
764,1.71887,3.765,1,5
765,1.72262,3.757,1,5
766,1.72638,3.753,1,5
767,1.73012,3.743,1,5
768,1.73386,3.739,1,5
769,1.74131,3.726,1,5
770,1.74502,3.714,1,5
771,1.74873,3.695,1,5
772,1.75243,3.695,1,5
773,1.75612,3.691,1,5
774,1.7598,3.682,1,5
775,1.76347,3.67,1,5
776,1.77079,3.654,1,5
777,1.77443,3.645,1,5
778,1.77443,3.632,1,5
779,1.78168,3.62,1,5
780,1.78529,3.61,1,5
781,1.78889,3.588,1,5
782,1.79248,3.579,1,5
783,1.79606,3.565,1,5
784,1.79963,3.557,1,5
785,1.80673,3.546,1,5
786,1.81026,3.531,1,5
787,1.81378,3.52,1,5
788,1.81729,3.512,1,5
789,1.8208,3.501,1,5
790,1.82428,3.488,1,5
791,1.82776,3.478,1,5
792,1.83123,3.465,1,5
793,1.83468,3.456,1,5
794,1.83813,3.444,1,5
795,1.84156,3.432,1,5
796,1.84498,3.419,1,5
797,1.84839,3.412,1,5
798,1.85179,3.403,1,5
799,1.85518,3.388,1,5
800,1.85856,3.377,1,5
801,1.86193,3.368,1,5
802,1.86528,3.356,1,5
803,1.86863,3.347,1,5
804,1.87197,3.336,1,5
805,1.87529,3.325,1,5
806,1.8786,3.313,1,5
807,1.88191,3.306,1,5
808,1.88521,3.298,1,5
809,1.8885,3.289,1,5
810,1.89177,3.276,1,5
811,1.89504,3.265,1,5
812,1.8983,3.259,1,5
813,1.90155,3.254,1,5
814,1.90479,3.243,1,5
815,1.90802,3.233,1,5
816,1.91125,3.225,1,5
817,1.91448,3.225,1,5
818,1.91769,3.214,1,5
819,1.92089,3.202,1,5
820,1.92409,3.199,1,5
821,1.93047,3.19,1,5
822,1.93365,3.178,1,5
823,1.93682,3.173,1,5
824,1.93998,3.163,1,5
825,1.94315,3.163,1,5
826,1.9463,3.151,1,5
827,1.95259,3.141,1,5
828,1.95573,3.137,1,5
829,1.95887,3.14,1,5
830,1.96201,3.137,1,5
831,1.96513,3.126,1,5
832,1.96826,3.122,1,5
833,1.97138,3.121,1,5
834,1.9745,3.121,1,5
835,1.97762,3.11,1,5
836,1.98384,3.111,1,5
837,1.98695,3.111,1,5
838,1.99006,3.111,1,5
839,1.99317,3.108,1,5
840,1.99627,3.1,1,5
841,1.99937,3.105,1,5
842,2.00248,3.107,1,5
843,2.00558,3.104,1,5
844,2.00869,3.1,1,5
845,2.01178,3.1,1,5
846,2.01489,3.106,1,5
847,2.0211,3.103,1,5
848,2.02421,3.105,1,5
849,2.02731,3.104,1,5
850,2.03042,3.111,1,5
851,2.03353,3.111,1,5
852,2.03664,3.111,1,5
853,2.03976,3.115,1,5
854,2.04599,3.118,1,5
855,2.04912,3.126,1,5
856,2.05224,3.127,1,5
857,2.05537,3.127,1,5
858,2.05851,3.135,1,5
859,2.06164,3.139,1,5
860,2.06792,3.144,1,5
861,2.07107,3.15,1,5
862,2.07422,3.15,1,5
863,2.07738,3.155,1,5
864,2.08371,3.167,1,5
865,2.08688,3.169,1,5
866,2.09005,3.175,1,5
867,2.09323,3.174,1,5
868,2.09641,3.184,1,5
869,2.0996,3.188,1,5
870,2.1028,3.197,1,5
871,2.106,3.2,1,5
872,2.11241,3.208,1,5
873,2.11562,3.21,1,5
874,2.11884,3.22,1,5
875,2.12206,3.223,1,5
876,2.12529,3.224,1,5
877,2.12851,3.228,1,5
878,2.13175,3.233,1,5
879,2.13499,3.24,1,5
880,2.13823,3.24,1,5
881,2.14147,3.244,1,5
882,2.14472,3.245,1,5
883,2.14796,3.245,1,5
884,2.15121,3.252,1,5
885,2.15772,3.255,1,5
886,2.16097,3.253,1,5
887,2.16423,3.254,1,5
888,2.16749,3.258,1,5
889,2.17075,3.263,1,5
890,2.17401,3.26,1,5
891,2.17727,3.256,1,5
892,2.18378,3.26,1,5
893,2.18705,3.263,1,5
894,2.19031,3.26,1,5
895,2.19357,3.259,1,5
896,2.19682,3.258,1,5
897,2.20008,3.258,1,5
898,2.20334,3.259,1,5
899,2.2066,3.256,1,5
900,2.20985,3.252,1,5
901,2.2131,3.25,1,5
902,2.2196,3.249,1,5
903,2.22285,3.245,1,5
904,2.22609,3.241,1,5
905,2.22933,3.237,1,5
906,2.2358,3.236,1,5
907,2.23903,3.229,1,5
908,2.23903,3.227,1,5
909,2.24226,3.227,1,5
910,2.2487,3.22,1,5
911,2.25192,3.216,1,5
912,2.25513,3.207,1,5
913,2.25834,3.207,1,5
914,2.26475,3.201,1,5
