cnt,pos,speed,Dir,Force,
1,0,1.006,1,4
2,0.00100136,1.004,1,4
3,0.00199127,0.988,1,4
4,0.00298119,0.991,1,4
5,0.00399017,1.005,1,4
6,0.00500107,1.017,1,4
7,0.0060215,1.016,1,4
8,0.00702095,1.003,1,4
9,0.00802994,1.005,1,4
10,0.00905037,1.022,1,4
11,0.0100803,1.03,1,4
12,0.0111103,1.027,1,4
13,0.0121212,1.017,1,4
14,0.0131397,1.02,1,4
15,0.0141811,1.034,1,4
16,0.0152206,1.042,1,4
17,0.0162601,1.039,1,4
18,0.0172901,1.033,1,4
19,0.0183296,1.037,1,4
20,0.0193806,1.048,1,4
21,0.0204296,1.053,1,4
22,0.0214806,1.05,1,4
23,0.0225315,1.051,1,4
24,0.0235901,1.055,1,4
25,0.024641,1.061,1,4
26,0.0257111,1.06,1,4
27,0.0267696,1.065,1,4
28,0.0278397,1.068,1,4
29,0.0289097,1.072,1,4
30,0.0299797,1.071,1,4
31,0.0310612,1.074,1,4
32,0.0321407,1.079,1,4
33,0.0332203,1.084,1,4
34,0.0343113,1.085,1,4
35,0.0353909,1.083,1,4
36,0.0364799,1.088,1,4
37,0.037571,1.094,1,4
38,0.0386715,1.097,1,4
39,0.0397606,1.093,1,4
40,0.0408611,1.097,1,4
41,0.0419598,1.105,1,4
42,0.0430698,1.111,1,4
43,0.0441799,1.105,1,4
44,0.0452805,1.102,1,4
45,0.0463905,1.11,1,4
46,0.0475101,1.119,1,4
47,0.0486298,1.122,1,4
48,0.0497513,1.119,1,4
49,0.0508709,1.118,1,4
50,0.0519905,1.125,1,4
51,0.0531197,1.13,1,4
52,0.0542603,1.131,1,4
53,0.0553913,1.132,1,4
54,0.0565205,1.136,1,4
55,0.0576611,1.14,1,4
56,0.0587997,1.141,1,4
57,0.0599499,1.141,1,4
58,0.0610905,1.145,1,4
59,0.0622406,1.149,1,4
60,0.0633907,1.15,1,4
61,0.0645409,1.155,1,4
62,0.0657005,1.158,1,4
63,0.0668602,1.157,1,4
64,0.0680103,1.152,1,4
65,0.06917,1.158,1,4
66,0.0703411,1.17,1,4
67,0.0715103,1.171,1,4
68,0.0726814,1.167,1,4
69,0.0738411,1.162,1,4
70,0.0750103,1.169,1,4
71,0.0761909,1.178,1,4
72,0.0773697,1.179,1,4
73,0.0785408,1.176,1,4
74,0.0797215,1.179,1,4
75,0.0809002,1.181,1,4
76,0.0820904,1.187,1,4
77,0.083271,1.185,1,4
78,0.0844612,1.186,1,4
79,0.0856514,1.188,1,4
80,0.0868397,1.193,1,4
81,0.0880413,1.198,1,4
82,0.089241,1.199,1,4
83,0.0904312,1.193,1,4
84,0.0916214,1.191,1,4
85,0.0928211,1.199,1,4
86,0.0940304,1.209,1,4
87,0.0952396,1.21,1,4
88,0.0964413,1.2,1,4
89,0.097641,1.199,1,4
90,0.0988503,1.208,1,4
91,0.100061,1.215,1,4
92,0.10128,1.212,1,4
93,0.10248,1.208,1,4
94,0.103701,1.212,1,4
95,0.104921,1.217,1,4
96,0.106131,1.214,1,4
97,0.10734,1.215,1,4
98,0.108561,1.219,1,4
99,0.109791,1.225,1,4
100,0.111012,1.222,1,4
101,0.11223,1.223,1,4
102,0.113451,1.222,1,4
103,0.11467,1.222,1,4
104,0.1159,1.227,1,4
105,0.11713,1.231,1,4
106,0.11837,1.236,1,4
107,0.1196,1.228,1,4
108,0.120821,1.227,1,4
109,0.122051,1.229,1,4
110,0.123291,1.237,1,4
111,0.124521,1.235,1,4
112,0.125761,1.235,1,4
113,0.127001,1.24,1,4
114,0.128241,1.24,1,4
115,0.129471,1.234,1,4
116,0.130701,1.233,1,4
117,0.13195,1.24,1,4
118,0.13319,1.247,1,4
119,0.134441,1.246,1,4
120,0.135681,1.244,1,4
121,0.13693,1.244,1,4
122,0.13817,1.242,1,4
123,0.13941,1.245,1,4
124,0.140661,1.252,1,4
125,0.14192,1.257,1,4
126,0.143171,1.252,1,4
127,0.144421,1.246,1,4
128,0.14567,1.25,1,4
129,0.146921,1.255,1,4
130,0.148191,1.26,1,4
131,0.149441,1.258,1,4
132,0.1507,1.26,1,4
133,0.15196,1.258,1,4
134,0.153221,1.257,1,4
135,0.15448,1.259,1,4
136,0.155741,1.266,1,4
137,0.157011,1.268,1,4
138,0.158281,1.265,1,4
139,0.15954,1.265,1,4
140,0.16081,1.267,1,4
141,0.162071,1.266,1,4
142,0.16334,1.269,1,4
143,0.164621,1.275,1,4
144,0.165901,1.28,1,4
145,0.167171,1.275,1,4
146,0.16844,1.27,1,4
147,0.16972,1.277,1,4
148,0.171001,1.282,1,4
149,0.172291,1.285,1,4
150,0.173571,1.286,1,4
151,0.17486,1.286,1,4
152,0.17614,1.283,1,4
153,0.177431,1.284,1,4
154,0.17872,1.289,1,4
155,0.18001,1.296,1,4
156,0.181311,1.295,1,4
157,0.1826,1.293,1,4
158,0.183891,1.296,1,4
159,0.18519,1.297,1,4
160,0.186491,1.294,1,4
161,0.18779,1.302,1,4
162,0.1891,1.309,1,4
163,0.190401,1.307,1,4
164,0.191711,1.301,1,4
165,0.19301,1.304,1,4
166,0.194321,1.311,1,4
167,0.195631,1.313,1,4
168,0.196951,1.315,1,4
169,0.198261,1.317,1,4
170,0.199581,1.315,1,4
171,0.200891,1.314,1,4
172,0.202211,1.321,1,4
173,0.203541,1.325,1,4
174,0.204861,1.325,1,4
175,0.20619,1.326,1,4
176,0.207521,1.327,1,4
177,0.208841,1.327,1,4
178,0.210171,1.325,1,4
179,0.2115,1.331,1,4
180,0.212841,1.339,1,4
181,0.21418,1.342,1,4
182,0.215521,1.336,1,4
183,0.21685,1.333,1,4
184,0.21818,1.334,1,4
185,0.21953,1.343,1,4
186,0.220881,1.352,1,4
187,0.222231,1.355,1,4
188,0.223581,1.348,1,4
189,0.22492,1.341,1,4
190,0.226271,1.346,1,4
191,0.227631,1.358,1,4
192,0.228991,1.362,1,4
193,0.23035,1.363,1,4
194,0.23171,1.358,1,4
195,0.233061,1.352,1,4
196,0.234421,1.357,1,4
197,0.23579,1.371,1,4
198,0.237171,1.376,1,4
199,0.238541,1.372,1,4
200,0.239901,1.365,1,4
201,0.24127,1.366,1,4
202,0.242641,1.372,1,4
203,0.24402,1.382,1,4
204,0.245411,1.387,1,4
205,0.24679,1.381,1,4
206,0.248161,1.373,1,4
207,0.24954,1.377,1,4
208,0.250931,1.388,1,4
209,0.252321,1.395,1,4
210,0.25371,1.394,1,4
211,0.2551,1.389,1,4
212,0.256491,1.382,1,4
213,0.25787,1.388,1,4
214,0.25927,1.401,1,4
215,0.260681,1.408,1,4
216,0.262081,1.401,1,4
217,0.263481,1.392,1,4
218,0.26487,1.39,1,4
219,0.26627,1.403,1,4
220,0.267681,1.414,1,4
221,0.2691,1.418,1,4
222,0.27051,1.407,1,4
223,0.2719,1.394,1,4
224,0.2733,1.4,1,4
225,0.274721,1.416,1,4
226,0.27614,1.424,1,4
227,0.277571,1.424,1,4
228,0.27898,1.41,1,4
229,0.28038,1.4,1,4
230,0.28179,1.411,1,4
231,0.28322,1.431,1,4
232,0.284651,1.434,1,4
233,0.286081,1.423,1,4
234,0.287491,1.412,1,4
235,0.2889,1.41,1,4
236,0.290321,1.425,1,4
237,0.291761,1.44,1,4
238,0.293201,1.441,1,4
239,0.294621,1.422,1,4
240,0.296041,1.411,1,4
241,0.297461,1.42,1,4
242,0.298901,1.44,1,4
243,0.30035,1.451,1,4
244,0.30179,1.441,1,4
245,0.303211,1.419,1,4
246,0.304621,1.414,1,4
247,0.306051,1.434,1,4
248,0.30751,1.458,1,4
249,0.308971,1.456,1,4
250,0.3104,1.436,1,4
251,0.311821,1.42,1,4
252,0.313251,1.426,1,4
253,0.314701,1.45,1,4
254,0.31617,1.465,1,4
255,0.317621,1.457,1,4
256,0.319061,1.432,1,4
257,0.32048,1.426,1,4
258,0.32192,1.442,1,4
259,0.323381,1.463,1,4
260,0.32486,1.471,1,4
261,0.326311,1.452,1,4
262,0.32774,1.431,1,4
263,0.32918,1.435,1,4
264,0.330641,1.462,1,4
265,0.332111,1.477,1,4
266,0.33358,1.466,1,4
267,0.335032,1.447,1,4
268,0.33647,1.44,1,4
269,0.337921,1.455,1,4
270,0.339401,1.478,1,4
271,0.340881,1.482,1,4
272,0.34234,1.461,1,4
273,0.34379,1.447,1,4
274,0.345251,1.46,1,4
275,0.346731,1.481,1,4
276,0.348221,1.487,1,4
277,0.349691,1.478,1,4
278,0.351151,1.457,1,4
279,0.35261,1.456,1,4
280,0.35409,1.48,1,4
281,0.355581,1.497,1,4
282,0.357071,1.489,1,4
283,0.358541,1.471,1,4
284,0.360001,1.461,1,4
285,0.361481,1.478,1,4
286,0.36298,1.502,1,4
287,0.364491,1.504,1,4
288,0.365971,1.485,1,4
289,0.367441,1.472,1,4
290,0.368921,1.477,1,4
291,0.37042,1.502,1,4
292,0.371941,1.513,1,4
293,0.37344,1.506,1,4
294,0.374931,1.484,1,4
295,0.376411,1.48,1,4
296,0.377901,1.499,1,4
297,0.379421,1.516,1,4
298,0.380941,1.521,1,4
299,0.382441,1.502,1,4
300,0.38393,1.49,1,4
301,0.385431,1.496,1,4
302,0.386951,1.519,1,4
303,0.388481,1.529,1,4
304,0.390001,1.518,1,4
305,0.3915,1.503,1,4
306,0.393,1.504,1,4
307,0.39452,1.52,1,4
308,0.396061,1.537,1,4
309,0.397591,1.532,1,4
310,0.399111,1.515,1,4
311,0.400621,1.513,1,4
312,0.402151,1.527,1,4
313,0.40369,1.541,1,4
314,0.405231,1.542,1,4
315,0.40675,1.526,1,4
316,0.408281,1.52,1,4
317,0.409811,1.531,1,4
318,0.41136,1.551,1,4
319,0.41291,1.549,1,4
320,0.41444,1.535,1,4
321,0.41597,1.526,1,4
322,0.417501,1.535,1,4
323,0.41906,1.556,1,4
324,0.42062,1.561,1,4
325,0.422161,1.544,1,4
326,0.4237,1.533,1,4
327,0.425241,1.543,1,4
328,0.426801,1.562,1,4
329,0.42837,1.566,1,4
330,0.42992,1.555,1,4
331,0.431471,1.543,1,4
332,0.433021,1.549,1,4
333,0.434581,1.568,1,4
334,0.436151,1.571,1,4
335,0.437711,1.558,1,4
336,0.439271,1.552,1,4
337,0.440821,1.558,1,4
338,0.442401,1.572,1,4
339,0.443971,1.578,1,4
340,0.44554,1.564,1,4
341,0.44709,1.557,1,4
342,0.44867,1.571,1,4
343,0.450251,1.584,1,4
344,0.451831,1.582,1,4
345,0.453401,1.57,1,4
346,0.45497,1.568,1,4
347,0.456551,1.578,1,4
348,0.45814,1.593,1,4
349,0.45973,1.591,1,4
350,0.46131,1.578,1,4
351,0.462891,1.574,1,4
352,0.464471,1.587,1,4
353,0.466081,1.604,1,4
354,0.467681,1.603,1,4
355,0.469271,1.586,1,4
356,0.470851,1.583,1,4
357,0.47245,1.6,1,4
358,0.474061,1.614,1,4
359,0.47568,1.613,1,4
360,0.47727,1.598,1,4
361,0.47887,1.597,1,4
362,0.48048,1.611,1,4
363,0.482111,1.626,1,4
364,0.48373,1.623,1,4
365,0.48534,1.612,1,4
366,0.48696,1.612,1,4
367,0.488581,1.627,1,4
368,0.490221,1.639,1,4
369,0.491851,1.632,1,4
370,0.49347,1.621,1,4
371,0.495101,1.628,1,4
372,0.496751,1.645,1,4
373,0.498401,1.651,1,4
374,0.500041,1.644,1,4
375,0.50168,1.635,1,4
376,0.503321,1.644,1,4
377,0.50498,1.662,1,4
378,0.506651,1.665,1,4
379,0.508301,1.655,1,4
380,0.509951,1.65,1,4
381,0.511621,1.661,1,4
382,0.51329,1.677,1,4
383,0.514971,1.679,1,4
384,0.516641,1.67,1,4
385,0.518311,1.668,1,4
386,0.519991,1.678,1,4
387,0.521681,1.69,1,4
388,0.523371,1.694,1,4
389,0.525061,1.688,1,4
390,0.526751,1.688,1,4
391,0.52844,1.696,1,4
392,0.53015,1.703,1,4
393,0.531851,1.703,1,4
394,0.53355,1.706,1,4
395,0.535271,1.71,1,4
396,0.536981,1.713,1,4
397,0.538691,1.715,1,4
398,0.540411,1.715,1,4
399,0.54213,1.725,1,4
400,0.54386,1.73,1,4
401,0.54559,1.73,1,4
402,0.54732,1.728,1,4
403,0.54905,1.731,1,4
404,0.552541,1.747,1,4
405,0.554291,1.749,1,4
406,0.55603,1.744,1,4
407,0.55778,1.743,1,4
408,0.55953,1.753,1,4
409,0.561291,1.765,1,4
410,0.563061,1.766,1,4
411,0.56482,1.762,1,4
412,0.566581,1.761,1,4
413,0.568351,1.766,1,4
414,0.57013,1.779,1,4
415,0.571911,1.782,1,4
416,0.57369,1.78,1,4
417,0.575471,1.779,1,4
418,0.57725,1.786,1,4
419,0.58084,1.797,1,4
420,0.582641,1.798,1,4
421,0.586241,1.798,1,4
422,0.58804,1.8,1,4
423,0.591671,1.82,1,4
424,0.593491,1.821,1,4
425,0.595301,1.814,1,4
426,0.59712,1.814,1,4
427,0.598941,1.826,1,4
428,0.60078,1.836,1,4
429,0.604441,1.832,1,4
430,0.60628,1.834,1,4
431,0.608121,1.841,1,4
432,0.609961,1.848,1,4
433,0.61182,1.852,1,4
434,0.61367,1.849,1,4
435,0.61552,1.85,1,4
436,0.617371,1.856,1,4
437,0.619241,1.863,1,4
438,0.6211,1.864,1,4
439,0.622971,1.868,1,4
440,0.62483,1.867,1,4
441,0.6267,1.871,1,4
442,0.630461,1.881,1,4
443,0.63234,1.884,1,4
444,0.634231,1.882,1,4
445,0.63611,1.886,1,4
446,0.638,1.889,1,4
447,0.64179,1.897,1,4
448,0.64369,1.897,1,4
449,0.647491,1.906,1,4
450,0.649401,1.909,1,4
451,0.651311,1.91,1,4
452,0.653231,1.913,1,4
453,0.655141,1.918,1,4
454,0.657061,1.921,1,4
455,0.660911,1.925,1,4
456,0.662841,1.927,1,4
457,0.66477,1.933,1,4
458,0.666711,1.936,1,4
459,0.668651,1.937,1,4
460,0.67059,1.941,1,4
461,0.67253,1.943,1,4
462,0.674471,1.945,1,4
463,0.67642,1.948,1,4
464,0.678381,1.955,1,4
465,0.68033,1.957,1,4
466,0.682291,1.953,1,4
467,0.684251,1.96,1,4
468,0.686211,1.968,1,4
469,0.69015,1.966,1,4
470,0.692121,1.968,1,4
471,0.6941,1.983,1,4
472,0.698061,1.98,1,4
473,0.700041,1.979,1,4
474,0.702021,1.986,1,4
475,0.706011,1.992,1,4
476,0.708,1.992,1,4
477,0.710001,1.996,1,4
478,0.712001,2.002,1,4
479,0.71401,2.005,1,4
480,0.71601,2.011,1,4
481,0.720031,2.011,1,4
482,0.72204,2.011,1,4
483,0.724061,2.017,1,4
484,0.726081,2.023,1,4
485,0.728101,2.02,1,4
486,0.730121,2.021,1,4
487,0.732151,2.028,1,4
488,0.734191,2.033,1,4
489,0.73622,2.035,1,4
490,0.738251,2.032,1,4
491,0.740291,2.036,1,4
492,0.742331,2.044,1,4
493,0.744381,2.044,1,4
494,0.74847,2.049,1,4
495,0.750521,2.051,1,4
496,0.754621,2.053,1,4
497,0.75668,2.06,1,4
498,0.758751,2.061,1,4
499,0.762871,2.064,1,4
500,0.76494,2.07,1,4
501,0.767011,2.067,1,4
502,0.76908,2.069,1,4
503,0.771151,2.075,1,4
504,0.773231,2.079,1,4
505,0.777381,2.075,1,4
506,0.779461,2.082,1,4
507,0.78363,2.085,1,4
508,0.78363,2.083,1,4
509,0.785721,2.089,1,4
510,0.78781,2.095,1,4
511,0.789901,2.095,1,4
512,0.79199,2.091,1,4
513,0.794081,2.09,1,4
514,0.796181,2.095,1,4
515,0.798281,2.1,1,4
516,0.802481,2.097,1,4
517,0.804581,2.101,1,4
518,0.806681,2.105,1,4
519,0.80879,2.105,1,4
520,0.810901,2.109,1,4
521,0.81511,2.106,1,4
522,0.817221,2.112,1,4
523,0.819341,2.116,1,4
524,0.82357,2.113,1,4
525,0.825681,2.121,1,4
526,0.82993,2.125,1,4
527,0.82993,2.119,1,4
528,0.832041,2.12,1,4
529,0.83417,2.126,1,4
530,0.838421,2.128,1,4
531,0.84055,2.126,1,4
532,0.84267,2.13,1,4
533,0.846931,2.131,1,4
534,0.849071,2.132,1,4
535,0.8512,2.134,1,4
536,0.85334,2.136,1,4
537,0.855471,2.137,1,4
538,0.857611,2.137,1,4
539,0.859751,2.138,1,4
540,0.86188,2.137,1,4
541,0.86402,2.139,1,4
542,0.86616,2.141,1,4
543,0.868311,2.144,1,4
544,0.870451,2.141,1,4
545,0.874741,2.145,1,4
546,0.876881,2.145,1,4
547,0.87903,2.145,1,4
548,0.883321,2.149,1,4
549,0.887621,2.15,1,4
550,0.889771,2.147,1,4
551,0.89192,2.151,1,4
552,0.894071,2.152,1,4
553,0.89622,2.152,1,4
554,0.90052,2.15,1,4
555,0.90268,2.152,1,4
556,0.904831,2.153,1,4
557,0.906981,2.154,1,4
558,0.90913,2.152,1,4
559,0.911281,2.15,1,4
560,0.913441,2.152,1,4
561,0.91559,2.156,1,4
562,0.917741,2.15,1,4
563,0.922041,2.15,1,4
564,0.924191,2.152,1,4
565,0.924191,2.148,1,4
566,0.92634,2.148,1,4
567,0.928491,2.148,1,4
568,0.93278,2.148,1,4
569,0.934931,2.143,1,4
570,0.93922,2.147,1,4
571,0.94136,2.141,1,4
572,0.943501,2.14,1,4
573,0.947781,2.141,1,4
574,0.949921,2.136,1,4
575,0.95205,2.137,1,4
576,0.95419,2.136,1,4
577,0.956321,2.131,1,4
578,0.95845,2.132,1,4
579,0.96059,2.135,1,4
580,0.962721,2.132,1,4
581,0.964841,2.122,1,4
582,0.969101,2.131,1,4
583,0.971221,2.125,1,4
584,0.975451,2.116,1,4
585,0.975451,2.122,1,4
586,0.977571,2.116,1,4
587,0.979691,2.107,1,4
588,0.9818,2.107,1,4
589,0.983901,2.104,1,4
590,0.986011,2.112,1,4
591,0.988121,2.099,1,4
592,0.992321,2.099,1,4
593,0.994421,2.1,1,4
594,0.996511,2.095,1,4
595,0.99861,2.094,1,4
596,1.0007,2.093,1,4
597,1.00487,2.081,1,4
598,1.00695,2.083,1,4
599,1.00904,2.085,1,4
600,1.01318,2.069,1,4
601,1.01526,2.072,1,4
602,1.01733,2.068,1,4
603,1.0194,2.068,1,4
604,1.02146,2.059,1,4
605,1.02352,2.062,1,4
606,1.02558,2.062,1,4
607,1.02764,2.058,1,4
608,1.02969,2.048,1,4
609,1.03379,2.051,1,4
610,1.03788,2.04,1,4
611,1.03992,2.04,1,4
612,1.04196,2.041,1,4
613,1.04399,2.033,1,4
614,1.04602,2.031,1,4
615,1.04806,2.034,1,4
616,1.05008,2.027,1,4
617,1.05211,2.023,1,4
618,1.05413,2.021,1,4
619,1.05615,2.021,1,4
620,1.05817,2.019,1,4
621,1.06018,2.011,1,4
622,1.06219,2.01,1,4
623,1.0642,2.012,1,4
624,1.06821,2.002,1,4
625,1.07021,1.999,1,4
626,1.07222,2.003,1,4
627,1.07422,2.003,1,4
628,1.0782,1.988,1,4
629,1.08219,1.995,1,4
630,1.08418,1.989,1,4
631,1.08616,1.985,1,4
632,1.08815,1.983,1,4
633,1.09013,1.985,1,4
634,1.09211,1.983,1,4
635,1.09409,1.98,1,4
636,1.09607,1.978,1,4
637,1.10003,1.976,1,4
638,1.102,1.974,1,4
639,1.10398,1.976,1,4
640,1.10594,1.969,1,4
641,1.10791,1.969,1,4
642,1.10988,1.971,1,4
643,1.11186,1.972,1,4
644,1.11382,1.967,1,4
645,1.11578,1.961,1,4
646,1.11775,1.965,1,4
647,1.11972,1.971,1,4
648,1.12169,1.966,1,4
649,1.12364,1.956,1,4
650,1.12757,1.966,1,4
651,1.12953,1.964,1,4
652,1.13149,1.956,1,4
653,1.13344,1.955,1,4
654,1.13736,1.961,1,4
655,1.13932,1.958,1,4
656,1.14323,1.958,1,4
657,1.14519,1.957,1,4
658,1.14715,1.955,1,4
659,1.1491,1.959,1,4
660,1.15107,1.961,1,4
661,1.15302,1.954,1,4
662,1.15693,1.959,1,4
663,1.15889,1.962,1,4
664,1.16085,1.959,1,4
665,1.1628,1.952,1,4
666,1.16476,1.958,1,4
667,1.16673,1.964,1,4
668,1.16869,1.963,1,4
669,1.17065,1.958,1,4
670,1.1726,1.956,1,4
671,1.17457,1.964,1,4
672,1.17653,1.963,1,4
673,1.17849,1.96,1,4
674,1.18045,1.963,1,4
675,1.18242,1.964,1,4
676,1.18634,1.963,1,4
677,1.18831,1.968,1,4
678,1.19224,1.966,1,4
679,1.19421,1.965,1,4
680,1.19815,1.974,1,4
681,1.20012,1.968,1,4
682,1.20209,1.967,1,4
683,1.20406,1.974,1,4
684,1.20604,1.976,1,4
685,1.20998,1.97,1,4
686,1.21196,1.976,1,4
687,1.21394,1.98,1,4
688,1.21592,1.979,1,4
689,1.21789,1.975,1,4
690,1.21987,1.978,1,4
691,1.22186,1.984,1,4
692,1.22384,1.984,1,4
693,1.22582,1.981,1,4
694,1.2278,1.982,1,4
695,1.22979,1.986,1,4
696,1.23177,1.987,1,4
697,1.23376,1.988,1,4
698,1.23575,1.987,1,4
699,1.23973,1.991,1,4
700,1.24172,1.991,1,4
701,1.24372,1.996,1,4
702,1.24771,1.994,1,4
703,1.2497,1.996,1,4
704,1.25371,2.003,1,4
705,1.25571,2,1,4
706,1.25771,1.998,1,4
707,1.25972,2.009,1,4
708,1.26173,2.011,1,4
709,1.26373,2.002,1,4
710,1.26774,2.011,1,4
711,1.26976,2.018,1,4
712,1.27178,2.014,1,4
713,1.27379,2.012,1,4
714,1.2758,2.016,1,4
715,1.27782,2.021,1,4
716,1.27984,2.02,1,4
717,1.28187,2.024,1,4
718,1.28389,2.024,1,4
719,1.28591,2.021,1,4
720,1.28794,2.025,1,4
721,1.28997,2.031,1,4
722,1.292,2.031,1,4
723,1.29606,2.029,1,4
724,1.30014,2.044,1,4
725,1.30218,2.039,1,4
726,1.30422,2.037,1,4
727,1.30831,2.049,1,4
728,1.31036,2.049,1,4
729,1.3124,2.044,1,4
730,1.31446,2.053,1,4
731,1.31651,2.059,1,4
732,1.31857,2.054,1,4
733,1.32268,2.062,1,4
734,1.32475,2.067,1,4
735,1.32682,2.067,1,4
736,1.32888,2.07,1,4
737,1.33095,2.075,1,4
738,1.33303,2.071,1,4
739,1.33718,2.077,1,4
740,1.33926,2.081,1,4
741,1.34134,2.08,1,4
742,1.34342,2.079,1,4
743,1.3455,2.087,1,4
744,1.34759,2.091,1,4
745,1.34968,2.089,1,4
746,1.35177,2.09,1,4
747,1.35387,2.096,1,4
748,1.35807,2.099,1,4
749,1.36017,2.098,1,4
750,1.36438,2.109,1,4
751,1.36649,2.111,1,4
752,1.37072,2.115,1,4
753,1.37284,2.118,1,4
754,1.37496,2.121,1,4
755,1.37709,2.126,1,4
756,1.37921,2.127,1,4
757,1.38134,2.129,1,4
758,1.38561,2.137,1,4
759,1.38775,2.138,1,4
760,1.39203,2.144,1,4
761,1.39203,2.148,1,4
762,1.39418,2.149,1,4
763,1.39633,2.149,1,4
764,1.39848,2.15,1,4
765,1.40064,2.157,1,4
766,1.4028,2.159,1,4
767,1.40711,2.159,1,4
768,1.40928,2.168,1,4
769,1.41145,2.17,1,4
770,1.41362,2.169,1,4
771,1.41579,2.175,1,4
772,1.42015,2.178,1,4
773,1.42233,2.18,1,4
774,1.42451,2.185,1,4
775,1.42888,2.186,1,4
776,1.43327,2.197,1,4
777,1.43546,2.196,1,4
778,1.43766,2.198,1,4
779,1.43986,2.201,1,4
780,1.44207,2.205,1,4
781,1.44427,2.208,1,4
782,1.4487,2.214,1,4
783,1.45091,2.216,1,4
784,1.45313,2.215,1,4
785,1.45534,2.217,1,4
786,1.45757,2.223,1,4
787,1.45979,2.226,1,4
788,1.46202,2.227,1,4
789,1.46425,2.228,1,4
790,1.46648,2.23,1,4
791,1.46871,2.234,1,4
792,1.47095,2.237,1,4
793,1.47319,2.24,1,4
794,1.47767,2.242,1,4
795,1.47992,2.248,1,4
796,1.48442,2.248,1,4
797,1.48667,2.254,1,4
798,1.48893,2.258,1,4
799,1.49344,2.259,1,4
800,1.49571,2.263,1,4
801,1.49797,2.262,1,4
802,1.50024,2.267,1,4
803,1.5025,2.267,1,4
804,1.50478,2.273,1,4
805,1.50705,2.277,1,4
806,1.5116,2.277,1,4
807,1.51388,2.279,1,4
808,1.51616,2.28,1,4
809,1.51845,2.287,1,4
810,1.52074,2.287,1,4
811,1.52302,2.286,1,4
812,1.52531,2.289,1,4
813,1.52761,2.295,1,4
814,1.5299,2.294,1,4
815,1.53219,2.301,1,4
816,1.5368,2.302,1,4
817,1.53909,2.299,1,4
818,1.5414,2.303,1,4
819,1.54601,2.307,1,4
820,1.54832,2.308,1,4
821,1.55063,2.31,1,4
822,1.55526,2.315,1,4
823,1.55758,2.318,1,4
824,1.56221,2.319,1,4
825,1.56453,2.321,1,4
826,1.56686,2.327,1,4
827,1.56918,2.321,1,4
828,1.57151,2.325,1,4
829,1.57617,2.329,1,4
830,1.5785,2.329,1,4
831,1.58083,2.332,1,4
832,1.58316,2.337,1,4
833,1.5855,2.339,1,4
834,1.58783,2.338,1,4
835,1.59017,2.338,1,4
836,1.59251,2.342,1,4
837,1.59485,2.339,1,4
838,1.5972,2.344,1,4
839,1.59954,2.345,1,4
840,1.60189,2.346,1,4
841,1.60658,2.348,1,4
842,1.60893,2.349,1,4
843,1.61364,2.352,1,4
844,1.61599,2.354,1,4
845,1.62071,2.362,1,4
846,1.62306,2.358,1,4
847,1.62542,2.357,1,4
848,1.62778,2.359,1,4
849,1.63015,2.365,1,4
850,1.63251,2.363,1,4
851,1.63724,2.369,1,4
852,1.6396,2.369,1,4
853,1.64434,2.368,1,4
854,1.64671,2.373,1,4
855,1.64909,2.371,1,4
856,1.65146,2.373,1,4
857,1.65383,2.376,1,4
858,1.65621,2.373,1,4
859,1.65859,2.38,1,4
860,1.66097,2.38,1,4
861,1.66334,2.378,1,4
862,1.66573,2.383,1,4
863,1.66811,2.385,1,4
864,1.6705,2.386,1,4
865,1.67527,2.385,1,4
866,1.67766,2.392,1,4
867,1.68006,2.393,1,4
868,1.68484,2.398,1,4
869,1.68724,2.399,1,4
870,1.69204,2.399,1,4
871,1.69444,2.406,1,4
872,1.69684,2.402,1,4
873,1.69925,2.403,1,4
874,1.70166,2.409,1,4
875,1.70648,2.409,1,4
876,1.70889,2.412,1,4
877,1.7113,2.415,1,4
878,1.71372,2.415,1,4
879,1.71614,2.418,1,4
880,1.71856,2.422,1,4
881,1.7234,2.424,1,4
882,1.72583,2.423,1,4
883,1.72825,2.423,1,4
884,1.73068,2.431,1,4
885,1.73311,2.433,1,4
886,1.73555,2.432,1,4
887,1.73797,2.428,1,4
888,1.74284,2.438,1,4
889,1.74528,2.439,1,4
890,1.75016,2.438,1,4
891,1.7526,2.439,1,4
892,1.75749,2.445,1,4
893,1.75993,2.446,1,4
894,1.76238,2.445,1,4
895,1.76482,2.444,1,4
896,1.76727,2.444,1,4
897,1.76971,2.449,1,4
