cnt,pos,speed,Dir,Force,
1,0,1.005,1,4
2,0.00101089,1.012,1,4
3,0.00202084,1.006,1,4
4,0.00301075,0.997,1,4
5,0.00402069,1.002,1,4
6,0.00503063,1.018,1,4
7,0.0060606,1.023,1,4
8,0.00707054,1.016,1,4
9,0.00808048,1.02,1,4
10,0.00910091,1.036,1,4
11,0.0101404,1.036,1,4
12,0.0111809,1.042,1,4
13,0.0122108,1.033,1,4
14,0.0132303,1.021,1,4
15,0.0142708,1.031,1,4
16,0.0153208,1.049,1,4
17,0.0163708,1.049,1,4
18,0.0174208,1.041,1,4
19,0.0195103,1.052,1,4
20,0.0205708,1.062,1,4
21,0.0216408,1.065,1,4
22,0.0216408,1.058,1,4
23,0.0227003,1.057,1,4
24,0.0237503,1.067,1,4
25,0.0248203,1.077,1,4
26,0.0259008,1.08,1,4
27,0.0280504,1.075,1,4
28,0.0291309,1.075,1,4
29,0.0302105,1.078,1,4
30,0.0312901,1.085,1,4
31,0.0323801,1.092,1,4
32,0.0334806,1.094,1,4
33,0.0345707,1.094,1,4
34,0.0356703,1.094,1,4
35,0.0367603,1.095,1,4
36,0.0378704,1.104,1,4
37,0.0389805,1.11,1,4
38,0.0400906,1.11,1,4
39,0.0411901,1.107,1,4
40,0.0423002,1.112,1,4
41,0.0434208,1.121,1,4
42,0.0445509,1.126,1,4
43,0.0456705,1.119,1,4
44,0.0467901,1.118,1,4
45,0.0479107,1.127,1,4
46,0.0490503,1.14,1,4
47,0.0502005,1.142,1,4
48,0.0513306,1.135,1,4
49,0.0524607,1.131,1,4
50,0.0536003,1.139,1,4
51,0.0547504,1.146,1,4
52,0.0559006,1.152,1,4
53,0.0570602,1.156,1,4
54,0.0582104,1.156,1,4
55,0.0593605,1.152,1,4
56,0.0605202,1.154,1,4
57,0.0616808,1.159,1,4
58,0.0628405,1.168,1,4
59,0.0640202,1.171,1,4
60,0.0651808,1.169,1,4
61,0.0663605,1.172,1,4
62,0.0675306,1.178,1,4
63,0.0687103,1.177,1,4
64,0.06989,1.176,1,4
65,0.0710707,1.18,1,4
66,0.0722609,1.191,1,4
67,0.0734501,1.196,1,4
68,0.0746508,1.192,1,4
69,0.07584,1.19,1,4
70,0.0770302,1.193,1,4
71,0.0782309,1.197,1,4
72,0.0794306,1.205,1,4
73,0.0806408,1.212,1,4
74,0.0818605,1.212,1,4
75,0.0830603,1.207,1,4
76,0.0842705,1.205,1,4
77,0.0854807,1.21,1,4
78,0.0867004,1.222,1,4
79,0.0879307,1.227,1,4
80,0.0891504,1.225,1,4
81,0.0903702,1.223,1,4
82,0.0916004,1.222,1,4
83,0.0928202,1.226,1,4
84,0.0940504,1.23,1,4
85,0.0952902,1.243,1,4
86,0.0965405,1.244,1,4
87,0.0977802,1.241,1,4
88,0.0990105,1.233,1,4
89,0.10025,1.241,1,4
90,0.101501,1.246,1,4
91,0.10276,1.256,1,4
92,0.104011,1.257,1,4
93,0.10527,1.257,1,4
94,0.106521,1.252,1,4
95,0.107771,1.252,1,4
96,0.109031,1.26,1,4
97,0.1103,1.269,1,4
98,0.11157,1.272,1,4
99,0.112841,1.267,1,4
100,0.11411,1.266,1,4
101,0.11538,1.27,1,4
102,0.116651,1.273,1,4
103,0.11793,1.279,1,4
104,0.11921,1.283,1,4
105,0.120501,1.283,1,4
106,0.12178,1.282,1,4
107,0.12306,1.283,1,4
108,0.124351,1.289,1,4
109,0.125641,1.291,1,4
110,0.12693,1.292,1,4
111,0.12823,1.298,1,4
112,0.129531,1.3,1,4
113,0.130831,1.296,1,4
114,0.13212,1.298,1,4
115,0.13343,1.304,1,4
116,0.134741,1.31,1,4
117,0.13605,1.314,1,4
118,0.137361,1.311,1,4
119,0.13868,1.311,1,4
120,0.13998,1.307,1,4
121,0.1413,1.314,1,4
122,0.14262,1.325,1,4
123,0.14395,1.33,1,4
124,0.14527,1.323,1,4
125,0.14659,1.316,1,4
126,0.14791,1.322,1,4
127,0.14924,1.33,1,4
128,0.15058,1.339,1,4
129,0.15192,1.341,1,4
130,0.15326,1.336,1,4
131,0.154591,1.329,1,4
132,0.15592,1.335,1,4
133,0.15727,1.346,1,4
134,0.158621,1.353,1,4
135,0.15997,1.352,1,4
136,0.161321,1.349,1,4
137,0.16267,1.348,1,4
138,0.164021,1.349,1,4
139,0.16538,1.357,1,4
140,0.16674,1.367,1,4
141,0.168111,1.365,1,4
142,0.169471,1.359,1,4
143,0.170831,1.361,1,4
144,0.172191,1.366,1,4
145,0.173571,1.373,1,4
146,0.17494,1.378,1,4
147,0.17632,1.378,1,4
148,0.177691,1.373,1,4
149,0.17907,1.375,1,4
150,0.18045,1.382,1,4
151,0.181841,1.392,1,4
152,0.18323,1.391,1,4
153,0.18463,1.392,1,4
154,0.186021,1.39,1,4
155,0.18741,1.391,1,4
156,0.18881,1.398,1,4
157,0.19021,1.408,1,4
158,0.191621,1.408,1,4
159,0.19303,1.405,1,4
160,0.19443,1.403,1,4
161,0.19583,1.406,1,4
162,0.19725,1.415,1,4
163,0.19867,1.421,1,4
164,0.200101,1.427,1,4
165,0.20151,1.417,1,4
166,0.20293,1.414,1,4
167,0.20435,1.422,1,4
168,0.20578,1.433,1,4
169,0.20722,1.44,1,4
170,0.20866,1.437,1,4
171,0.210091,1.429,1,4
172,0.21152,1.428,1,4
173,0.21296,1.441,1,4
174,0.21442,1.456,1,4
175,0.215871,1.455,1,4
176,0.217311,1.445,1,4
177,0.21876,1.441,1,4
178,0.22021,1.45,1,4
179,0.22167,1.466,1,4
180,0.223141,1.471,1,4
181,0.224601,1.458,1,4
182,0.22605,1.45,1,4
183,0.22751,1.46,1,4
184,0.22898,1.474,1,4
185,0.230471,1.483,1,4
186,0.23194,1.474,1,4
187,0.2334,1.463,1,4
188,0.234871,1.465,1,4
189,0.236361,1.486,1,4
190,0.23785,1.496,1,4
191,0.239341,1.491,1,4
192,0.240821,1.479,1,4
193,0.24229,1.474,1,4
194,0.243791,1.491,1,4
195,0.245291,1.506,1,4
196,0.2468,1.508,1,4
197,0.248301,1.495,1,4
198,0.249781,1.484,1,4
199,0.251281,1.497,1,4
200,0.25279,1.513,1,4
201,0.254311,1.52,1,4
202,0.25582,1.511,1,4
203,0.25732,1.499,1,4
204,0.258821,1.501,1,4
205,0.260341,1.519,1,4
206,0.26187,1.532,1,4
207,0.2634,1.524,1,4
208,0.264911,1.512,1,4
209,0.26642,1.511,1,4
210,0.26795,1.526,1,4
211,0.26949,1.541,1,4
212,0.27103,1.537,1,4
213,0.272551,1.524,1,4
214,0.274071,1.518,1,4
215,0.2756,1.535,1,4
216,0.27715,1.548,1,4
217,0.278701,1.549,1,4
218,0.280231,1.535,1,4
219,0.28176,1.525,1,4
220,0.2833,1.538,1,4
221,0.28485,1.555,1,4
222,0.28641,1.559,1,4
223,0.287951,1.545,1,4
224,0.289491,1.534,1,4
225,0.291031,1.543,1,4
226,0.29259,1.559,1,4
227,0.294161,1.571,1,4
228,0.29572,1.558,1,4
229,0.29726,1.54,1,4
230,0.29881,1.549,1,4
231,0.30037,1.562,1,4
232,0.301941,1.574,1,4
233,0.30352,1.572,1,4
234,0.305071,1.554,1,4
235,0.306621,1.551,1,4
236,0.30819,1.569,1,4
237,0.309771,1.579,1,4
238,0.311351,1.569,1,4
239,0.312921,1.561,1,4
240,0.314481,1.561,1,4
241,0.316051,1.571,1,4
242,0.31764,1.588,1,4
243,0.319221,1.587,1,4
244,0.320801,1.574,1,4
245,0.322371,1.57,1,4
246,0.323951,1.581,1,4
247,0.32713,1.594,1,4
248,0.328711,1.58,1,4
249,0.330291,1.578,1,4
250,0.331881,1.588,1,4
251,0.333481,1.599,1,4
252,0.335071,1.596,1,4
253,0.33666,1.589,1,4
254,0.33825,1.583,1,4
255,0.339841,1.593,1,4
256,0.34144,1.605,1,4
257,0.34305,1.604,1,4
258,0.344641,1.594,1,4
259,0.346231,1.587,1,4
260,0.34782,1.594,1,4
261,0.34943,1.607,1,4
262,0.351041,1.611,1,4
263,0.35264,1.601,1,4
264,0.35424,1.593,1,4
265,0.35583,1.598,1,4
266,0.35744,1.606,1,4
267,0.35906,1.615,1,4
268,0.360661,1.608,1,4
269,0.362261,1.598,1,4
270,0.36386,1.6,1,4
271,0.365471,1.61,1,4
272,0.367081,1.613,1,4
273,0.3687,1.611,1,4
274,0.3703,1.606,1,4
275,0.37191,1.606,1,4
276,0.373521,1.614,1,4
277,0.375131,1.612,1,4
278,0.37674,1.609,1,4
279,0.37835,1.611,1,4
280,0.379971,1.615,1,4
281,0.38158,1.616,1,4
282,0.383201,1.614,1,4
283,0.38481,1.607,1,4
284,0.38642,1.612,1,4
285,0.388041,1.622,1,4
286,0.389661,1.623,1,4
287,0.39128,1.615,1,4
288,0.392891,1.609,1,4
289,0.394501,1.612,1,4
290,0.39612,1.62,1,4
291,0.397751,1.626,1,4
292,0.39937,1.62,1,4
293,0.40098,1.61,1,4
294,0.402591,1.612,1,4
295,0.40421,1.621,1,4
296,0.40583,1.626,1,4
297,0.40907,1.613,1,4
298,0.410681,1.614,1,4
299,0.410681,1.622,1,4
300,0.4123,1.628,1,4
301,0.413931,1.628,1,4
302,0.41555,1.623,1,4
303,0.417171,1.618,1,4
304,0.418791,1.615,1,4
305,0.42041,1.627,1,4
306,0.42366,1.621,1,4
307,0.425281,1.616,1,4
308,0.42689,1.619,1,4
309,0.42852,1.623,1,4
310,0.43014,1.622,1,4
311,0.431761,1.618,1,4
312,0.433371,1.617,1,4
313,0.435,1.624,1,4
314,0.436621,1.625,1,4
315,0.43824,1.621,1,4
316,0.43986,1.615,1,4
317,0.441481,1.617,1,4
318,0.443101,1.623,1,4
319,0.444731,1.627,1,4
320,0.446341,1.62,1,4
321,0.447961,1.615,1,4
322,0.44958,1.616,1,4
323,0.4512,1.623,1,4
324,0.452821,1.625,1,4
325,0.454451,1.622,1,4
326,0.45606,1.613,1,4
327,0.45767,1.614,1,4
328,0.4593,1.624,1,4
329,0.46092,1.625,1,4
330,0.462541,1.62,1,4
331,0.464161,1.615,1,4
332,0.46578,1.618,1,4
333,0.467401,1.625,1,4
334,0.46903,1.625,1,4
335,0.47064,1.618,1,4
336,0.47226,1.618,1,4
337,0.47389,1.624,1,4
338,0.475511,1.628,1,4
339,0.47714,1.623,1,4
340,0.47875,1.617,1,4
341,0.480371,1.616,1,4
342,0.482,1.628,1,4
343,0.48363,1.632,1,4
344,0.48525,1.625,1,4
345,0.486871,1.617,1,4
346,0.48849,1.62,1,4
347,0.490121,1.63,1,4
348,0.49176,1.638,1,4
349,0.49339,1.629,1,4
350,0.49501,1.617,1,4
351,0.496631,1.623,1,4
352,0.49826,1.635,1,4
353,0.49991,1.643,1,4
354,0.50154,1.635,1,4
355,0.50317,1.623,1,4
356,0.50479,1.627,1,4
357,0.50644,1.644,1,4
358,0.50808,1.647,1,4
359,0.509721,1.637,1,4
360,0.511351,1.629,1,4
361,0.51298,1.635,1,4
362,0.514641,1.651,1,4
363,0.516291,1.653,1,4
364,0.51793,1.639,1,4
365,0.51957,1.651,1,4
366,0.522881,1.66,1,4
367,0.52453,1.656,1,4
368,0.52453,1.645,1,4
369,0.52618,1.65,1,4
370,0.52783,1.65,1,4
371,0.52949,1.666,1,4
372,0.53116,1.67,1,4
373,0.532821,1.658,1,4
374,0.534471,1.664,1,4
375,0.537821,1.679,1,4
376,0.5395,1.677,1,4
377,0.541161,1.663,1,4
378,0.542821,1.665,1,4
379,0.5445,1.682,1,4
380,0.54619,1.69,1,4
381,0.54788,1.681,1,4
382,0.54955,1.672,1,4
383,0.55123,1.679,1,4
384,0.55292,1.696,1,4
385,0.55463,1.701,1,4
386,0.556311,1.69,1,4
387,0.558001,1.686,1,4
388,0.5597,1.697,1,4
389,0.561411,1.711,1,4
390,0.563121,1.712,1,4
391,0.56482,1.695,1,4
392,0.56651,1.697,1,4
393,0.568231,1.717,1,4
394,0.569961,1.72,1,4
395,0.57338,1.706,1,4
396,0.575101,1.715,1,4
397,0.57684,1.738,1,4
398,0.578581,1.743,1,4
399,0.580311,1.728,1,4
400,0.58203,1.722,1,4
401,0.58376,1.735,1,4
402,0.585521,1.757,1,4
403,0.589021,1.74,1,4
404,0.59076,1.758,1,4
405,0.594291,1.771,1,4
406,0.59605,1.768,1,4
407,0.59605,1.759,1,4
408,0.597811,1.761,1,4
409,0.59957,1.761,1,4
410,0.601351,1.776,1,4
411,0.60313,1.784,1,4
412,0.60492,1.784,1,4
413,0.606701,1.78,1,4
414,0.60848,1.784,1,4
415,0.61028,1.795,1,4
416,0.61207,1.798,1,4
417,0.61388,1.802,1,4
418,0.615681,1.805,1,4
419,0.619301,1.81,1,4
420,0.621111,1.814,1,4
421,0.624761,1.828,1,4
422,0.626591,1.828,1,4
423,0.628421,1.827,1,4
424,0.630251,1.829,1,4
425,0.633941,1.851,1,4
426,0.635791,1.851,1,4
427,0.63763,1.844,1,4
428,0.639481,1.848,1,4
429,0.64134,1.86,1,4
430,0.64321,1.872,1,4
431,0.645081,1.872,1,4
432,0.646951,1.866,1,4
433,0.648821,1.866,1,4
434,0.650701,1.889,1,4
435,0.65258,1.891,1,4
436,0.65447,1.889,1,4
437,0.656361,1.889,1,4
438,0.658251,1.886,1,4
439,0.660151,1.896,1,4
440,0.66205,1.909,1,4
441,0.66397,1.912,1,4
442,0.667781,1.909,1,4
443,0.671631,1.927,1,4
444,0.67356,1.933,1,4
445,0.67549,1.933,1,4
446,0.677421,1.928,1,4
447,0.679351,1.935,1,4
448,0.6813,1.947,1,4
449,0.683261,1.954,1,4
450,0.68716,1.952,1,4
451,0.68912,1.956,1,4
452,0.69108,1.966,1,4
453,0.69503,1.976,1,4
454,0.697001,1.972,1,4
455,0.69898,1.976,1,4
456,0.700971,1.986,1,4
457,0.70296,1.994,1,4
458,0.704961,1.997,1,4
459,0.70695,1.991,1,4
460,0.708941,1.994,1,4
461,0.710951,2.008,1,4
462,0.712971,2.016,1,4
463,0.71498,2.01,1,4
464,0.71699,2.01,1,4
465,0.71901,2.021,1,4
466,0.721041,2.03,1,4
467,0.725101,2.028,1,4
468,0.727131,2.034,1,4
469,0.72918,2.044,1,4
470,0.73122,2.047,1,4
471,0.73532,2.052,1,4
472,0.73738,2.056,1,4
473,0.739441,2.062,1,4
474,0.74357,2.07,1,4
475,0.745641,2.068,1,4
476,0.747721,2.077,1,4
477,0.74981,2.086,1,4
478,0.751901,2.091,1,4
479,0.753981,2.082,1,4
480,0.75607,2.092,1,4
481,0.75817,2.103,1,4
482,0.760281,2.106,1,4
483,0.762381,2.103,1,4
484,0.76449,2.105,1,4
485,0.76661,2.119,1,4
486,0.76873,2.121,1,4
487,0.77085,2.118,1,4
488,0.77297,2.123,1,4
489,0.775101,2.134,1,4
490,0.77937,2.136,1,4
491,0.783661,2.148,1,4
492,0.78581,2.149,1,4
493,0.787971,2.155,1,4
494,0.790131,2.161,1,4
495,0.792291,2.161,1,4
496,0.794451,2.163,1,4
497,0.79662,2.171,1,4
498,0.800981,2.177,1,4
499,0.803161,2.179,1,4
500,0.80535,2.188,1,4
501,0.807541,2.193,1,4
502,0.809731,2.197,1,4
503,0.811931,2.197,1,4
504,0.81414,2.206,1,4
505,0.81635,2.209,1,4
506,0.81855,2.208,1,4
507,0.82077,2.215,1,4
508,0.82299,2.224,1,4
509,0.82522,2.224,1,4
510,0.82744,2.232,1,4
511,0.83191,2.238,1,4
512,0.83415,2.239,1,4
513,0.8364,2.244,1,4
514,0.838651,2.249,1,4
515,0.84315,2.253,1,4
516,0.84541,2.262,1,4
517,0.84768,2.265,1,4
518,0.84994,2.265,1,4
519,0.85221,2.27,1,4
520,0.85449,2.277,1,4
521,0.859051,2.281,1,4
522,0.86133,2.286,1,4
523,0.863621,2.291,1,4
524,0.865911,2.293,1,4
525,0.87051,2.302,1,4
526,0.872821,2.306,1,4
527,0.87512,2.304,1,4
528,0.877431,2.309,1,4
529,0.879741,2.315,1,4
530,0.88206,2.314,1,4
531,0.88438,2.324,1,4
532,0.886701,2.323,1,4
533,0.88903,2.325,1,4
534,0.89136,2.329,1,4
535,0.89369,2.333,1,4
536,0.89603,2.336,1,4
537,0.90071,2.344,1,4
538,0.90305,2.341,1,4
539,0.905391,2.348,1,4
540,0.907741,2.348,1,4
541,0.9101,2.358,1,4
542,0.912451,2.35,1,4
543,0.914801,2.355,1,4
544,0.91952,2.362,1,4
545,0.92424,2.365,1,4
546,0.92661,2.366,1,4
547,0.928981,2.366,1,4
548,0.931351,2.371,1,4
549,0.933721,2.371,1,4
550,0.93609,2.372,1,4
551,0.93846,2.374,1,4
552,0.940841,2.377,1,4
553,0.94322,2.377,1,4
554,0.945601,2.378,1,4
555,0.947981,2.382,1,4
556,0.95036,2.382,1,4
557,0.952741,2.381,1,4
558,0.955131,2.387,1,4
559,0.95751,2.384,1,4
560,0.962291,2.387,1,4
561,0.964681,2.389,1,4
562,0.967071,2.39,1,4
563,0.96946,2.392,1,4
564,0.97185,2.392,1,4
565,0.97424,2.394,1,4
566,0.979031,2.394,1,4
567,0.981421,2.396,1,4
568,0.98622,2.397,1,4
569,0.988621,2.398,1,4
570,0.991011,2.394,1,4
571,0.993401,2.395,1,4
572,0.9958,2.398,1,4
573,0.9982,2.397,1,4
574,1.00059,2.394,1,4
575,1.00299,2.396,1,4
576,1.00538,2.396,1,4
577,1.00778,2.39,1,4
578,1.01017,2.396,1,4
579,1.01257,2.396,1,4
580,1.01496,2.39,1,4
581,1.01735,2.388,1,4
582,1.01974,2.393,1,4
583,1.02213,2.388,1,4
584,1.0269,2.387,1,4
585,1.02928,2.382,1,4
586,1.03405,2.384,1,4
587,1.03643,2.38,1,4
588,1.03881,2.379,1,4
589,1.04118,2.375,1,4
590,1.04356,2.375,1,4
591,1.04593,2.373,1,4
592,1.05067,2.373,1,4
593,1.05304,2.364,1,4
594,1.0554,2.361,1,4
595,1.05776,2.362,1,4
596,1.06012,2.361,1,4
597,1.06248,2.357,1,4
598,1.06483,2.354,1,4
599,1.06719,2.352,1,4
600,1.06953,2.346,1,4
601,1.07188,2.351,1,4
602,1.07423,2.345,1,4
603,1.07657,2.34,1,4
604,1.0789,2.335,1,4
605,1.08124,2.339,1,4
606,1.08591,2.33,1,4
607,1.08823,2.328,1,4
608,1.09056,2.326,1,4
609,1.0952,2.32,1,4
610,1.09752,2.319,1,4
611,1.09983,2.314,1,4
612,1.10214,2.305,1,4
613,1.10445,2.311,1,4
614,1.10906,2.301,1,4
615,1.11136,2.298,1,4
616,1.11365,2.292,1,4
617,1.11595,2.291,1,4
618,1.11824,2.291,1,4
619,1.12052,2.288,1,4
620,1.12281,2.282,1,4
621,1.12509,2.279,1,4
622,1.12736,2.279,1,4
623,1.12964,2.266,1,4
624,1.13417,2.264,1,4
625,1.13644,2.267,1,4
626,1.1387,2.262,1,4
627,1.14095,2.255,1,4
628,1.14321,2.254,1,4
629,1.14546,2.252,1,4
630,1.14771,2.246,1,4
631,1.14995,2.243,1,4
632,1.15443,2.239,1,4
633,1.15666,2.234,1,4
634,1.16112,2.229,1,4
635,1.16112,2.226,1,4
636,1.16335,2.226,1,4
637,1.1678,2.224,1,4
638,1.17002,2.214,1,4
639,1.17444,2.214,1,4
640,1.17665,2.211,1,4
641,1.17886,2.205,1,4
642,1.18106,2.204,1,4
643,1.18327,2.202,1,4
644,1.18546,2.198,1,4
645,1.18766,2.193,1,4
646,1.18985,2.195,1,4
647,1.19204,2.192,1,4
648,1.19423,2.185,1,4
649,1.19641,2.181,1,4
650,1.19859,2.182,1,4
651,1.20077,2.18,1,4
652,1.20295,2.175,1,4
653,1.20512,2.169,1,4
654,1.20945,2.167,1,4
655,1.21162,2.163,1,4
656,1.21378,2.164,1,4
657,1.21594,2.158,1,4
658,1.21809,2.151,1,4
659,1.22024,2.154,1,4
660,1.2224,2.157,1,4
661,1.22669,2.144,1,4
662,1.23099,2.146,1,4
663,1.23313,2.14,1,4
664,1.23526,2.137,1,4
665,1.23741,2.141,1,4
666,1.23955,2.14,1,4
667,1.24168,2.136,1,4
668,1.24381,2.131,1,4
669,1.24595,2.136,1,4
670,1.24808,2.133,1,4
671,1.25021,2.131,1,4
672,1.25234,2.13,1,4
673,1.25447,2.129,1,4
674,1.2566,2.13,1,4
675,1.25873,2.129,1,4
676,1.26086,2.132,1,4
677,1.26299,2.132,1,4
678,1.26512,2.13,1,4
679,1.26939,2.133,1,4
680,1.27152,2.134,1,4
681,1.27365,2.131,1,4
682,1.27578,2.135,1,4
683,1.28005,2.133,1,4
684,1.28219,2.134,1,4
685,1.28432,2.137,1,4
686,1.28646,2.137,1,4
687,1.2886,2.137,1,4
688,1.29073,2.137,1,4
689,1.29502,2.142,1,4
690,1.29716,2.144,1,4
691,1.2993,2.144,1,4
692,1.3036,2.148,1,4
693,1.3036,2.15,1,4
694,1.30575,2.151,1,4
695,1.3079,2.151,1,4
696,1.31005,2.152,1,4
697,1.3122,2.153,1,4
698,1.31436,2.157,1,4
699,1.31652,2.16,1,4
700,1.31868,2.159,1,4
701,1.323,2.164,1,4
702,1.32517,2.17,1,4
703,1.32734,2.169,1,4
704,1.32951,2.167,1,4
705,1.33168,2.173,1,4
706,1.33386,2.178,1,4
707,1.33821,2.176,1,4
708,1.3404,2.184,1,4
709,1.34258,2.187,1,4
710,1.34477,2.186,1,4
711,1.34696,2.189,1,4
712,1.34915,2.193,1,4
713,1.35135,2.195,1,4
714,1.35354,2.198,1,4
715,1.35795,2.203,1,4
716,1.36015,2.205,1,4
717,1.36237,2.215,1,4
718,1.3668,2.214,1,4
719,1.36901,2.219,1,4
720,1.37124,2.224,1,4
721,1.37347,2.227,1,4
722,1.37569,2.228,1,4
723,1.37793,2.234,1,4
724,1.38016,2.238,1,4
725,1.3824,2.239,1,4
726,1.38465,2.243,1,4
727,1.3869,2.248,1,4
728,1.38915,2.252,1,4
729,1.3914,2.252,1,4
730,1.39366,2.257,1,4
731,1.39592,2.261,1,4
732,1.40045,2.27,1,4
733,1.40273,2.274,1,4
734,1.405,2.274,1,4
735,1.40728,2.278,1,4
736,1.40957,2.287,1,4
737,1.41185,2.289,1,4
738,1.41644,2.295,1,4
739,1.41874,2.303,1,4
740,1.42104,2.304,1,4
741,1.42335,2.308,1,4
742,1.42566,2.312,1,4
743,1.43031,2.321,1,4
744,1.43263,2.323,1,4
745,1.43496,2.334,1,4
746,1.4373,2.333,1,4
747,1.43963,2.338,1,4
748,1.44198,2.345,1,4
749,1.44433,2.349,1,4
750,1.44668,2.353,1,4
751,1.44904,2.36,1,4
752,1.4514,2.36,1,4
753,1.45377,2.367,1,4
754,1.45614,2.371,1,4
755,1.45852,2.381,1,4
756,1.4609,2.38,1,4
757,1.46328,2.384,1,4
758,1.46568,2.394,1,4
759,1.46808,2.4,1,4
760,1.47288,2.409,1,4
761,1.4753,2.414,1,4
762,1.47771,2.417,1,4
763,1.48013,2.42,1,4
764,1.48256,2.437,1,4
765,1.48744,2.436,1,4
766,1.48988,2.442,1,4
767,1.49233,2.456,1,4
768,1.49725,2.461,1,4
769,1.49971,2.465,1,4
770,1.50218,2.469,1,4
771,1.50466,2.476,1,4
772,1.50714,2.484,1,4
773,1.50963,2.489,1,4
774,1.51212,2.493,1,4
775,1.51462,2.497,1,4
776,1.51712,2.501,1,4
777,1.51963,2.509,1,4
778,1.52215,2.518,1,4
779,1.52467,2.523,1,4
780,1.5272,2.524,1,4
781,1.52973,2.532,1,4
782,1.53226,2.537,1,4
783,1.53736,2.55,1,4
784,1.53991,2.555,1,4
785,1.54503,2.564,1,4
786,1.54761,2.574,1,4
787,1.55019,2.577,1,4
788,1.55277,2.583,1,4
789,1.55535,2.586,1,4
790,1.55794,2.589,1,4
791,1.56054,2.598,1,4
792,1.56315,2.605,1,4
793,1.56837,2.614,1,4
794,1.57098,2.615,1,4
795,1.57361,2.628,1,4
796,1.57623,2.628,1,4
797,1.57887,2.635,1,4
798,1.5815,2.635,1,4
799,1.58414,2.64,1,4
800,1.58679,2.647,1,4
801,1.58944,2.653,1,4
802,1.5921,2.659,1,4
803,1.59476,2.658,1,4
804,1.59743,2.666,1,4
805,1.6001,2.676,1,4
806,1.60278,2.676,1,4
807,1.60546,2.684,1,4
808,1.60815,2.688,1,4
809,1.61354,2.699,1,4
810,1.61624,2.705,1,4
811,1.62166,2.71,1,4
812,1.62437,2.715,1,4
813,1.62709,2.721,1,4
814,1.62982,2.723,1,4
815,1.63255,2.727,1,4
816,1.63527,2.737,1,4
817,1.64075,2.741,1,4
818,1.64349,2.743,1,4
819,1.64624,2.745,1,4
820,1.64899,2.747,1,4
821,1.65174,2.753,1,4
822,1.6545,2.76,1,4
823,1.65726,2.759,1,4
824,1.66002,2.768,1,4
825,1.66278,2.77,1,4
826,1.66555,2.77,1,4
827,1.66833,2.772,1,4
828,1.6711,2.775,1,4
829,1.67388,2.776,1,4
830,1.67666,2.779,1,4
831,1.67944,2.785,1,4
832,1.68502,2.787,1,4
833,1.68781,2.792,1,4
834,1.6906,2.797,1,4
835,1.6962,2.799,1,4
836,1.699,2.796,1,4
837,1.70179,2.798,1,4
838,1.7046,2.804,1,4
839,1.7074,2.807,1,4
840,1.71021,2.807,1,4
841,1.71302,2.805,1,4
842,1.71863,2.808,1,4
843,1.72144,2.812,1,4
844,1.72707,2.814,1,4
845,1.72988,2.812,1,4
846,1.72988,2.814,1,4
847,1.73269,2.814,1,4
848,1.73551,2.815,1,4
849,1.73832,2.815,1,4
850,1.74114,2.812,1,4
851,1.74677,2.815,1,4
852,1.74958,2.816,1,4
853,1.75239,2.812,1,4
854,1.75521,2.813,1,4
855,1.75802,2.814,1,4
856,1.76083,2.811,1,4
857,1.76364,2.808,1,4
858,1.76645,2.808,1,4
859,1.76925,2.806,1,4
860,1.77486,2.805,1,4
861,1.77766,2.801,1,4
862,1.78046,2.795,1,4
863,1.78326,2.795,1,4
864,1.78605,2.795,1,4
865,1.78885,2.795,1,4
866,1.79164,2.79,1,4
867,1.79721,2.787,1,4
868,1.79999,2.781,1,4
869,1.80556,2.78,1,4
870,1.80833,2.774,1,4
871,1.8111,2.772,1,4
872,1.81387,2.769,1,4
873,1.81664,2.766,1,4
874,1.8194,2.763,1,4
875,1.82216,2.761,1,4
876,1.82492,2.755,1,4
877,1.82767,2.753,1,4
878,1.83042,2.748,1,4
879,1.83316,2.745,1,4
880,1.83591,2.746,1,4
881,1.83865,2.737,1,4
882,1.84138,2.732,1,4
883,1.84411,2.73,1,4
884,1.84684,2.724,1,4
885,1.85228,2.721,1,4
886,1.85499,2.713,1,4
887,1.8577,2.708,1,4
888,1.86041,2.708,1,4
889,1.86581,2.698,1,4
890,1.8685,2.694,1,4
891,1.87119,2.685,1,4
892,1.87387,2.685,1,4
893,1.87923,2.674,1,4
894,1.8819,2.669,1,4
895,1.88456,2.665,1,4
896,1.88722,2.662,1,4
897,1.88988,2.659,1,4
898,1.89254,2.653,1,4
899,1.89518,2.641,1,4
900,1.89782,2.641,1,4
901,1.90046,2.637,1,4
902,1.90309,2.63,1,4
