cnt,pos,speed,Dir,Force,
1,3.36066,1.283,-1,3
2,3.36194,1.283,-1,3
3,3.36323,1.286,-1,3
4,3.36453,1.298,-1,3
5,3.36584,1.308,-1,3
6,3.36715,1.311,-1,3
7,3.36846,1.314,-1,3
8,3.36978,1.315,-1,3
9,3.37110,1.319,-1,3
10,3.37242,1.325,-1,3
11,3.37376,1.337,-1,3
12,3.37510,1.346,-1,3
13,3.37645,1.344,-1,3
14,3.37779,1.343,-1,3
15,3.37914,1.348,-1,3
16,3.38049,1.357,-1,3
17,3.38186,1.366,-1,3
18,3.38323,1.373,-1,3
19,3.38461,1.372,-1,3
20,3.38598,1.370,-1,3
21,3.38735,1.376,-1,3
22,3.38874,1.390,-1,3
23,3.39014,1.396,-1,3
24,3.39154,1.397,-1,3
25,3.39294,1.397,-1,3
26,3.39433,1.407,-1,3
27,3.39574,1.407,-1,3
28,3.39716,1.429,-1,3
29,3.39859,1.423,-1,3
30,3.40144,1.422,-1,3
31,3.40286,1.427,-1,3
32,3.40430,1.438,-1,3
33,3.40575,1.451,-1,3
34,3.40721,1.456,-1,3
35,3.40866,1.448,-1,3
36,3.41010,1.444,-1,3
37,3.41156,1.457,-1,3
38,3.41303,1.474,-1,3
39,3.41451,1.477,-1,3
40,3.41599,1.482,-1,3
41,3.41746,1.473,-1,3
42,3.41893,1.469,-1,3
43,3.42042,1.488,-1,3
44,3.42193,1.507,-1,3
45,3.42344,1.510,-1,3
46,3.42493,1.498,-1,3
47,3.42643,1.494,-1,3
48,3.42793,1.504,-1,3
49,3.42946,1.524,-1,3
50,3.43100,1.539,-1,3
51,3.43252,1.528,-1,3
52,3.43404,1.513,-1,3
53,3.43556,1.521,-1,3
54,3.43710,1.544,-1,3
55,3.43866,1.561,-1,3
56,3.44021,1.552,-1,3
57,3.44175,1.538,-1,3
58,3.44329,1.535,-1,3
59,3.44485,1.563,-1,3
60,3.44644,1.585,-1,3
61,3.44801,1.577,-1,3
62,3.44957,1.559,-1,3
63,3.45113,1.557,-1,3
64,3.45271,1.577,-1,3
65,3.45431,1.604,-1,3
66,3.45591,1.604,-1,3
67,3.45750,1.582,-1,3
68,3.45907,1.571,-1,3
69,3.46066,1.590,-1,3
70,3.46228,1.619,-1,3
71,3.46390,1.627,-1,3
72,3.46551,1.605,-1,3
73,3.46710,1.587,-1,3
74,3.46870,1.603,-1,3
75,3.47033,1.628,-1,3
76,3.47197,1.639,-1,3
77,3.47359,1.625,-1,3
78,3.47520,1.608,-1,3
79,3.47681,1.614,-1,3
80,3.47845,1.637,-1,3
81,3.48010,1.648,-1,3
82,3.48174,1.640,-1,3
83,3.48336,1.628,-1,3
84,3.48499,1.628,-1,3
85,3.48664,1.644,-1,3
86,3.48829,1.655,-1,3
87,3.48994,1.650,-1,3
88,3.49158,1.642,-1,3
89,3.49323,1.644,-1,3
90,3.49488,1.652,-1,3
91,3.49654,1.660,-1,3
92,3.49820,1.657,-1,3
93,3.49985,1.654,-1,3
94,3.50151,1.659,-1,3
95,3.50317,1.663,-1,3
96,3.50483,1.662,-1,3
97,3.50650,1.661,-1,3
98,3.50816,1.664,-1,3
99,3.50983,1.670,-1,3
100,3.51150,1.672,-1,3
101,3.51316,1.662,-1,3
102,3.51483,1.663,-1,3
103,3.51650,1.674,-1,3
104,3.51818,1.677,-1,3
105,3.51985,1.670,-1,3
106,3.52151,1.662,-1,3
107,3.52317,1.666,-1,3
108,3.52485,1.680,-1,3
109,3.52653,1.678,-1,3
110,3.52820,1.664,-1,3
111,3.52986,1.662,-1,3
112,3.53153,1.680,-1,3
113,3.53321,1.680,-1,3
114,3.53488,1.674,-1,3
115,3.53654,1.660,-1,3
116,3.53820,1.659,-1,3
117,3.53987,1.673,-1,3
118,3.54155,1.679,-1,3
119,3.54322,1.668,-1,3
120,3.54488,1.654,-1,3
121,3.54820,1.672,-1,3
122,3.54820,1.677,-1,3
123,3.54988,1.659,-1,3
124,3.55154,1.659,-1,3
125,3.55318,1.645,-1,3
126,3.55483,1.648,-1,3
127,3.55650,1.671,-1,3
128,3.55817,1.651,-1,3
129,3.56145,1.632,-1,3
130,3.56309,1.641,-1,3
131,3.56475,1.659,-1,3
132,3.56641,1.659,-1,3
133,3.56805,1.640,-1,3
134,3.56967,1.623,-1,3
135,3.57131,1.633,-1,3
136,3.57296,1.652,-1,3
137,3.57461,1.647,-1,3
138,3.57623,1.626,-1,3
139,3.57785,1.614,-1,3
140,3.57947,1.624,-1,3
141,3.58111,1.642,-1,3
142,3.58275,1.635,-1,3
143,3.58436,1.609,-1,3
144,3.58596,1.605,-1,3
145,3.58758,1.621,-1,3
146,3.58921,1.630,-1,3
147,3.59083,1.617,-1,3
148,3.59243,1.596,-1,3
149,3.59402,1.594,-1,3
150,3.59563,1.616,-1,3
151,3.59726,1.621,-1,3
152,3.59886,1.601,-1,3
153,3.60044,1.581,-1,3
154,3.60202,1.587,-1,3
155,3.60363,1.607,-1,3
156,3.60524,1.611,-1,3
157,3.60683,1.588,-1,3
158,3.60840,1.569,-1,3
159,3.60998,1.577,-1,3
160,3.61157,1.598,-1,3
161,3.61317,1.596,-1,3
162,3.61475,1.578,-1,3
163,3.61631,1.558,-1,3
164,3.61787,1.567,-1,3
165,3.61946,1.588,-1,3
166,3.62105,1.585,-1,3
167,3.62261,1.567,-1,3
168,3.62416,1.551,-1,3
169,3.62572,1.560,-1,3
170,3.62730,1.581,-1,3
171,3.62888,1.577,-1,3
172,3.63044,1.554,-1,3
173,3.63198,1.546,-1,3
174,3.63354,1.559,-1,3
175,3.63511,1.572,-1,3
176,3.63668,1.569,-1,3
177,3.63823,1.548,-1,3
178,3.63977,1.541,-1,3
179,3.64133,1.556,-1,3
180,3.64290,1.570,-1,3
181,3.64446,1.561,-1,3
182,3.64600,1.541,-1,3
183,3.64754,1.538,-1,3
184,3.64909,1.555,-1,3
185,3.65066,1.566,-1,3
186,3.65222,1.559,-1,3
187,3.65376,1.540,-1,3
188,3.65529,1.532,-1,3
189,3.65684,1.553,-1,3
190,3.65840,1.564,-1,3
191,3.65996,1.540,-1,3
192,3.66150,1.540,-1,3
193,3.66303,1.547,-1,3
194,3.66458,1.547,-1,3
195,3.66770,1.555,-1,3
196,3.66770,1.555,-1,3
197,3.66924,1.539,-1,3
198,3.67077,1.550,-1,3
199,3.67388,1.558,-1,3
200,3.67543,1.556,-1,3
201,3.67698,1.543,-1,3
202,3.67851,1.536,-1,3
203,3.68006,1.551,-1,3
204,3.68163,1.563,-1,3
205,3.68318,1.555,-1,3
206,3.68473,1.545,-1,3
207,3.68627,1.542,-1,3
208,3.68782,1.553,-1,3
209,3.68939,1.566,-1,3
210,3.69095,1.560,-1,3
211,3.69250,1.548,-1,3
212,3.69404,1.546,-1,3
213,3.69560,1.555,-1,3
214,3.69716,1.567,-1,3
215,3.69873,1.564,-1,3
216,3.70028,1.555,-1,3
217,3.70183,1.551,-1,3
218,3.70339,1.557,-1,3
219,3.70496,1.567,-1,3
220,3.70652,1.568,-1,3
221,3.70808,1.560,-1,3
222,3.70964,1.556,-1,3
223,3.71120,1.559,-1,3
224,3.71277,1.568,-1,3
225,3.71434,1.571,-1,3
226,3.71590,1.566,-1,3
227,3.71746,1.559,-1,3
228,3.71903,1.564,-1,3
229,3.72060,1.571,-1,3
230,3.72217,1.574,-1,3
231,3.72374,1.568,-1,3
232,3.72530,1.562,-1,3
233,3.72687,1.566,-1,3
234,3.72844,1.577,-1,3
235,3.73002,1.580,-1,3
236,3.73159,1.569,-1,3
237,3.73316,1.563,-1,3
238,3.73473,1.570,-1,3
239,3.73631,1.583,-1,3
240,3.73790,1.587,-1,3
241,3.73947,1.575,-1,3
242,3.74104,1.568,-1,3
243,3.74261,1.571,-1,3
244,3.74419,1.584,-1,3
245,3.74579,1.596,-1,3
246,3.74738,1.587,-1,3
247,3.74895,1.572,-1,3
248,3.75052,1.573,-1,3
249,3.75212,1.594,-1,3
250,3.75372,1.602,-1,3
251,3.75532,1.597,-1,3
252,3.75690,1.582,-1,3
253,3.75848,1.581,-1,3
254,3.76008,1.597,-1,3
255,3.76169,1.613,-1,3
256,3.76330,1.607,-1,3
257,3.76489,1.592,-1,3
258,3.76648,1.591,-1,3
259,3.76808,1.604,-1,3
260,3.76971,1.623,-1,3
261,3.77132,1.617,-1,3
262,3.77292,1.599,-1,3
263,3.77452,1.601,-1,3
264,3.77614,1.620,-1,3
265,3.77777,1.632,-1,3
266,3.77940,1.623,-1,3
267,3.78101,1.607,-1,3
268,3.78261,1.609,-1,3
269,3.78425,1.634,-1,3
270,3.78589,1.642,-1,3
271,3.78914,1.616,-1,3
272,3.79076,1.620,-1,3
273,3.79240,1.643,-1,3
274,3.79405,1.652,-1,3
275,3.79568,1.634,-1,3
276,3.79731,1.621,-1,3
277,3.79894,1.631,-1,3
278,3.80059,1.651,-1,3
279,3.80224,1.656,-1,3
280,3.80388,1.641,-1,3
281,3.80551,1.626,-1,3
282,3.80715,1.635,-1,3
283,3.80880,1.656,-1,3
284,3.81046,1.659,-1,3
285,3.81211,1.646,-1,3
286,3.81374,1.634,-1,3
287,3.81538,1.641,-1,3
288,3.81704,1.661,-1,3
289,3.81870,1.661,-1,3
290,3.82035,1.645,-1,3
291,3.82198,1.637,-1,3
292,3.82363,1.644,-1,3
293,3.82529,1.658,-1,3
294,3.82694,1.658,-1,3
295,3.82859,1.644,-1,3
296,3.83187,1.647,-1,3
297,3.83353,1.656,-1,3
298,3.83353,1.652,-1,3
299,3.83518,1.652,-1,3
300,3.83682,1.639,-1,3
301,3.83845,1.632,-1,3
302,3.84009,1.645,-1,3
303,3.84175,1.653,-1,3
304,3.84339,1.643,-1,3
305,3.84502,1.629,-1,3
306,3.84665,1.631,-1,3
307,3.84829,1.638,-1,3
308,3.84993,1.644,-1,3
309,3.85156,1.634,-1,3
310,3.85319,1.624,-1,3
311,3.85481,1.624,-1,3
312,3.85644,1.628,-1,3
313,3.85807,1.628,-1,3
314,3.85969,1.622,-1,3
315,3.86130,1.612,-1,3
316,3.86291,1.611,-1,3
317,3.86453,1.614,-1,3
318,3.86614,1.611,-1,3
319,3.86774,1.604,-1,3
320,3.86934,1.600,-1,3
321,3.87094,1.596,-1,3
322,3.87253,1.596,-1,3
323,3.87412,1.590,-1,3
324,3.87570,1.583,-1,3
325,3.87729,1.581,-1,3
326,3.87887,1.583,-1,3
327,3.88045,1.576,-1,3
328,3.88201,1.565,-1,3
329,3.88357,1.562,-1,3
330,3.88513,1.560,-1,3
331,3.88669,1.562,-1,3
332,3.88825,1.560,-1,3
333,3.88980,1.544,-1,3
334,3.89133,1.533,-1,3
335,3.89287,1.534,-1,3
336,3.89440,1.538,-1,3
337,3.89594,1.538,-1,3
338,3.89747,1.524,-1,3
339,3.89898,1.510,-1,3
340,3.90048,1.503,-1,3
341,3.90199,1.512,-1,3
342,3.90350,1.512,-1,3
343,3.90501,1.503,-1,3
344,3.90650,1.489,-1,3
345,3.90798,1.480,-1,3
346,3.90945,1.478,-1,3
347,3.91094,1.482,-1,3
348,3.91242,1.479,-1,3
349,3.91388,1.467,-1,3
350,3.91534,1.454,-1,3
351,3.91679,1.453,-1,3
352,3.91824,1.451,-1,3
353,3.91969,1.451,-1,3
354,3.92113,1.442,-1,3
355,3.92256,1.424,-1,3
356,3.92399,1.424,-1,3
357,3.92541,1.426,-1,3
358,3.92684,1.419,-1,3
359,3.92826,1.405,-1,3
360,3.93106,1.400,-1,3
361,3.93246,1.395,-1,3
362,3.93386,1.398,-1,3
363,3.93525,1.395,-1,3
364,3.93664,1.385,-1,3
365,3.93801,1.372,-1,3
366,3.93938,1.371,-1,3
367,3.94075,1.372,-1,3
368,3.94212,1.371,-1,3
369,3.94348,1.362,-1,3
370,3.94484,1.354,-1,3
371,3.94618,1.344,-1,3
372,3.94752,1.342,-1,3
373,3.94887,1.346,-1,3
374,3.95021,1.341,-1,3
375,3.95154,1.331,-1,3
376,3.95287,1.323,-1,3
377,3.95419,1.323,-1,3
378,3.95551,1.320,-1,3
379,3.95683,1.319,-1,3
380,3.95814,1.316,-1,3
381,3.95945,1.305,-1,3
382,3.96074,1.296,-1,3
383,3.96204,1.297,-1,3
384,3.96334,1.302,-1,3
385,3.96464,1.297,-1,3
386,3.96593,1.287,-1,3
387,3.96721,1.282,-1,3
388,3.96849,1.277,-1,3
389,3.96976,1.276,-1,3
390,3.97104,1.279,-1,3
391,3.97232,1.278,-1,3
392,3.97359,1.273,-1,3
393,3.97486,1.262,-1,3
394,3.97611,1.257,-1,3
395,3.97737,1.258,-1,3
396,3.97863,1.259,-1,3
397,3.97989,1.262,-1,3
398,3.98115,1.257,-1,3
399,3.98240,1.252,-1,3
400,3.98364,1.242,-1,3
401,3.98488,1.239,-1,3
402,3.98613,1.243,-1,3
403,3.98738,1.249,-1,3
404,3.98862,1.245,-1,3
405,3.98986,1.239,-1,3
406,3.99109,1.231,-1,3
407,3.99232,1.229,-1,3
408,3.99355,1.227,-1,3
409,3.99478,1.236,-1,3
410,3.99602,1.235,-1,3
411,3.99725,1.230,-1,3
412,3.99847,1.218,-1,3
413,3.99968,1.215,-1,3
414,4.00090,1.223,-1,3
415,4.00213,1.226,-1,3
416,4.00335,1.224,-1,3
417,4.00457,1.213,-1,3
418,4.00578,1.212,-1,3
419,4.00698,1.207,-1,3
420,4.00820,1.211,-1,3
421,4.00941,1.213,-1,3
422,4.01062,1.206,-1,3
423,4.01303,1.200,-1,3
424,4.01303,1.198,-1,3
425,4.01423,1.207,-1,3
426,4.01544,1.207,-1,3
427,4.01783,1.197,-1,3
428,4.01783,1.197,-1,3
429,4.02023,1.196,-1,3
430,4.02142,1.193,-1,3
431,4.02261,1.192,-1,3
432,4.02380,1.190,-1,3
433,4.02499,1.186,-1,3
434,4.02618,1.188,-1,3
435,4.02736,1.186,-1,3
436,4.02855,1.185,-1,3
437,4.02973,1.182,-1,3
438,4.03091,1.176,-1,3
439,4.03208,1.173,-1,3
440,4.03325,1.173,-1,3
441,4.03443,1.175,-1,3
442,4.03560,1.172,-1,3
443,4.03677,1.167,-1,3
444,4.03793,1.162,-1,3
445,4.03909,1.160,-1,3
446,4.04024,1.155,-1,3
447,4.04140,1.155,-1,3
448,4.04256,1.158,-1,3
449,4.04371,1.154,-1,3
450,4.04486,1.147,-1,3
451,4.04600,1.141,-1,3
452,4.04714,1.139,-1,3
453,4.04828,1.142,-1,3
454,4.04942,1.140,-1,3
455,4.05056,1.138,-1,3
456,4.05169,1.135,-1,3
457,4.05282,1.131,-1,3
458,4.05395,1.125,-1,3
459,4.05507,1.122,-1,3
460,4.05620,1.127,-1,3
461,4.05732,1.129,-1,3
462,4.05845,1.127,-1,3
463,4.05957,1.118,-1,3
464,4.06068,1.114,-1,3
465,4.06180,1.119,-1,3
466,4.06292,1.121,-1,3
467,4.06404,1.116,-1,3
468,4.06516,1.116,-1,3
469,4.06628,1.121,-1,3
470,4.06740,1.122,-1,3
471,4.06851,1.115,-1,3
472,4.06962,1.112,-1,3
473,4.07074,1.116,-1,3
474,4.07186,1.123,-1,3
475,4.07299,1.125,-1,3
476,4.07411,1.123,-1,3
477,4.07523,1.122,-1,3
478,4.07636,1.125,-1,3
479,4.07748,1.126,-1,3
480,4.07861,1.128,-1,3
481,4.07975,1.134,-1,3
482,4.08089,1.141,-1,3
483,4.08203,1.141,-1,3
484,4.08317,1.137,-1,3
485,4.08431,1.141,-1,3
486,4.08546,1.149,-1,3
487,4.08661,1.151,-1,3
488,4.08776,1.153,-1,3
489,4.08892,1.160,-1,3
490,4.09009,1.168,-1,3
491,4.09126,1.170,-1,3
492,4.09242,1.167,-1,3
493,4.09360,1.171,-1,3
494,4.09478,1.183,-1,3
495,4.09597,1.190,-1,3
496,4.09716,1.194,-1,3
497,4.09836,1.196,-1,3
498,4.09956,1.199,-1,3
499,4.10076,1.207,-1,3
500,4.10197,1.209,-1,3
501,4.10319,1.218,-1,3
502,4.10442,1.231,-1,3
503,4.10565,1.231,-1,3
504,4.10689,1.232,-1,3
505,4.10812,1.235,-1,3
506,4.10937,1.248,-1,3
507,4.11062,1.252,-1,3
508,4.11188,1.259,-1,3
509,4.11314,1.263,-1,3
510,4.11441,1.270,-1,3
511,4.11568,1.273,-1,3
512,4.11696,1.273,-1,3
513,4.11824,1.285,-1,3
514,4.11953,1.289,-1,3
515,4.12083,1.294,-1,3
516,4.12213,1.300,-1,3
517,4.12343,1.303,-1,3
518,4.12473,1.302,-1,3
519,4.12604,1.306,-1,3
520,4.12736,1.317,-1,3
521,4.12868,1.325,-1,3
522,4.13000,1.324,-1,3
523,4.13133,1.321,-1,3
524,4.13265,1.325,-1,3
525,4.13398,1.331,-1,3
526,4.13532,1.337,-1,3
527,4.13666,1.342,-1,3
528,4.13800,1.343,-1,3
529,4.13934,1.336,-1,3
530,4.14068,1.336,-1,3
531,4.14202,1.348,-1,3
532,4.14338,1.355,-1,3
533,4.14473,1.354,-1,3
534,4.14608,1.347,-1,3
535,4.14742,1.344,-1,3
536,4.14877,1.346,-1,3
537,4.15012,1.353,-1,3
538,4.15149,1.363,-1,3
539,4.15284,1.359,-1,3
540,4.15420,1.350,-1,3
541,4.15554,1.345,-1,3
542,4.15689,1.353,-1,3
543,4.15826,1.362,-1,3
544,4.15962,1.365,-1,3
545,4.16098,1.359,-1,3
546,4.16233,1.350,-1,3
547,4.16368,1.348,-1,3
548,4.16503,1.356,-1,3
549,4.16640,1.367,-1,3
550,4.16776,1.363,-1,3
551,4.16912,1.356,-1,3
552,4.17047,1.352,-1,3
553,4.17182,1.354,-1,3
554,4.17318,1.359,-1,3
555,4.17455,1.365,-1,3
556,4.17591,1.362,-1,3
557,4.17726,1.353,-1,3
558,4.17861,1.351,-1,3
559,4.17997,1.358,-1,3
560,4.18133,1.363,-1,3
561,4.18270,1.363,-1,3
562,4.18406,1.362,-1,3
563,4.18542,1.359,-1,3
564,4.18678,1.357,-1,3
565,4.18814,1.363,-1,3
566,4.18951,1.373,-1,3
567,4.19088,1.371,-1,3
568,4.19225,1.368,-1,3
569,4.19362,1.366,-1,3
570,4.19499,1.370,-1,3
571,4.19636,1.373,-1,3
572,4.19774,1.382,-1,3
573,4.19913,1.386,-1,3
574,4.20051,1.384,-1,3
575,4.20189,1.379,-1,3
576,4.20327,1.383,-1,3
577,4.20466,1.391,-1,3
578,4.20606,1.399,-1,3
579,4.20747,1.405,-1,3
580,4.20887,1.406,-1,3
581,4.21027,1.400,-1,3
582,4.21168,1.404,-1,3
583,4.21309,1.416,-1,3
584,4.21452,1.428,-1,3
585,4.21596,1.434,-1,3
586,4.21739,1.433,-1,3
587,4.21882,1.431,-1,3
588,4.22025,1.434,-1,3
589,4.22171,1.452,-1,3
590,4.22317,1.466,-1,3
591,4.22464,1.467,-1,3
592,4.22611,1.467,-1,3
593,4.22757,1.468,-1,3
594,4.22905,1.474,-1,3
595,4.23055,1.498,-1,3
596,4.23206,1.509,-1,3
597,4.23356,1.504,-1,3
598,4.23506,1.502,-1,3
599,4.23658,1.515,-1,3
600,4.23811,1.536,-1,3
601,4.23966,1.549,-1,3
602,4.24121,1.550,-1,3
603,4.24276,1.547,-1,3
604,4.24431,1.552,-1,3
605,4.24589,1.577,-1,3
606,4.24749,1.599,-1,3
607,4.24909,1.599,-1,3
608,4.25068,1.593,-1,3
609,4.25228,1.597,-1,3
610,4.25390,1.622,-1,3
611,4.25555,1.649,-1,3
612,4.25720,1.654,-1,3
613,4.25885,1.646,-1,3
614,4.26050,1.648,-1,3
615,4.26217,1.671,-1,3
616,4.26387,1.701,-1,3
617,4.26558,1.715,-1,3
618,4.26729,1.704,-1,3
619,4.26899,1.702,-1,3
620,4.27071,1.727,-1,3
621,4.27247,1.758,-1,3
622,4.27424,1.773,-1,3
623,4.27601,1.764,-1,3
624,4.27778,1.769,-1,3
625,4.27957,1.789,-1,3
626,4.28138,1.815,-1,3
627,4.28321,1.827,-1,3
628,4.28504,1.833,-1,3
629,4.28688,1.837,-1,3
630,4.28873,1.853,-1,3
631,4.29060,1.870,-1,3
632,4.29249,1.888,-1,3
633,4.29440,1.903,-1,3
634,4.29630,1.907,-1,3
635,4.29821,1.912,-1,3
636,4.30014,1.928,-1,3
637,4.30210,1.955,-1,3
638,4.30407,1.973,-1,3
639,4.30604,1.970,-1,3
640,4.30801,1.970,-1,3
641,4.31000,1.993,-1,3
642,4.31203,2.023,-1,3
643,4.31406,2.036,-1,3
644,4.31610,2.033,-1,3
645,4.31814,2.039,-1,3
646,4.32019,2.057,-1,3
647,4.32228,2.087,-1,3
648,4.32438,2.096,-1,3
649,4.32648,2.102,-1,3
650,4.32858,2.104,-1,3
651,4.33070,2.123,-1,3
652,4.33285,2.146,-1,3
653,4.33501,2.163,-1,3
654,4.33718,2.166,-1,3
655,4.33935,2.167,-1,3
656,4.34153,2.184,-1,3
657,4.34374,2.208,-1,3
658,4.34596,2.223,-1,3
659,4.34819,2.226,-1,3
660,4.35042,2.233,-1,3
661,4.35267,2.248,-1,3
662,4.35493,2.264,-1,3
663,4.35721,2.277,-1,3
664,4.35950,2.289,-1,3
665,4.36179,2.291,-1,3
666,4.36409,2.301,-1,3
667,4.36641,2.323,-1,3
668,4.36875,2.335,-1,3
669,4.37109,2.340,-1,3
670,4.37343,2.345,-1,3
671,4.37816,2.370,-1,3
672,4.38055,2.386,-1,3
673,4.38293,2.389,-1,3
674,4.38293,2.390,-1,3
675,4.38532,2.404,-1,3
676,4.38773,2.404,-1,3
677,4.39257,2.425,-1,3
678,4.39257,2.424,-1,3
679,4.39743,2.434,-1,3
680,4.39988,2.448,-1,3
681,4.40233,2.452,-1,3
682,4.40479,2.455,-1,3
683,4.40725,2.462,-1,3
684,4.40971,2.467,-1,3
685,4.41219,2.474,-1,3
686,4.41467,2.482,-1,3
687,4.41715,2.484,-1,3
688,4.41964,2.482,-1,3
689,4.42213,2.491,-1,3
690,4.42462,2.497,-1,3
691,4.42712,2.497,-1,3
692,4.42962,2.498,-1,3
693,4.43212,2.500,-1,3
694,4.43462,2.501,-1,3
695,4.43713,2.507,-1,3
696,4.43963,2.508,-1,3
697,4.44214,2.502,-1,3
698,4.44464,2.506,-1,3
699,4.44715,2.510,-1,3
700,4.44966,2.507,-1,3
701,4.45216,2.505,-1,3
702,4.45467,2.507,-1,3
703,4.45717,2.504,-1,3
704,4.45968,2.504,-1,3
705,4.46218,2.506,-1,3
706,4.46469,2.502,-1,3
707,4.46718,2.495,-1,3
708,4.46968,2.495,-1,3
709,4.47217,2.494,-1,3
710,4.47466,2.493,-1,3
711,4.47715,2.490,-1,3
712,4.47964,2.485,-1,3
713,4.48212,2.482,-1,3
714,4.48460,2.483,-1,3
715,4.48955,2.473,-1,3
716,4.49203,2.474,-1,3
717,4.49203,2.471,-1,3
718,4.49450,2.471,-1,3
719,4.49696,2.461,-1,3
720,4.49942,2.461,-1,3
721,4.50189,2.460,-1,3
722,4.50434,2.454,-1,3
723,4.50924,2.446,-1,3
724,4.51168,2.442,-1,3
725,4.51411,2.435,-1,3
726,4.51654,2.430,-1,3
727,4.51897,2.424,-1,3
728,4.52139,2.424,-1,3
729,4.52381,2.417,-1,3
730,4.52622,2.409,-1,3
731,4.52862,2.404,-1,3
732,4.53102,2.401,-1,3
733,4.53341,2.392,-1,3
734,4.53580,2.387,-1,3
735,4.53818,2.382,-1,3
736,4.54056,2.374,-1,3
737,4.54293,2.370,-1,3
738,4.54529,2.361,-1,3
739,4.54764,2.355,-1,3
740,4.54999,2.350,-1,3
741,4.55234,2.345,-1,3
742,4.55467,2.335,-1,3
743,4.55700,2.329,-1,3
744,4.55932,2.323,-1,3
745,4.56164,2.320,-1,3
746,4.56395,2.310,-1,3
747,4.56626,2.304,-1,3
748,4.56856,2.297,-1,3
749,4.57085,2.290,-1,3
750,4.57313,2.281,-1,3
751,4.57540,2.275,-1,3
752,4.57767,2.273,-1,3
753,4.57994,2.266,-1,3
754,4.58219,2.253,-1,3
755,4.58444,2.248,-1,3
756,4.58669,2.248,-1,3
757,4.58893,2.240,-1,3
758,4.59116,2.230,-1,3
759,4.59338,2.221,-1,3
760,4.59560,2.222,-1,3
761,4.59782,2.215,-1,3
762,4.60003,2.208,-1,3
763,4.60223,2.201,-1,3
764,4.60443,2.202,-1,3
765,4.60662,2.194,-1,3
766,4.60881,2.187,-1,3
767,4.61099,2.183,-1,3
768,4.61317,2.179,-1,3
769,4.61535,2.174,-1,3
770,4.61752,2.170,-1,3
771,4.61968,2.166,-1,3
772,4.62184,2.160,-1,3
773,4.62400,2.157,-1,3
774,4.62615,2.154,-1,3
775,4.62830,2.150,-1,3
776,4.63045,2.142,-1,3
777,4.63259,2.142,-1,3
778,4.63473,2.142,-1,3
779,4.63687,2.127,-1,3
780,4.63899,2.126,-1,3
781,4.64325,2.129,-1,3
782,4.64325,2.122,-1,3
783,4.64749,2.117,-1,3
784,4.64749,2.117,-1,3
785,4.65172,2.118,-1,3
786,4.65172,2.112,-1,3
787,4.65594,2.106,-1,3
788,4.65804,2.107,-1,3
789,4.66015,2.109,-1,3
790,4.66226,2.106,-1,3
791,4.66436,2.104,-1,3
792,4.66647,2.103,-1,3
793,4.66857,2.102,-1,3
794,4.67067,2.102,-1,3
795,4.67278,2.104,-1,3
796,4.67488,2.107,-1,3
797,4.67698,2.100,-1,3
798,4.67908,2.101,-1,3
799,4.68119,2.108,-1,3
800,4.68330,2.110,-1,3
801,4.68541,2.106,-1,3
802,4.68751,2.104,-1,3
803,4.68962,2.111,-1,3
804,4.69174,2.117,-1,3
805,4.69385,2.113,-1,3
806,4.69597,2.114,-1,3
807,4.69809,2.122,-1,3
808,4.70021,2.125,-1,3
809,4.70234,2.126,-1,3
810,4.70447,2.130,-1,3
811,4.70660,2.131,-1,3
812,4.70874,2.136,-1,3
813,4.71088,2.142,-1,3
814,4.71303,2.149,-1,3
815,4.71517,2.146,-1,3
816,4.71732,2.150,-1,3
817,4.71948,2.160,-1,3
818,4.72165,2.166,-1,3
819,4.72381,2.165,-1,3
820,4.72598,2.167,-1,3
821,4.72816,2.180,-1,3
822,4.73034,2.183,-1,3
823,4.73253,2.184,-1,3
824,4.73471,2.187,-1,3
825,4.73691,2.199,-1,3
826,4.73911,2.202,-1,3
827,4.74132,2.203,-1,3
828,4.74353,2.208,-1,3
829,4.74574,2.218,-1,3
830,4.74797,2.221,-1,3
831,4.75019,2.224,-1,3
832,4.75242,2.230,-1,3
833,4.75465,2.236,-1,3
834,4.75914,2.244,-1,3
835,4.76139,2.249,-1,3
836,4.76364,2.255,-1,3
837,4.76591,2.262,-1,3
838,4.76817,2.266,-1,3
839,4.77044,2.269,-1,3
840,4.77271,2.271,-1,3
841,4.77499,2.283,-1,3
842,4.77728,2.286,-1,3
843,4.77957,2.288,-1,3
844,4.78186,2.290,-1,3
845,4.78416,2.301,-1,3
846,4.78646,2.302,-1,3
847,4.78877,2.306,-1,3
848,4.79108,2.312,-1,3
849,4.79339,2.314,-1,3
850,4.79571,2.316,-1,3
851,4.79803,2.321,-1,3
852,4.80035,2.322,-1,3
853,4.80268,2.330,-1,3
854,4.80501,2.331,-1,3
855,4.80735,2.337,-1,3
856,4.80969,2.336,-1,3
857,4.81203,2.340,-1,3
858,4.81437,2.344,-1,3
859,4.81672,2.347,-1,3
860,4.81907,2.347,-1,3
861,4.82142,2.351,-1,3
862,4.82377,2.355,-1,3
863,4.82613,2.358,-1,3
864,4.82849,2.356,-1,3
865,4.83085,2.363,-1,3
866,4.83321,2.363,-1,3
867,4.83558,2.368,-1,3
868,4.83795,2.366,-1,3
869,4.84032,2.372,-1,3
870,4.84269,2.371,-1,3
871,4.84506,2.373,-1,3
872,4.84744,2.377,-1,3
873,4.84981,2.376,-1,3
