cnt,pos,speed,Dir,Force,
1,0,1.6459,-1,3
2,0.00159001,1.6361,-1,3
3,0.00317001,1.6265,-1,3
4,0.00475001,1.6174,-1,3
5,0.00630999,1.6079,-1,3
6,0.00785995,1.5981,-1,3
7,0.0094099,1.588,-1,3
8,0.0109298,1.5774,-1,3
9,0.01245,1.5669,-1,3
10,0.0139599,1.5566,-1,3
11,0.01546,1.5464,-1,3
12,0.0169499,1.5362,-1,3
13,0.01843,1.5257,-1,3
14,0.0198998,1.5152,-1,3
15,0.0213599,1.5045,-1,3
16,0.0228,1.494,-1,3
17,0.02424,1.4838,-1,3
18,0.0256698,1.4736,-1,3
19,0.0270898,1.4634,-1,3
20,0.0284898,1.4531,-1,3
21,0.0298898,1.4428,-1,3
22,0.0312798,1.4328,-1,3
23,0.03266,1.4232,-1,3
24,0.03403,1.4133,-1,3
25,0.0353999,1.4037,-1,3
26,0.0367498,1.3941,-1,3
27,0.03809,1.3845,-1,3
28,0.0394199,1.375,-1,3
29,0.0407498,1.366,-1,3
30,0.0420699,1.3572,-1,3
31,0.04338,1.3487,-1,3
32,0.0446899,1.3404,-1,3
33,0.04598,1.3319,-1,3
34,0.0472698,1.3237,-1,3
35,0.0485499,1.3154,-1,3
36,0.0498199,1.3075,-1,3
37,0.0511,1.3005,-1,3
38,0.0523598,1.2942,-1,3
39,0.0536199,1.2874,-1,3
40,0.0548699,1.2802,-1,3
41,0.0561199,1.2734,-1,3
42,0.0573599,1.2668,-1,3
43,0.0585899,1.261,-1,3
44,0.05983,1.2556,-1,3
45,0.06106,1.2513,-1,3
46,0.06229,1.2464,-1,3
47,0.0634999,1.2404,-1,3
48,0.0647099,1.2348,-1,3
49,0.0659299,1.2305,-1,3
50,0.0683599,1.227,-1,3
51,0.0695598,1.2231,-1,3
52,0.0707698,1.2194,-1,3
53,0.07196,1.215,-1,3
54,0.0731599,1.2114,-1,3
55,0.0743599,1.2084,-1,3
56,0.0755699,1.2064,-1,3
57,0.0767698,1.2051,-1,3
58,0.07796,1.203,-1,3
59,0.07915,1.2004,-1,3
60,0.0803499,1.1989,-1,3
61,0.0815499,1.1985,-1,3
62,0.0827498,1.1983,-1,3
63,0.0839498,1.1991,-1,3
64,0.08515,1.1989,-1,3
65,0.08634,1.1977,-1,3
66,0.0875399,1.1976,-1,3
67,0.0887499,1.1988,-1,3
68,0.0899699,1.2011,-1,3
69,0.0911798,1.2032,-1,3
70,0.0923898,1.2043,-1,3
71,0.0936098,1.2059,-1,3
72,0.0948298,1.2083,-1,3
73,0.0960598,1.2109,-1,3
74,0.0972898,1.2146,-1,3
75,0.0985298,1.2193,-1,3
76,0.0997798,1.2235,-1,3
77,0.10102,1.2269,-1,3
78,0.10228,1.2306,-1,3
79,0.10354,1.2355,-1,3
80,0.10481,1.2416,-1,3
81,0.10608,1.2475,-1,3
82,0.10737,1.2535,-1,3
83,0.10865,1.2594,-1,3
84,0.10994,1.2649,-1,3
85,0.11124,1.2709,-1,3
86,0.11256,1.2781,-1,3
87,0.11389,1.2862,-1,3
88,0.11521,1.2939,-1,3
89,0.11654,1.3008,-1,3
90,0.11789,1.3082,-1,3
91,0.11925,1.3163,-1,3
92,0.12062,1.3248,-1,3
93,0.12199,1.334,-1,3
94,0.12338,1.3434,-1,3
95,0.12477,1.3524,-1,3
96,0.12617,1.3614,-1,3
97,0.1276,1.3713,-1,3
98,0.12903,1.382,-1,3
99,0.13048,1.3934,-1,3
100,0.13193,1.4044,-1,3
101,0.1334,1.4151,-1,3
102,0.13487,1.4259,-1,3
103,0.13637,1.4377,-1,3
104,0.13788,1.4502,-1,3
105,0.13939,1.4623,-1,3
106,0.14092,1.4739,-1,3
107,0.14245,1.485,-1,3
108,0.14401,1.4971,-1,3
109,0.14558,1.51,-1,3
110,0.14716,1.5223,-1,3
111,0.14874,1.5337,-1,3
112,0.15034,1.546,-1,3
113,0.15195,1.5581,-1,3
114,0.15359,1.5706,-1,3
115,0.15523,1.5838,-1,3
116,0.15688,1.5963,-1,3
117,0.15854,1.6085,-1,3
118,0.16022,1.621,-1,3
119,0.16192,1.6337,-1,3
120,0.16363,1.647,-1,3
121,0.16534,1.6602,-1,3
122,0.16706,1.6724,-1,3
123,0.1688,1.6849,-1,3
124,0.17057,1.6979,-1,3
125,0.17234,1.7108,-1,3
126,0.17411,1.7233,-1,3
127,0.17589,1.7357,-1,3
128,0.1777,1.7482,-1,3
129,0.17952,1.7608,-1,3
130,0.18135,1.7723,-1,3
131,0.18318,1.7844,-1,3
132,0.18503,1.797,-1,3
133,0.1869,1.8094,-1,3
134,0.18877,1.8208,-1,3
135,0.19066,1.8331,-1,3
136,0.19255,1.8453,-1,3
137,0.19446,1.8591,-1,3
138,0.19639,1.8706,-1,3
139,0.19831,1.881,-1,3
140,0.20025,1.8925,-1,3
141,0.20221,1.9048,-1,3
142,0.20614,1.917,-1,3
143,0.20813,1.9284,-1,3
144,0.21012,1.9399,-1,3
145,0.21212,1.9507,-1,3
146,0.21413,1.9621,-1,3
147,0.21615,1.9718,-1,3
148,0.21818,1.9824,-1,3
149,0.22021,1.9929,-1,3
150,0.22225,2.0031,-1,3
151,0.2243,2.0129,-1,3
152,0.22636,2.0218,-1,3
153,0.22843,2.0302,-1,3
154,0.2305,2.0378,-1,3
155,0.23258,2.0461,-1,3
156,0.23468,2.0544,-1,3
157,0.23677,2.0621,-1,3
158,0.23887,2.0692,-1,3
159,0.24098,2.0769,-1,3
160,0.2431,2.085,-1,3
161,0.24523,2.0923,-1,3
162,0.24736,2.0992,-1,3
163,0.2495,2.1066,-1,3
164,0.25165,2.1146,-1,3
165,0.2538,2.1211,-1,3
166,0.25596,2.1278,-1,3
167,0.25812,2.1348,-1,3
168,0.26029,2.142,-1,3
169,0.26246,2.1483,-1,3
170,0.26465,2.1541,-1,3
171,0.26683,2.1603,-1,3
172,0.26903,2.1668,-1,3
173,0.27123,2.1728,-1,3
174,0.27343,2.1787,-1,3
175,0.27564,2.1844,-1,3
176,0.27786,2.1899,-1,3
177,0.28008,2.1958,-1,3
178,0.28231,2.2016,-1,3
179,0.28454,2.207,-1,3
180,0.28677,2.2123,-1,3
181,0.28901,2.2177,-1,3
182,0.29126,2.2232,-1,3
183,0.29351,2.228,-1,3
184,0.29576,2.2326,-1,3
185,0.29802,2.238,-1,3
186,0.30029,2.2428,-1,3
187,0.30255,2.2468,-1,3
188,0.30482,2.2515,-1,3
189,0.3071,2.2566,-1,3
190,0.30938,2.261,-1,3
191,0.31166,2.2652,-1,3
192,0.31625,2.2694,-1,3
193,0.31854,2.2739,-1,3
194,0.32084,2.2784,-1,3
195,0.32313,2.2818,-1,3
196,0.32543,2.2855,-1,3
197,0.32774,2.2898,-1,3
198,0.33005,2.2933,-1,3
199,0.33235,2.296,-1,3
200,0.33467,2.2996,-1,3
201,0.33699,2.303,-1,3
202,0.3393,2.3058,-1,3
203,0.34162,2.3085,-1,3
204,0.34395,2.311,-1,3
205,0.34627,2.3142,-1,3
206,0.3486,2.3171,-1,3
207,0.35093,2.3194,-1,3
208,0.35327,2.3218,-1,3
209,0.3556,2.3246,-1,3
210,0.35794,2.3271,-1,3
211,0.36028,2.3291,-1,3
212,0.36262,2.3315,-1,3
213,0.36496,2.3335,-1,3
214,0.36731,2.3359,-1,3
215,0.36965,2.3373,-1,3
216,0.372,2.3395,-1,3
217,0.37434,2.3413,-1,3
218,0.3767,2.3433,-1,3
219,0.37905,2.3448,-1,3
220,0.38141,2.3468,-1,3
221,0.38377,2.3489,-1,3
222,0.38612,2.3503,-1,3
223,0.38848,2.352,-1,3
224,0.39084,2.3533,-1,3
225,0.39556,2.3552,-1,3
226,0.39793,2.3567,-1,3
227,0.40029,2.3582,-1,3
228,0.40029,2.3596,-1,3
229,0.40266,2.3615,-1,3
230,0.40502,2.3622,-1,3
231,0.40739,2.3633,-1,3
232,0.41213,2.3644,-1,3
233,0.4145,2.366,-1,3
234,0.41687,2.367,-1,3
235,0.41924,2.3679,-1,3
236,0.42161,2.3683,-1,3
237,0.42398,2.3693,-1,3
238,0.42635,2.3695,-1,3
239,0.42872,2.3696,-1,3
240,0.4311,2.3708,-1,3
241,0.43347,2.371,-1,3
242,0.43584,2.3711,-1,3
243,0.43821,2.3714,-1,3
244,0.44059,2.3719,-1,3
245,0.44296,2.3724,-1,3
246,0.44533,2.3725,-1,3
247,0.44771,2.3728,-1,3
248,0.45008,2.3731,-1,3
249,0.45245,2.3735,-1,3
250,0.45483,2.3734,-1,3
251,0.4572,2.3734,-1,3
252,0.45957,2.3738,-1,3
253,0.46195,2.3739,-1,3
254,0.46432,2.3736,-1,3
255,0.46669,2.3733,-1,3
256,0.46907,2.3737,-1,3
257,0.47144,2.3735,-1,3
258,0.47381,2.373,-1,3
259,0.47618,2.3728,-1,3
260,0.47856,2.3728,-1,3
261,0.48093,2.3726,-1,3
262,0.4833,2.3722,-1,3
263,0.48567,2.3715,-1,3
264,0.48804,2.3714,-1,3
265,0.4904,2.3709,-1,3
266,0.49277,2.3699,-1,3
267,0.49514,2.3696,-1,3
268,0.4975,2.3693,-1,3
269,0.49987,2.3687,-1,3
270,0.50223,2.3674,-1,3
271,0.5046,2.367,-1,3
272,0.50696,2.3663,-1,3
273,0.50932,2.3656,-1,3
274,0.51168,2.3644,-1,3
275,0.51404,2.3635,-1,3
276,0.5164,2.3632,-1,3
277,0.51876,2.3616,-1,3
278,0.52111,2.3605,-1,3
279,0.52346,2.3594,-1,3
280,0.52582,2.3586,-1,3
281,0.52817,2.3569,-1,3
282,0.53287,2.3561,-1,3
283,0.53522,2.3548,-1,3
284,0.53757,2.3536,-1,3
285,0.53992,2.3526,-1,3
286,0.54226,2.351,-1,3
287,0.5446,2.3498,-1,3
288,0.54695,2.3486,-1,3
289,0.54929,2.3473,-1,3
290,0.55162,2.3454,-1,3
291,0.55396,2.3445,-1,3
292,0.5563,2.3425,-1,3
293,0.55863,2.3411,-1,3
294,0.56096,2.3394,-1,3
295,0.56329,2.3377,-1,3
296,0.56562,2.3358,-1,3
297,0.56794,2.3338,-1,3
298,0.57027,2.3322,-1,3
299,0.57259,2.3302,-1,3
300,0.57491,2.3286,-1,3
301,0.57722,2.3258,-1,3
302,0.57954,2.3239,-1,3
303,0.58185,2.3218,-1,3
304,0.58416,2.3198,-1,3
305,0.58647,2.3173,-1,3
306,0.58877,2.3151,-1,3
307,0.59107,2.3128,-1,3
308,0.59337,2.3105,-1,3
309,0.59567,2.3083,-1,3
310,0.59797,2.3056,-1,3
311,0.60026,2.3036,-1,3
312,0.60255,2.3012,-1,3
313,0.60483,2.2983,-1,3
314,0.60712,2.2956,-1,3
315,0.6094,2.2933,-1,3
316,0.61168,2.2906,-1,3
317,0.61395,2.2877,-1,3
318,0.61621,2.2838,-1,3
319,0.61848,2.2811,-1,3
320,0.62075,2.2782,-1,3
321,0.623,2.2746,-1,3
322,0.62525,2.2708,-1,3
323,0.62751,2.2671,-1,3
324,0.62975,2.2631,-1,3
325,0.63424,2.2586,-1,3
326,0.63647,2.2548,-1,3
327,0.6387,2.2508,-1,3
328,0.64093,2.247,-1,3
329,0.64316,2.2423,-1,3
330,0.64538,2.238,-1,3
331,0.64759,2.2338,-1,3
332,0.6498,2.2297,-1,3
333,0.65201,2.2258,-1,3
334,0.65421,2.2218,-1,3
335,0.65642,2.2181,-1,3
336,0.65861,2.2139,-1,3
337,0.6608,2.2099,-1,3
338,0.66299,2.2056,-1,3
339,0.66517,2.2016,-1,3
340,0.66735,2.1976,-1,3
341,0.66953,2.1935,-1,3
342,0.67169,2.1887,-1,3
343,0.67386,2.1846,-1,3
344,0.67602,2.1809,-1,3
345,0.67818,2.1764,-1,3
346,0.68033,2.1718,-1,3
347,0.68248,2.1679,-1,3
348,0.68463,2.1647,-1,3
349,0.68677,2.1603,-1,3
350,0.68891,2.1559,-1,3
351,0.69105,2.1521,-1,3
352,0.69318,2.1491,-1,3
353,0.6953,2.1449,-1,3
354,0.69743,2.1405,-1,3
355,0.69955,2.1368,-1,3
356,0.70166,2.133,-1,3
357,0.70377,2.1287,-1,3
358,0.70588,2.1244,-1,3
359,0.70798,2.1207,-1,3
360,0.71007,2.1162,-1,3
361,0.71217,2.1123,-1,3
362,0.71426,2.1077,-1,3
363,0.71635,2.1038,-1,3
364,0.72051,2.0996,-1,3
365,0.72259,2.0956,-1,3
366,0.72466,2.0914,-1,3
367,0.72672,2.087,-1,3
368,0.72878,2.0825,-1,3
369,0.73085,2.0784,-1,3
370,0.73291,2.075,-1,3
371,0.73496,2.0704,-1,3
372,0.737,2.0665,-1,3
373,0.73905,2.0621,-1,3
374,0.74109,2.0586,-1,3
375,0.74313,2.0547,-1,3
376,0.74517,2.0508,-1,3
377,0.74719,2.047,-1,3
378,0.74922,2.0433,-1,3
379,0.75124,2.0393,-1,3
380,0.75326,2.0356,-1,3
381,0.75528,2.0319,-1,3
382,0.75728,2.0274,-1,3
383,0.75929,2.024,-1,3
384,0.76129,2.02,-1,3
385,0.76329,2.0157,-1,3
386,0.76528,2.0113,-1,3
387,0.76727,2.0074,-1,3
388,0.76926,2.0038,-1,3
389,0.77124,1.9997,-1,3
390,0.77321,1.995,-1,3
391,0.77518,1.9907,-1,3
392,0.77715,1.9875,-1,3
393,0.77912,1.9832,-1,3
394,0.78304,1.9783,-1,3
395,0.78304,1.9739,-1,3
396,0.78499,1.9702,-1,3
397,0.78694,1.9665,-1,3
398,0.78889,1.9623,-1,3
399,0.79083,1.9585,-1,3
400,0.79471,1.9545,-1,3
401,0.79665,1.9511,-1,3
402,0.79858,1.9473,-1,3
403,0.80051,1.9437,-1,3
404,0.80243,1.9405,-1,3
405,0.80435,1.9373,-1,3
406,0.80628,1.9345,-1,3
407,0.8082,1.9317,-1,3
408,0.81012,1.9286,-1,3
409,0.81203,1.9253,-1,3
410,0.81394,1.9229,-1,3
411,0.81585,1.9208,-1,3
412,0.81776,1.9186,-1,3
413,0.81967,1.9165,-1,3
414,0.82158,1.9147,-1,3
415,0.82349,1.9131,-1,3
416,0.82539,1.9115,-1,3
417,0.8273,1.9095,-1,3
418,0.8292,1.9083,-1,3
419,0.8311,1.9073,-1,3
420,0.833,1.9062,-1,3
421,0.8349,1.9048,-1,3
422,0.8368,1.9039,-1,3
423,0.83871,1.9035,-1,3
424,0.84061,1.9029,-1,3
425,0.84251,1.9024,-1,3
426,0.84441,1.9018,-1,3
427,0.84631,1.9018,-1,3
428,0.84822,1.9016,-1,3
429,0.85012,1.9016,-1,3
430,0.85202,1.9017,-1,3
431,0.85393,1.9023,-1,3
432,0.85583,1.9028,-1,3
433,0.85774,1.9027,-1,3
434,0.85964,1.903,-1,3
435,0.86155,1.9037,-1,3
436,0.86346,1.9049,-1,3
437,0.86537,1.9057,-1,3
438,0.86728,1.9064,-1,3
439,0.86919,1.9075,-1,3
440,0.87111,1.9093,-1,3
441,0.87303,1.9106,-1,3
442,0.87495,1.9117,-1,3
443,0.87687,1.9137,-1,3
444,0.88072,1.9161,-1,3
445,0.88265,1.9184,-1,3
446,0.88459,1.9204,-1,3
447,0.88652,1.9229,-1,3
448,0.88846,1.9254,-1,3
449,0.8904,1.9282,-1,3
450,0.89234,1.931,-1,3
451,0.89429,1.934,-1,3
452,0.89624,1.9371,-1,3
453,0.89819,1.9396,-1,3
454,0.90015,1.9426,-1,3
455,0.90211,1.946,-1,3
456,0.90408,1.9493,-1,3
457,0.90604,1.9522,-1,3
458,0.90801,1.9553,-1,3
459,0.90998,1.9589,-1,3
460,0.91197,1.9623,-1,3
461,0.91395,1.9653,-1,3
462,0.91593,1.9687,-1,3
463,0.91792,1.9727,-1,3
464,0.91991,1.9766,-1,3
465,0.92191,1.9798,-1,3
466,0.92391,1.9832,-1,3
467,0.92591,1.9873,-1,3
468,0.92792,1.9916,-1,3
469,0.92994,1.9953,-1,3
470,0.93195,1.999,-1,3
471,0.93398,2.0032,-1,3
472,0.936,2.0073,-1,3
473,0.93803,2.0116,-1,3
474,0.94007,2.0157,-1,3
475,0.94211,2.0204,-1,3
476,0.94416,2.0246,-1,3
477,0.9462,2.029,-1,3
478,0.94827,2.0345,-1,3
479,0.95033,2.0397,-1,3
480,0.9524,2.0445,-1,3
481,0.95447,2.0492,-1,3
482,0.95655,2.0555,-1,3
483,0.95864,2.0613,-1,3
484,0.96074,2.0666,-1,3
485,0.96283,2.0719,-1,3
486,0.96494,2.0782,-1,3
487,0.96705,2.0847,-1,3
488,0.96917,2.0898,-1,3
489,0.97129,2.0954,-1,3
490,0.97342,2.1018,-1,3
491,0.97555,2.1084,-1,3
492,0.97769,2.1146,-1,3
493,0.97984,2.1212,-1,3
494,0.98416,2.1283,-1,3
495,0.98416,2.136,-1,3
496,0.98633,2.1428,-1,3
497,0.98851,2.1494,-1,3
498,0.9907,2.1563,-1,3
499,0.99289,2.163,-1,3
500,0.99509,2.1704,-1,3
501,0.9973,2.1781,-1,3
502,0.99952,2.1848,-1,3
503,1.00174,2.1913,-1,3
504,1.00397,2.1986,-1,3
505,1.00622,2.2057,-1,3
506,1.00847,2.2133,-1,3
507,1.01072,2.2209,-1,3
508,1.01299,2.2291,-1,3
509,1.01526,2.2379,-1,3
510,1.01755,2.2459,-1,3
511,1.01984,2.2541,-1,3
512,1.02214,2.2626,-1,3
513,1.02445,2.2716,-1,3
514,1.02677,2.28,-1,3
515,1.0291,2.2883,-1,3
516,1.03143,2.2967,-1,3
517,1.03378,2.3057,-1,3
518,1.03613,2.3146,-1,3
519,1.03849,2.323,-1,3
520,1.04086,2.3315,-1,3
521,1.04325,2.3407,-1,3
522,1.04564,2.3496,-1,3
523,1.04804,2.358,-1,3
524,1.05044,2.367,-1,3
525,1.05286,2.376,-1,3
526,1.05529,2.3852,-1,3
527,1.05772,2.3938,-1,3
528,1.06016,2.4029,-1,3
529,1.06261,2.4118,-1,3
530,1.06508,2.4211,-1,3
531,1.06755,2.4295,-1,3
532,1.07003,2.4384,-1,3
533,1.07251,2.4475,-1,3
534,1.07501,2.4564,-1,3
535,1.07751,2.4648,-1,3
536,1.08002,2.4738,-1,3
537,1.08255,2.4829,-1,3
538,1.08508,2.4912,-1,3
539,1.08761,2.4999,-1,3
540,1.09016,2.5087,-1,3
541,1.09272,2.5175,-1,3
542,1.09528,2.526,-1,3
543,1.09786,2.535,-1,3
544,1.10044,2.5434,-1,3
545,1.10303,2.5523,-1,3
546,1.10563,2.5609,-1,3
547,1.10824,2.5692,-1,3
548,1.11085,2.5775,-1,3
549,1.11347,2.5858,-1,3
550,1.1161,2.5937,-1,3
551,1.11874,2.6016,-1,3
552,1.12139,2.61,-1,3
553,1.12403,2.6172,-1,3
554,1.12669,2.6246,-1,3
555,1.12935,2.6322,-1,3
556,1.13203,2.6394,-1,3
557,1.13471,2.6466,-1,3
558,1.1374,2.6543,-1,3
559,1.14009,2.6613,-1,3
560,1.14278,2.6679,-1,3
561,1.14549,2.675,-1,3
562,1.1482,2.6816,-1,3
563,1.15092,2.6887,-1,3
564,1.15364,2.6955,-1,3
565,1.15637,2.7017,-1,3
566,1.15911,2.7081,-1,3
567,1.16185,2.7146,-1,3
568,1.1646,2.7203,-1,3
569,1.16735,2.7267,-1,3
570,1.17011,2.7331,-1,3
571,1.17287,2.7383,-1,3
572,1.17564,2.7439,-1,3
573,1.17842,2.7497,-1,3
574,1.18119,2.7549,-1,3
575,1.18397,2.7604,-1,3
576,1.18676,2.7654,-1,3
577,1.18955,2.77,-1,3
578,1.19235,2.7751,-1,3
579,1.19515,2.7798,-1,3
580,1.19795,2.784,-1,3
581,1.20076,2.7886,-1,3
582,1.20357,2.7927,-1,3
583,1.20919,2.7966,-1,3
584,1.21201,2.8008,-1,3
585,1.21483,2.8046,-1,3
586,1.21766,2.8085,-1,3
587,1.22048,2.812,-1,3
588,1.22331,2.8152,-1,3
589,1.22614,2.8182,-1,3
590,1.22898,2.8215,-1,3
591,1.23182,2.8249,-1,3
592,1.23466,2.8277,-1,3
593,1.23749,2.8299,-1,3
594,1.24034,2.8325,-1,3
595,1.24318,2.8347,-1,3
596,1.24602,2.8364,-1,3
597,1.24887,2.8389,-1,3
598,1.25172,2.8408,-1,3
599,1.25457,2.8424,-1,3
600,1.25742,2.8441,-1,3
601,1.26027,2.8453,-1,3
602,1.26312,2.8465,-1,3
603,1.26597,2.8478,-1,3
604,1.26883,2.8487,-1,3
605,1.27453,2.8496,-1,3
606,1.27738,2.8506,-1,3
607,1.28023,2.8509,-1,3
608,1.28308,2.851,-1,3
609,1.28593,2.8513,-1,3
610,1.28878,2.8512,-1,3
611,1.29163,2.851,-1,3
612,1.29448,2.8508,-1,3
613,1.29733,2.8506,-1,3
614,1.30017,2.8498,-1,3
615,1.30302,2.8494,-1,3
616,1.30587,2.8487,-1,3
617,1.30871,2.8475,-1,3
618,1.31155,2.8471,-1,3
619,1.31439,2.8463,-1,3
620,1.31723,2.8453,-1,3
621,1.32007,2.8442,-1,3
622,1.32291,2.8428,-1,3
623,1.32575,2.8413,-1,3
624,1.33141,2.8401,-1,3
625,1.33424,2.8385,-1,3
626,1.33424,2.8371,-1,3
627,1.33707,2.8357,-1,3
628,1.3399,2.8336,-1,3
629,1.34555,2.8318,-1,3
630,1.34837,2.8298,-1,3
631,1.35118,2.8274,-1,3
632,1.354,2.8254,-1,3
633,1.35681,2.8238,-1,3
634,1.35963,2.8218,-1,3
635,1.36244,2.8195,-1,3
636,1.36524,2.8171,-1,3
637,1.36805,2.8148,-1,3
638,1.37085,2.8128,-1,3
639,1.37366,2.811,-1,3
640,1.37646,2.8091,-1,3
641,1.37925,2.8073,-1,3
642,1.38205,2.8056,-1,3
643,1.38484,2.8029,-1,3
644,1.38764,2.8011,-1,3
645,1.39043,2.7991,-1,3
646,1.39321,2.7968,-1,3
647,1.39599,2.7948,-1,3
648,1.39878,2.7926,-1,3
649,1.40155,2.79,-1,3
650,1.40433,2.7877,-1,3
651,1.40711,2.7853,-1,3
652,1.40988,2.7826,-1,3
653,1.41265,2.7803,-1,3
654,1.41541,2.7774,-1,3
655,1.41817,2.775,-1,3
656,1.42094,2.7727,-1,3
657,1.42369,2.7702,-1,3
658,1.42645,2.7673,-1,3
659,1.4292,2.7648,-1,3
660,1.43195,2.7623,-1,3
661,1.4347,2.76,-1,3
662,1.43745,2.7575,-1,3
663,1.44019,2.7549,-1,3
664,1.44293,2.7526,-1,3
665,1.44841,2.75,-1,3
666,1.45115,2.7473,-1,3
667,1.45388,2.7444,-1,3
668,1.45661,2.742,-1,3
669,1.45934,2.7396,-1,3
670,1.46206,2.7366,-1,3
671,1.46478,2.7337,-1,3
672,1.4675,2.731,-1,3
673,1.47022,2.7285,-1,3
674,1.47293,2.7257,-1,3
675,1.47565,2.7233,-1,3
676,1.47835,2.7206,-1,3
677,1.48106,2.718,-1,3
678,1.48376,2.7157,-1,3
679,1.48647,2.7134,-1,3
680,1.48917,2.711,-1,3
681,1.49187,2.7084,-1,3
682,1.49456,2.706,-1,3
683,1.49725,2.7035,-1,3
684,1.50263,2.7006,-1,3
685,1.50532,2.6976,-1,3
686,1.508,2.6953,-1,3
687,1.51068,2.6929,-1,3
688,1.51336,2.6901,-1,3
689,1.51604,2.6873,-1,3
690,1.51871,2.6848,-1,3
691,1.52138,2.6823,-1,3
692,1.52405,2.6799,-1,3
693,1.52672,2.6777,-1,3
694,1.52939,2.6757,-1,3
695,1.53205,2.6737,-1,3
696,1.53472,2.6715,-1,3
697,1.53738,2.6694,-1,3
698,1.54004,2.6676,-1,3
699,1.54269,2.6656,-1,3
700,1.54535,2.6637,-1,3
701,1.548,2.6621,-1,3
702,1.55065,2.66,-1,3
703,1.5533,2.658,-1,3
704,1.55596,2.6568,-1,3
705,1.5586,2.6546,-1,3
706,1.56125,2.6526,-1,3
707,1.56389,2.651,-1,3
708,1.56653,2.649,-1,3
709,1.56917,2.6471,-1,3
710,1.57181,2.6455,-1,3
711,1.57444,2.6436,-1,3
712,1.57708,2.642,-1,3
713,1.57971,2.6406,-1,3
714,1.58234,2.6386,-1,3
715,1.58498,2.6369,-1,3
716,1.5876,2.6354,-1,3
717,1.59023,2.6339,-1,3
718,1.59285,2.6324,-1,3
719,1.59548,2.631,-1,3
720,1.5981,2.6291,-1,3
721,1.60072,2.6279,-1,3
722,1.60334,2.6262,-1,3
723,1.60596,2.6243,-1,3
724,1.60858,2.6226,-1,3
725,1.61119,2.6216,-1,3
726,1.61641,2.6201,-1,3
727,1.61902,2.6183,-1,3
728,1.62163,2.6163,-1,3
729,1.62423,2.6142,-1,3
730,1.62684,2.6126,-1,3
731,1.62944,2.6105,-1,3
732,1.63204,2.6085,-1,3
733,1.63464,2.6068,-1,3
734,1.63723,2.605,-1,3
735,1.63983,2.6031,-1,3
736,1.64243,2.6013,-1,3
737,1.64502,2.5996,-1,3
738,1.64761,2.5985,-1,3
739,1.6502,2.597,-1,3
740,1.65279,2.5955,-1,3
741,1.65538,2.5944,-1,3
742,1.65797,2.5936,-1,3
743,1.66056,2.5926,-1,3
744,1.66315,2.5915,-1,3
745,1.66573,2.5902,-1,3
746,1.67091,2.5893,-1,3
747,1.67091,2.5886,-1,3
748,1.67608,2.5874,-1,3
749,1.67608,2.5865,-1,3
750,1.67866,2.5854,-1,3
751,1.68123,2.5841,-1,3
752,1.68382,2.5833,-1,3
753,1.68898,2.5824,-1,3
754,1.69156,2.5815,-1,3
755,1.69413,2.5806,-1,3
756,1.69671,2.5797,-1,3
757,1.69928,2.5788,-1,3
758,1.70186,2.5783,-1,3
759,1.70444,2.5777,-1,3
760,1.70701,2.5771,-1,3
761,1.70958,2.5761,-1,3
762,1.71215,2.5752,-1,3
763,1.71472,2.5742,-1,3
764,1.71729,2.5733,-1,3
765,1.71986,2.5727,-1,3
766,1.72242,2.5716,-1,3
767,1.72499,2.5703,-1,3
768,1.72755,2.5688,-1,3
769,1.73011,2.5676,-1,3
770,1.73268,2.5666,-1,3
771,1.73523,2.5655,-1,3
772,1.73779,2.5637,-1,3
773,1.74034,2.5618,-1,3
774,1.74544,2.5597,-1,3
775,1.74799,2.5573,-1,3
776,1.75053,2.555,-1,3
777,1.75307,2.5524,-1,3
778,1.7556,2.5495,-1,3
779,1.75813,2.5462,-1,3
780,1.76066,2.5427,-1,3
781,1.76318,2.5392,-1,3
782,1.7657,2.5355,-1,3
783,1.76821,2.5319,-1,3
784,1.77072,2.5279,-1,3
785,1.77322,2.5237,-1,3
786,1.77572,2.5195,-1,3
787,1.77822,2.5151,-1,3
788,1.78071,2.5107,-1,3
789,1.78319,2.5062,-1,3
790,1.78567,2.5014,-1,3
791,1.78815,2.4967,-1,3
792,1.79062,2.4921,-1,3
793,1.79308,2.4869,-1,3
794,1.79554,2.4821,-1,3
795,1.798,2.4776,-1,3
796,1.80045,2.4725,-1,3
797,1.80289,2.4675,-1,3
798,1.80534,2.463,-1,3
799,1.80777,2.4583,-1,3
800,1.8102,2.4534,-1,3
801,1.81263,2.4485,-1,3
802,1.81506,2.4441,-1,3
803,1.81747,2.4393,-1,3
804,1.81989,2.4346,-1,3
805,1.8223,2.4299,-1,3
806,1.8247,2.4255,-1,3
807,1.82711,2.4213,-1,3
808,1.82951,2.4168,-1,3
809,1.8319,2.4122,-1,3
810,1.83429,2.4084,-1,3
811,1.83668,2.4047,-1,3
812,1.83906,2.4005,-1,3
813,1.84144,2.3969,-1,3
814,1.84382,2.3935,-1,3
815,1.8462,2.3895,-1,3
816,1.84857,2.3858,-1,3
817,1.85094,2.3826,-1,3
818,1.85331,2.379,-1,3
819,1.85568,2.3761,-1,3
820,1.85804,2.3729,-1,3
821,1.8604,2.3702,-1,3
822,1.86512,2.3672,-1,3
823,1.86747,2.3649,-1,3
824,1.86983,2.3624,-1,3
825,1.87218,2.3606,-1,3
826,1.87453,2.359,-1,3
827,1.87688,2.3569,-1,3
828,1.87923,2.3551,-1,3
829,1.88158,2.3535,-1,3
830,1.88393,2.3525,-1,3
831,1.88627,2.3508,-1,3
832,1.88861,2.3496,-1,3
833,1.89096,2.3486,-1,3
834,1.89331,2.3478,-1,3
835,1.89565,2.3467,-1,3
836,1.89799,2.3455,-1,3
837,1.90034,2.3453,-1,3
838,1.90268,2.3452,-1,3
839,1.90502,2.3448,-1,3
