cnt,pos,speed,Dir,Force,
1,3.10556,2.706,-1,5
2,3.10825,2.692,-1,5
3,3.11094,2.682,-1,5
4,3.11361,2.672,-1,5
5,3.11627,2.664,-1,5
6,3.11892,2.652,-1,5
7,3.12157,2.643,-1,5
8,3.12419,2.624,-1,5
9,3.12680,2.610,-1,5
10,3.12939,2.593,-1,5
11,3.13197,2.579,-1,5
12,3.13454,2.569,-1,5
13,3.13709,2.551,-1,5
14,3.13963,2.541,-1,5
15,3.14216,2.527,-1,5
16,3.14467,2.511,-1,5
17,3.14717,2.497,-1,5
18,3.14965,2.480,-1,5
19,3.15211,2.459,-1,5
20,3.15455,2.443,-1,5
21,3.15698,2.430,-1,5
22,3.15940,2.417,-1,5
23,3.16180,2.400,-1,5
24,3.16418,2.382,-1,5
25,3.16654,2.363,-1,5
26,3.16889,2.348,-1,5
27,3.17122,2.334,-1,5
28,3.17354,2.314,-1,5
29,3.17583,2.298,-1,5
30,3.17812,2.287,-1,5
31,3.18264,2.249,-1,5
32,3.18487,2.232,-1,5
33,3.18710,2.223,-1,5
34,3.18930,2.204,-1,5
35,3.19149,2.187,-1,5
36,3.19366,2.170,-1,5
37,3.19582,2.160,-1,5
38,3.19796,2.141,-1,5
39,3.20008,2.127,-1,5
40,3.20219,2.111,-1,5
41,3.20429,2.095,-1,5
42,3.20637,2.082,-1,5
43,3.20844,2.066,-1,5
44,3.21049,2.053,-1,5
45,3.21252,2.032,-1,5
46,3.21455,2.024,-1,5
47,3.21656,2.012,-1,5
48,3.21855,1.995,-1,5
49,3.22053,1.976,-1,5
50,3.22249,1.962,-1,5
51,3.22445,1.959,-1,5
52,3.22639,1.945,-1,5
53,3.22832,1.922,-1,5
54,3.23022,1.906,-1,5
55,3.23212,1.900,-1,5
56,3.23402,1.897,-1,5
57,3.23590,1.875,-1,5
58,3.23775,1.855,-1,5
59,3.23960,1.847,-1,5
60,3.24144,1.845,-1,5
61,3.24327,1.830,-1,5
62,3.24508,1.809,-1,5
63,3.24688,1.798,-1,5
64,3.24867,1.793,-1,5
65,3.25045,1.781,-1,5
66,3.25222,1.767,-1,5
67,3.25398,1.755,-1,5
68,3.25572,1.749,-1,5
69,3.25746,1.740,-1,5
70,3.25919,1.722,-1,5
71,3.26090,1.715,-1,5
72,3.26262,1.715,-1,5
73,3.26432,1.702,-1,5
74,3.26600,1.685,-1,5
75,3.26768,1.674,-1,5
76,3.26935,1.674,-1,5
77,3.27103,1.677,-1,5
78,3.27269,1.661,-1,5
79,3.27433,1.640,-1,5
80,3.27596,1.634,-1,5
81,3.27760,1.639,-1,5
82,3.27924,1.640,-1,5
83,3.28087,1.628,-1,5
84,3.28248,1.607,-1,5
85,3.28408,1.601,-1,5
86,3.28569,1.613,-1,5
87,3.28731,1.615,-1,5
88,3.28891,1.600,-1,5
89,3.29049,1.583,-1,5
90,3.29207,1.580,-1,5
91,3.29526,1.600,-1,5
92,3.29526,1.579,-1,5
93,3.29841,1.566,-1,5
94,3.29998,1.575,-1,5
95,3.30157,1.585,-1,5
96,3.30316,1.586,-1,5
97,3.30472,1.570,-1,5
98,3.30628,1.559,-1,5
99,3.30786,1.573,-1,5
100,3.30945,1.589,-1,5
101,3.31103,1.585,-1,5
102,3.31260,1.568,-1,5
103,3.31416,1.564,-1,5
104,3.31575,1.583,-1,5
105,3.31735,1.601,-1,5
106,3.31895,1.600,-1,5
107,3.32053,1.578,-1,5
108,3.32211,1.579,-1,5
109,3.32371,1.620,-1,5
110,3.32695,1.620,-1,5
111,3.32855,1.607,-1,5
112,3.33015,1.600,-1,5
113,3.33178,1.628,-1,5
114,3.33343,1.651,-1,5
115,3.33508,1.650,-1,5
116,3.33672,1.640,-1,5
117,3.33836,1.642,-1,5
118,3.34003,1.663,-1,5
119,3.34172,1.689,-1,5
120,3.34341,1.690,-1,5
121,3.34509,1.682,-1,5
122,3.34678,1.693,-1,5
123,3.34850,1.717,-1,5
124,3.35023,1.735,-1,5
125,3.35197,1.739,-1,5
126,3.35371,1.735,-1,5
127,3.35546,1.751,-1,5
128,3.35724,1.777,-1,5
129,3.35903,1.792,-1,5
130,3.36082,1.791,-1,5
131,3.36261,1.794,-1,5
132,3.36443,1.814,-1,5
133,3.36627,1.845,-1,5
134,3.36812,1.848,-1,5
135,3.36997,1.846,-1,5
136,3.37182,1.857,-1,5
137,3.37371,1.885,-1,5
138,3.37562,1.909,-1,5
139,3.37752,1.908,-1,5
140,3.37943,1.910,-1,5
141,3.38136,1.927,-1,5
142,3.38331,1.953,-1,5
143,3.38529,1.971,-1,5
144,3.38725,1.968,-1,5
145,3.38923,1.975,-1,5
146,3.39122,1.994,-1,5
147,3.39324,2.018,-1,5
148,3.39528,2.033,-1,5
149,3.39731,2.037,-1,5
150,3.39935,2.042,-1,5
151,3.40141,2.054,-1,5
152,3.40349,2.085,-1,5
153,3.40559,2.096,-1,5
154,3.40769,2.099,-1,5
155,3.40979,2.099,-1,5
156,3.41191,2.119,-1,5
157,3.41405,2.145,-1,5
158,3.41620,2.153,-1,5
159,3.42051,2.157,-1,5
160,3.42269,2.180,-1,5
161,3.42489,2.194,-1,5
162,3.42489,2.194,-1,5
163,3.42709,2.202,-1,5
164,3.43150,2.211,-1,5
165,3.43372,2.223,-1,5
166,3.43372,2.239,-1,5
167,3.43820,2.243,-1,5
168,3.44045,2.244,-1,5
169,3.44270,2.250,-1,5
170,3.44496,2.262,-1,5
171,3.44723,2.268,-1,5
172,3.44950,2.275,-1,5
173,3.45178,2.280,-1,5
174,3.45407,2.282,-1,5
175,3.45635,2.283,-1,5
176,3.45864,2.295,-1,5
177,3.46095,2.303,-1,5
178,3.46324,2.296,-1,5
179,3.46554,2.299,-1,5
180,3.46784,2.303,-1,5
181,3.47016,2.311,-1,5
182,3.47247,2.314,-1,5
183,3.47478,2.310,-1,5
184,3.47709,2.307,-1,5
185,3.47940,2.315,-1,5
186,3.48172,2.317,-1,5
187,3.48404,2.319,-1,5
188,3.48635,2.312,-1,5
189,3.48866,2.312,-1,5
190,3.49098,2.318,-1,5
191,3.49330,2.319,-1,5
192,3.49561,2.313,-1,5
193,3.49793,2.316,-1,5
194,3.50024,2.312,-1,5
195,3.50255,2.315,-1,5
196,3.50486,2.311,-1,5
197,3.50718,2.317,-1,5
198,3.50950,2.314,-1,5
199,3.51180,2.305,-1,5
200,3.51411,2.307,-1,5
201,3.51642,2.314,-1,5
202,3.51873,2.309,-1,5
203,3.52104,2.305,-1,5
204,3.52334,2.304,-1,5
205,3.52564,2.304,-1,5
206,3.52795,2.308,-1,5
207,3.53026,2.303,-1,5
208,3.53255,2.297,-1,5
209,3.53485,2.299,-1,5
210,3.53715,2.302,-1,5
211,3.53945,2.300,-1,5
212,3.54175,2.297,-1,5
213,3.54404,2.293,-1,5
214,3.54634,2.298,-1,5
215,3.54864,2.300,-1,5
216,3.55323,2.292,-1,5
217,3.55553,2.298,-1,5
218,3.55782,2.297,-1,5
219,3.56011,2.291,-1,5
220,3.56241,2.295,-1,5
221,3.56471,2.300,-1,5
222,3.56700,2.294,-1,5
223,3.56930,2.295,-1,5
224,3.57160,2.300,-1,5
225,3.57390,2.300,-1,5
226,3.57620,2.298,-1,5
227,3.57850,2.304,-1,5
228,3.58080,2.300,-1,5
229,3.58310,2.304,-1,5
230,3.58541,2.310,-1,5
231,3.58772,2.309,-1,5
232,3.59003,2.304,-1,5
233,3.59234,2.313,-1,5
234,3.59465,2.315,-1,5
235,3.59928,2.311,-1,5
236,3.60160,2.322,-1,5
237,3.60393,2.328,-1,5
238,3.60625,2.322,-1,5
239,3.60858,2.322,-1,5
240,3.61091,2.335,-1,5
241,3.61325,2.337,-1,5
242,3.61558,2.336,-1,5
243,3.61792,2.336,-1,5
244,3.62027,2.345,-1,5
245,3.62261,2.348,-1,5
246,3.62497,2.353,-1,5
247,3.62732,2.353,-1,5
248,3.62968,2.358,-1,5
249,3.63204,2.364,-1,5
250,3.63441,2.369,-1,5
251,3.63678,2.370,-1,5
252,3.63915,2.375,-1,5
253,3.64154,2.384,-1,5
254,3.64392,2.386,-1,5
255,3.64631,2.387,-1,5
256,3.64871,2.400,-1,5
257,3.65112,2.404,-1,5
258,3.65352,2.405,-1,5
259,3.65593,2.411,-1,5
260,3.65836,2.424,-1,5
261,3.66078,2.426,-1,5
262,3.66321,2.431,-1,5
263,3.66565,2.436,-1,5
264,3.66810,2.447,-1,5
265,3.67055,2.451,-1,5
266,3.67300,2.457,-1,5
267,3.67547,2.462,-1,5
268,3.67794,2.471,-1,5
269,3.68042,2.478,-1,5
270,3.68290,2.484,-1,5
271,3.68539,2.489,-1,5
272,3.68789,2.498,-1,5
273,3.69039,2.502,-1,5
274,3.69289,2.504,-1,5
275,3.69541,2.516,-1,5
276,3.70046,2.530,-1,5
277,3.70299,2.533,-1,5
278,3.70299,2.548,-1,5
279,3.70554,2.556,-1,5
280,3.71066,2.560,-1,5
281,3.71066,2.567,-1,5
282,3.71581,2.580,-1,5
283,3.71839,2.585,-1,5
284,3.72099,2.598,-1,5
285,3.72359,2.604,-1,5
286,3.72621,2.613,-1,5
287,3.72883,2.620,-1,5
288,3.73145,2.627,-1,5
289,3.73409,2.639,-1,5
290,3.73674,2.650,-1,5
291,3.73939,2.651,-1,5
292,3.74205,2.659,-1,5
293,3.74473,2.675,-1,5
294,3.74741,2.681,-1,5
295,3.75009,2.685,-1,5
296,3.75279,2.698,-1,5
297,3.75549,2.703,-1,5
298,3.75821,2.711,-1,5
299,3.76093,2.722,-1,5
300,3.76365,2.727,-1,5
301,3.76639,2.736,-1,5
302,3.76913,2.744,-1,5
303,3.77189,2.753,-1,5
304,3.77465,2.760,-1,5
305,3.77741,2.767,-1,5
306,3.78019,2.772,-1,5
307,3.78297,2.783,-1,5
308,3.78576,2.790,-1,5
309,3.78855,2.793,-1,5
310,3.79136,2.806,-1,5
311,3.79417,2.813,-1,5
312,3.79699,2.815,-1,5
313,3.79981,2.822,-1,5
314,3.80264,2.830,-1,5
315,3.80547,2.836,-1,5
316,3.80832,2.844,-1,5
317,3.81117,2.846,-1,5
318,3.81402,2.855,-1,5
319,3.81688,2.859,-1,5
320,3.81975,2.867,-1,5
321,3.82262,2.873,-1,5
322,3.82549,2.872,-1,5
323,3.82837,2.881,-1,5
324,3.83126,2.887,-1,5
325,3.83415,2.889,-1,5
326,3.83704,2.893,-1,5
327,3.83994,2.899,-1,5
328,3.84284,2.902,-1,5
329,3.84575,2.905,-1,5
330,3.84866,2.910,-1,5
331,3.85157,2.912,-1,5
332,3.85448,2.914,-1,5
333,3.85740,2.921,-1,5
334,3.86032,2.921,-1,5
335,3.86325,2.924,-1,5
336,3.86910,2.929,-1,5
337,3.87203,2.928,-1,5
338,3.87203,2.931,-1,5
339,3.87789,2.934,-1,5
340,3.87789,2.934,-1,5
341,3.88083,2.929,-1,5
342,3.88376,2.931,-1,5
343,3.88669,2.927,-1,5
344,3.89254,2.929,-1,5
345,3.89547,2.930,-1,5
346,3.89840,2.926,-1,5
347,3.90133,2.929,-1,5
348,3.90426,2.926,-1,5
349,3.90718,2.928,-1,5
350,3.91011,2.927,-1,5
351,3.91304,2.927,-1,5
352,3.91596,2.927,-1,5
353,3.91889,2.925,-1,5
354,3.92181,2.925,-1,5
355,3.92474,2.920,-1,5
356,3.92766,2.922,-1,5
357,3.93058,2.922,-1,5
358,3.93642,2.921,-1,5
359,3.93934,2.917,-1,5
360,3.93934,2.918,-1,5
361,3.94517,2.914,-1,5
362,3.94808,2.911,-1,5
363,3.95100,2.912,-1,5
364,3.95390,2.905,-1,5
365,3.95681,2.905,-1,5
366,3.95971,2.901,-1,5
367,3.96261,2.904,-1,5
368,3.96551,2.896,-1,5
369,3.96840,2.894,-1,5
370,3.97129,2.888,-1,5
371,3.97418,2.888,-1,5
372,3.97706,2.881,-1,5
373,3.97994,2.880,-1,5
374,3.98281,2.876,-1,5
375,3.98568,2.867,-1,5
376,3.98855,2.868,-1,5
377,3.99141,2.863,-1,5
378,3.99427,2.860,-1,5
379,3.99713,2.856,-1,5
380,3.99998,2.848,-1,5
381,4.00282,2.844,-1,5
382,4.00566,2.840,-1,5
383,4.00850,2.838,-1,5
384,4.01133,2.831,-1,5
385,4.01415,2.824,-1,5
386,4.01697,2.820,-1,5
387,4.01979,2.817,-1,5
388,4.02260,2.808,-1,5
389,4.02540,2.803,-1,5
390,4.02820,2.797,-1,5
391,4.03099,2.791,-1,5
392,4.03377,2.784,-1,5
393,4.03655,2.781,-1,5
394,4.03932,2.772,-1,5
395,4.04209,2.764,-1,5
396,4.04485,2.759,-1,5
397,4.04760,2.753,-1,5
398,4.05035,2.748,-1,5
399,4.05309,2.740,-1,5
400,4.05582,2.732,-1,5
401,4.05855,2.727,-1,5
402,4.06127,2.718,-1,5
403,4.06669,2.708,-1,5
404,4.06939,2.698,-1,5
405,4.07208,2.691,-1,5
406,4.07477,2.691,-1,5
407,4.07745,2.680,-1,5
408,4.08012,2.669,-1,5
409,4.08279,2.667,-1,5
410,4.08545,2.660,-1,5
411,4.08810,2.651,-1,5
412,4.09074,2.646,-1,5
413,4.09338,2.637,-1,5
414,4.09601,2.631,-1,5
415,4.09863,2.623,-1,5
416,4.10125,2.618,-1,5
417,4.10387,2.612,-1,5
418,4.10647,2.605,-1,5
419,4.10906,2.593,-1,5
420,4.11166,2.593,-1,5
421,4.11424,2.587,-1,5
422,4.11682,2.575,-1,5
423,4.11939,2.571,-1,5
424,4.12196,2.569,-1,5
425,4.12452,2.560,-1,5
426,4.12707,2.549,-1,5
427,4.12961,2.547,-1,5
428,4.13215,2.541,-1,5
429,4.13469,2.531,-1,5
430,4.13721,2.529,-1,5
431,4.13974,2.522,-1,5
432,4.14225,2.517,-1,5
433,4.14476,2.512,-1,5
434,4.14727,2.506,-1,5
435,4.14977,2.501,-1,5
436,4.15227,2.497,-1,5
437,4.15476,2.487,-1,5
438,4.15724,2.485,-1,5
439,4.15973,2.484,-1,5
440,4.16220,2.477,-1,5
441,4.16467,2.469,-1,5
442,4.16714,2.471,-1,5
443,4.16961,2.466,-1,5
444,4.17207,2.458,-1,5
445,4.17452,2.453,-1,5
446,4.17698,2.457,-1,5
447,4.17943,2.450,-1,5
448,4.18187,2.446,-1,5
449,4.18431,2.441,-1,5
450,4.18675,2.440,-1,5
451,4.18919,2.436,-1,5
452,4.19162,2.434,-1,5
453,4.19648,2.429,-1,5
454,4.19891,2.427,-1,5
455,4.20133,2.422,-1,5
456,4.20375,2.419,-1,5
457,4.20618,2.424,-1,5
458,4.20860,2.421,-1,5
459,4.21101,2.412,-1,5
460,4.21342,2.415,-1,5
461,4.21584,2.419,-1,5
462,4.21826,2.409,-1,5
463,4.22067,2.409,-1,5
464,4.22308,2.414,-1,5
465,4.22550,2.416,-1,5
466,4.22791,2.410,-1,5
467,4.23032,2.411,-1,5
468,4.23273,2.413,-1,5
469,4.23514,2.410,-1,5
470,4.23755,2.410,-1,5
471,4.24237,2.414,-1,5
472,4.24479,2.413,-1,5
473,4.24720,2.414,-1,5
474,4.24961,2.410,-1,5
475,4.25203,2.415,-1,5
476,4.25444,2.416,-1,5
477,4.25686,2.416,-1,5
478,4.25927,2.412,-1,5
479,4.26169,2.418,-1,5
480,4.26411,2.418,-1,5
481,4.26652,2.418,-1,5
482,4.26894,2.419,-1,5
483,4.27137,2.426,-1,5
484,4.27379,2.423,-1,5
485,4.27622,2.426,-1,5
486,4.27864,2.427,-1,5
487,4.28108,2.431,-1,5
488,4.28351,2.433,-1,5
489,4.28594,2.435,-1,5
490,4.28838,2.434,-1,5
491,4.29082,2.440,-1,5
492,4.29326,2.442,-1,5
493,4.29570,2.442,-1,5
494,4.29814,2.442,-1,5
495,4.30059,2.451,-1,5
496,4.30305,2.451,-1,5
497,4.30549,2.447,-1,5
498,4.30795,2.454,-1,5
499,4.31040,2.456,-1,5
500,4.31286,2.455,-1,5
501,4.31532,2.457,-1,5
502,4.31778,2.464,-1,5
503,4.32024,2.463,-1,5
504,4.32271,2.465,-1,5
505,4.32518,2.467,-1,5
506,4.32765,2.471,-1,5
507,4.33012,2.471,-1,5
508,4.33259,2.473,-1,5
509,4.33506,2.474,-1,5
510,4.33754,2.478,-1,5
511,4.34002,2.480,-1,5
512,4.34250,2.479,-1,5
513,4.34498,2.481,-1,5
514,4.34747,2.487,-1,5
515,4.34996,2.488,-1,5
516,4.35244,2.485,-1,5
517,4.35493,2.492,-1,5
518,4.35743,2.494,-1,5
519,4.35992,2.492,-1,5
520,4.36241,2.492,-1,5
521,4.36741,2.497,-1,5
522,4.36991,2.498,-1,5
523,4.37241,2.499,-1,5
524,4.37491,2.500,-1,5
525,4.37741,2.501,-1,5
526,4.37991,2.502,-1,5
527,4.38241,2.501,-1,5
528,4.38491,2.501,-1,5
529,4.38742,2.506,-1,5
530,4.38992,2.503,-1,5
531,4.39242,2.503,-1,5
532,4.39493,2.505,-1,5
533,4.39744,2.507,-1,5
534,4.39994,2.503,-1,5
535,4.40245,2.509,-1,5
536,4.40495,2.508,-1,5
537,4.40746,2.504,-1,5
538,4.40996,2.503,-1,5
539,4.41247,2.510,-1,5
540,4.41498,2.510,-1,5
541,4.41749,2.507,-1,5
542,4.42000,2.508,-1,5
543,4.42251,2.511,-1,5
544,4.42502,2.513,-1,5
545,4.42754,2.515,-1,5
546,4.43005,2.513,-1,5
547,4.43256,2.515,-1,5
548,4.43508,2.521,-1,5
549,4.43760,2.518,-1,5
550,4.44012,2.520,-1,5
551,4.44265,2.526,-1,5
552,4.44518,2.527,-1,5
553,4.44770,2.525,-1,5
554,4.45023,2.535,-1,5
555,4.45277,2.537,-1,5
556,4.45531,2.537,-1,5
557,4.45784,2.537,-1,5
558,4.46039,2.547,-1,5
559,4.46294,2.550,-1,5
560,4.46549,2.548,-1,5
561,4.46805,2.556,-1,5
562,4.47061,2.561,-1,5
563,4.47317,2.566,-1,5
564,4.47574,2.568,-1,5
565,4.47831,2.574,-1,5
566,4.48089,2.580,-1,5
567,4.48348,2.585,-1,5
568,4.48607,2.589,-1,5
569,4.48867,2.599,-1,5
570,4.49127,2.603,-1,5
571,4.49388,2.607,-1,5
572,4.49649,2.629,-1,5
573,4.49912,2.628,-1,5
574,4.50175,2.628,-1,5
575,4.50438,2.646,-1,5
576,4.50703,2.646,-1,5
577,4.51235,2.663,-1,5
578,4.51501,2.668,-1,5
579,4.51769,2.677,-1,5
580,4.52038,2.685,-1,5
581,4.52307,2.692,-1,5
582,4.52577,2.703,-1,5
583,4.52848,2.712,-1,5
584,4.53120,2.720,-1,5
585,4.53393,2.729,-1,5
586,4.53667,2.740,-1,5
587,4.53942,2.749,-1,5
588,4.54218,2.755,-1,5
589,4.54494,2.768,-1,5
590,4.54772,2.780,-1,5
591,4.55051,2.785,-1,5
592,4.55331,2.808,-1,5
593,4.55611,2.808,-1,5
594,4.55894,2.828,-1,5
595,4.56177,2.828,-1,5
596,4.56461,2.842,-1,5
597,4.57032,2.866,-1,5
598,4.57032,2.877,-1,5
599,4.57609,2.887,-1,5
600,4.57898,2.896,-1,5
601,4.58189,2.910,-1,5
602,4.58482,2.923,-1,5
603,4.58775,2.935,-1,5
604,4.59070,2.944,-1,5
605,4.59365,2.958,-1,5
606,4.59662,2.970,-1,5
607,4.59960,2.980,-1,5
608,4.60260,2.996,-1,5
609,4.60560,3.004,-1,5
610,4.60862,3.017,-1,5
611,4.61165,3.031,-1,5
612,4.61469,3.043,-1,5
613,4.61775,3.053,-1,5
614,4.62081,3.066,-1,5
615,4.62389,3.078,-1,5
616,4.62698,3.090,-1,5
617,4.63008,3.102,-1,5
618,4.63320,3.114,-1,5
619,4.63632,3.122,-1,5
620,4.63946,3.138,-1,5
621,4.64261,3.151,-1,5
622,4.64577,3.160,-1,5
623,4.64894,3.170,-1,5
624,4.65212,3.181,-1,5
625,4.65531,3.194,-1,5
626,4.65852,3.205,-1,5
627,4.66173,3.213,-1,5
628,4.66495,3.221,-1,5
629,4.66819,3.237,-1,5
630,4.67143,3.246,-1,5
631,4.67469,3.252,-1,5
632,4.67794,3.259,-1,5
633,4.68121,3.269,-1,5
634,4.68449,3.280,-1,5
635,4.68778,3.290,-1,5
636,4.69108,3.294,-1,5
637,4.69438,3.301,-1,5
638,4.69769,3.309,-1,5
639,4.70100,3.318,-1,5
640,4.70433,3.326,-1,5
641,4.71099,3.335,-1,5
642,4.71099,3.341,-1,5
643,4.71433,3.352,-1,5
644,4.71769,3.352,-1,5
645,4.72104,3.352,-1,5
646,4.72776,3.362,-1,5
647,4.73112,3.366,-1,5
648,4.73112,3.372,-1,5
649,4.73787,3.374,-1,5
650,4.74124,3.375,-1,5
651,4.74462,3.379,-1,5
652,4.74800,3.382,-1,5
653,4.75139,3.383,-1,5
654,4.75477,3.386,-1,5
655,4.75816,3.385,-1,5
656,4.76155,3.387,-1,5
657,4.76494,3.391,-1,5
658,4.76833,3.389,-1,5
659,4.77171,3.389,-1,5
660,4.77510,3.389,-1,5
661,4.77849,3.391,-1,5
662,4.78189,3.394,-1,5
663,4.78528,3.390,-1,5
664,4.78867,3.390,-1,5
665,4.79206,3.389,-1,5
666,4.79545,3.391,-1,5
667,4.79884,3.387,-1,5
668,4.80222,3.387,-1,5
669,4.80561,3.384,-1,5
670,4.80899,3.383,-1,5
671,4.81237,3.382,-1,5
672,4.81575,3.382,-1,5
673,4.81913,3.379,-1,5
674,4.82250,3.372,-1,5
675,4.82587,3.368,-1,5
676,4.82924,3.370,-1,5
677,4.83261,3.369,-1,5
678,4.83597,3.363,-1,5
679,4.83933,3.358,-1,5
680,4.84269,3.356,-1,5
681,4.84604,3.354,-1,5
682,4.84939,3.351,-1,5
683,4.85274,3.347,-1,5
684,4.85608,3.342,-1,5
685,4.85942,3.338,-1,5
686,4.86276,3.335,-1,5
687,4.86609,3.335,-1,5
688,4.86942,3.328,-1,5
689,4.87274,3.319,-1,5
690,4.87606,3.320,-1,5
691,4.87937,3.314,-1,5
692,4.88268,3.310,-1,5
693,4.88599,3.304,-1,5
694,4.88928,3.299,-1,5
695,4.89258,3.294,-1,5
696,4.89587,3.290,-1,5
697,4.89915,3.283,-1,5
698,4.90243,3.278,-1,5
699,4.90570,3.269,-1,5
700,4.90897,3.268,-1,5
701,4.91548,3.256,-1,5
702,4.91873,3.248,-1,5
703,4.92198,3.246,-1,5
704,4.92522,3.241,-1,5
705,4.92845,3.231,-1,5
706,4.93168,3.227,-1,5
707,4.93490,3.220,-1,5
708,4.93811,3.215,-1,5
709,4.94132,3.207,-1,5
710,4.94452,3.205,-1,5
711,4.94771,3.192,-1,5
712,4.95090,3.189,-1,5
713,4.95409,3.184,-1,5
714,4.95726,3.175,-1,5
715,4.96043,3.169,-1,5
716,4.96359,3.159,-1,5
717,4.96674,3.153,-1,5
718,4.96990,3.152,-1,5
719,4.97304,3.140,-1,5
720,4.97930,3.128,-1,5
721,4.97930,3.119,-1,5
722,4.98241,3.114,-1,5
723,4.98864,3.107,-1,5
724,4.99174,3.100,-1,5
725,4.99174,3.092,-1,5
726,4.99791,3.085,-1,5
727,5.00099,3.081,-1,5
728,5.00406,3.068,-1,5
729,5.00712,3.063,-1,5
730,5.01018,3.058,-1,5
731,5.01323,3.050,-1,5
732,5.01628,3.047,-1,5
733,5.01931,3.036,-1,5
734,5.02234,3.025,-1,5
735,5.02536,3.024,-1,5
736,5.02838,3.018,-1,5
737,5.03139,3.009,-1,5
738,5.03439,3.000,-1,5
739,5.03738,2.993,-1,5
740,5.04038,2.990,-1,5
741,5.04336,2.986,-1,5
742,5.04634,2.977,-1,5
743,5.04931,2.969,-1,5
744,5.05227,2.961,-1,5
745,5.05523,2.961,-1,5
746,5.05818,2.953,-1,5
747,5.06113,2.944,-1,5
748,5.06407,2.942,-1,5
749,5.06700,2.932,-1,5
750,5.06993,2.929,-1,5
751,5.07286,2.928,-1,5
752,5.07577,2.917,-1,5
753,5.07869,2.914,-1,5
754,5.08159,2.907,-1,5
755,5.08450,2.903,-1,5
756,5.08739,2.897,-1,5
757,5.09029,2.894,-1,5
758,5.09317,2.888,-1,5
759,5.09606,2.886,-1,5
760,5.09894,2.876,-1,5
761,5.10181,2.874,-1,5
762,5.10468,2.871,-1,5
763,5.10754,2.860,-1,5
764,5.11041,2.864,-1,5
765,5.11326,2.855,-1,5
766,5.11611,2.848,-1,5
767,5.11896,2.847,-1,5
768,5.12465,2.841,-1,5
769,5.12748,2.837,-1,5
770,5.13032,2.834,-1,5
771,5.13315,2.830,-1,5
772,5.13598,2.827,-1,5
773,5.13880,2.827,-1,5
774,5.14163,2.826,-1,5
775,5.14444,2.816,-1,5
776,5.14726,2.815,-1,5
777,5.15008,2.818,-1,5
778,5.15289,2.814,-1,5
779,5.15570,2.810,-1,5
780,5.15851,2.810,-1,5
781,5.16131,2.802,-1,5
782,5.16411,2.800,-1,5
783,5.16692,2.807,-1,5
784,5.16972,2.803,-1,5
785,5.17252,2.797,-1,5
786,5.17532,2.796,-1,5
787,5.17811,2.796,-1,5
788,5.18091,2.794,-1,5
789,5.18370,2.794,-1,5
790,5.18649,2.792,-1,5
791,5.18928,2.792,-1,5
792,5.19207,2.788,-1,5
793,5.19487,2.793,-1,5
794,5.19766,2.791,-1,5
795,5.20044,2.789,-1,5
796,5.20323,2.788,-1,5
797,5.20602,2.791,-1,5
798,5.20881,2.789,-1,5
799,5.21160,2.786,-1,5
800,5.21439,2.789,-1,5
801,5.21718,2.789,-1,5
802,5.21997,2.789,-1,5
803,5.22275,2.789,-1,5
804,5.22554,2.787,-1,5
805,5.22833,2.789,-1,5
806,5.23112,2.789,-1,5
807,5.23391,2.788,-1,5
808,5.23670,2.792,-1,5
809,5.23948,2.786,-1,5
810,5.24227,2.790,-1,5
811,5.24507,2.794,-1,5
812,5.24786,2.792,-1,5
813,5.25065,2.793,-1,5
814,5.25345,2.797,-1,5
815,5.25624,2.794,-1,5
816,5.25904,2.794,-1,5
817,5.26184,2.802,-1,5
818,5.26464,2.802,-1,5
819,5.27025,2.805,-1,5
820,5.27025,2.808,-1,5
821,5.27306,2.811,-1,5
822,5.27868,2.811,-1,5
823,5.28150,2.814,-1,5
824,5.28150,2.819,-1,5
825,5.28713,2.817,-1,5
826,5.28996,2.825,-1,5
827,5.29278,2.824,-1,5
828,5.29561,2.825,-1,5
829,5.29844,2.830,-1,5
830,5.30127,2.834,-1,5
831,5.30410,2.832,-1,5
832,5.30694,2.839,-1,5
833,5.30978,2.839,-1,5
834,5.31262,2.839,-1,5
835,5.31546,2.845,-1,5
836,5.31831,2.848,-1,5
837,5.32116,2.848,-1,5
838,5.32686,2.856,-1,5
839,5.32972,2.856,-1,5
840,5.33257,2.856,-1,5
841,5.33543,2.859,-1,5
842,5.33830,2.864,-1,5
843,5.34116,2.864,-1,5
844,5.34403,2.867,-1,5
845,5.34690,2.868,-1,5
846,5.34976,2.870,-1,5
847,5.35264,2.872,-1,5
848,5.35551,2.876,-1,5
849,5.35839,2.876,-1,5
850,5.36126,2.873,-1,5
851,5.36414,2.882,-1,5
852,5.36702,2.879,-1,5
853,5.36990,2.881,-1,5
854,5.37278,2.880,-1,5
855,5.37567,2.883,-1,5
856,5.37855,2.886,-1,5
857,5.38144,2.883,-1,5
858,5.38432,2.887,-1,5
859,5.38721,2.884,-1,5
860,5.39009,2.886,-1,5
861,5.39298,2.890,-1,5
862,5.39587,2.889,-1,5
863,5.39876,2.887,-1,5
864,5.40165,2.887,-1,5
865,5.40454,2.890,-1,5
866,5.40742,2.889,-1,5
867,5.41032,2.890,-1,5
868,5.41320,2.885,-1,5
869,5.41609,2.888,-1,5
870,5.41897,2.887,-1,5
871,5.42186,2.891,-1,5
872,5.42475,2.886,-1,5
873,5.42763,2.882,-1,5
