cnt,pos,speed,Dir,Force,
1,3.16664,1.007,-1,4
2,3.16765,1.010,-1,4
3,3.16865,1.004,-1,4
4,3.16965,1.001,-1,4
5,3.17066,1.004,-1,4
6,3.17167,1.008,-1,4
7,3.17268,1.012,-1,4
8,3.17369,1.008,-1,4
9,3.17469,1.006,-1,4
10,3.17571,1.014,-1,4
11,3.17672,1.015,-1,4
12,3.17773,1.008,-1,4
13,3.17873,1.004,-1,4
14,3.17973,1.001,-1,4
15,3.18074,1.007,-1,4
16,3.18175,1.009,-1,4
17,3.18276,1.005,-1,4
18,3.18376,1.003,-1,4
19,3.18476,1.004,-1,4
20,3.18577,1.005,-1,4
21,3.18677,1.003,-1,4
22,3.18777,0.994,-1,4
23,3.18876,0.992,-1,4
24,3.18976,0.998,-1,4
25,3.19076,1.000,-1,4
26,3.19175,0.999,-1,4
27,3.19275,0.991,-1,4
28,3.19373,0.989,-1,4
29,3.19473,0.994,-1,4
30,3.19572,0.990,-1,4
31,3.19670,0.986,-1,4
32,3.19768,0.981,-1,4
33,3.19867,0.984,-1,4
34,3.19966,0.989,-1,4
35,3.20064,0.985,-1,4
36,3.20162,0.977,-1,4
37,3.20259,0.969,-1,4
38,3.20356,0.975,-1,4
39,3.20454,0.978,-1,4
40,3.20552,0.980,-1,4
41,3.20649,0.968,-1,4
42,3.20746,0.968,-1,4
43,3.20843,0.970,-1,4
44,3.20940,0.973,-1,4
45,3.21133,0.960,-1,4
46,3.21229,0.959,-1,4
47,3.21326,0.971,-1,4
48,3.21423,0.972,-1,4
49,3.21519,0.964,-1,4
50,3.21614,0.952,-1,4
51,3.21710,0.956,-1,4
52,3.21806,0.962,-1,4
53,3.21903,0.966,-1,4
54,3.21998,0.955,-1,4
55,3.22093,0.950,-1,4
56,3.22189,0.956,-1,4
57,3.22285,0.965,-1,4
58,3.22382,0.962,-1,4
59,3.22476,0.947,-1,4
60,3.22571,0.943,-1,4
61,3.22666,0.951,-1,4
62,3.22762,0.963,-1,4
63,3.22858,0.959,-1,4
64,3.22953,0.950,-1,4
65,3.23047,0.945,-1,4
66,3.23143,0.957,-1,4
67,3.23239,0.960,-1,4
68,3.23430,0.946,-1,4
69,3.23430,0.947,-1,4
70,3.23525,0.964,-1,4
71,3.23621,0.974,-1,4
72,3.23719,0.974,-1,4
73,3.23815,0.952,-1,4
74,3.23910,0.952,-1,4
75,3.24006,0.954,-1,4
76,3.24103,0.981,-1,4
77,3.24298,0.971,-1,4
78,3.24394,0.960,-1,4
79,3.24491,0.967,-1,4
80,3.24589,0.984,-1,4
81,3.24688,0.990,-1,4
82,3.24786,0.977,-1,4
83,3.24882,0.967,-1,4
84,3.24980,0.973,-1,4
85,3.25079,0.996,-1,4
86,3.25179,1.001,-1,4
87,3.25278,0.990,-1,4
88,3.25376,0.980,-1,4
89,3.25476,0.992,-1,4
90,3.25577,1.012,-1,4
91,3.25678,1.011,-1,4
92,3.25778,0.998,-1,4
93,3.25877,0.994,-1,4
94,3.25978,1.013,-1,4
95,3.26082,1.034,-1,4
96,3.26185,1.030,-1,4
97,3.26286,1.011,-1,4
98,3.26387,1.009,-1,4
99,3.26490,1.031,-1,4
100,3.26595,1.047,-1,4
101,3.26699,1.041,-1,4
102,3.26801,1.026,-1,4
103,3.26905,1.032,-1,4
104,3.27010,1.053,-1,4
105,3.27116,1.061,-1,4
106,3.27221,1.050,-1,4
107,3.27325,1.037,-1,4
108,3.27429,1.048,-1,4
109,3.27536,1.069,-1,4
110,3.27643,1.072,-1,4
111,3.27749,1.060,-1,4
112,3.27855,1.055,-1,4
113,3.27962,1.067,-1,4
114,3.28070,1.080,-1,4
115,3.28177,1.077,-1,4
116,3.28284,1.069,-1,4
117,3.28392,1.074,-1,4
118,3.28500,1.087,-1,4
119,3.28609,1.091,-1,4
120,3.28718,1.083,-1,4
121,3.28826,1.080,-1,4
122,3.28934,1.087,-1,4
123,3.29044,1.096,-1,4
124,3.29154,1.095,-1,4
125,3.29373,1.097,-1,4
126,3.29483,1.101,-1,4
127,3.29592,1.098,-1,4
128,3.29702,1.096,-1,4
129,3.29812,1.100,-1,4
130,3.29923,1.107,-1,4
131,3.30033,1.105,-1,4
132,3.30143,1.101,-1,4
133,3.30253,1.102,-1,4
134,3.30364,1.106,-1,4
135,3.30474,1.103,-1,4
136,3.30584,1.100,-1,4
137,3.30695,1.102,-1,4
138,3.30805,1.109,-1,4
139,3.30916,1.108,-1,4
140,3.31026,1.098,-1,4
141,3.31135,1.092,-1,4
142,3.31245,1.099,-1,4
143,3.31356,1.106,-1,4
144,3.31466,1.099,-1,4
145,3.31575,1.091,-1,4
146,3.31684,1.092,-1,4
147,3.31794,1.097,-1,4
148,3.31903,1.093,-1,4
149,3.32011,1.084,-1,4
150,3.32120,1.081,-1,4
151,3.32228,1.086,-1,4
152,3.32337,1.089,-1,4
153,3.32445,1.079,-1,4
154,3.32552,1.073,-1,4
155,3.32659,1.072,-1,4
156,3.32767,1.075,-1,4
157,3.32874,1.070,-1,4
158,3.32980,1.062,-1,4
159,3.33087,1.064,-1,4
160,3.33193,1.065,-1,4
161,3.33299,1.061,-1,4
162,3.33404,1.049,-1,4
163,3.33509,1.046,-1,4
164,3.33614,1.050,-1,4
165,3.33719,1.050,-1,4
166,3.33823,1.041,-1,4
167,3.33926,1.032,-1,4
168,3.34030,1.036,-1,4
169,3.34133,1.037,-1,4
170,3.34236,1.029,-1,4
171,3.34338,1.018,-1,4
172,3.34439,1.016,-1,4
173,3.34542,1.020,-1,4
174,3.34644,1.022,-1,4
175,3.34745,1.012,-1,4
176,3.34845,0.998,-1,4
177,3.34945,1.000,-1,4
178,3.35045,1.004,-1,4
179,3.35145,1.000,-1,4
180,3.35244,0.989,-1,4
181,3.35342,0.981,-1,4
182,3.35441,0.987,-1,4
183,3.35540,0.991,-1,4
184,3.35735,0.968,-1,4
185,3.35831,0.958,-1,4
186,3.35928,0.968,-1,4
187,3.36025,0.972,-1,4
188,3.36121,0.963,-1,4
189,3.36216,0.945,-1,4
190,3.36310,0.942,-1,4
191,3.36405,0.953,-1,4
192,3.36501,0.955,-1,4
193,3.36595,0.940,-1,4
194,3.36687,0.920,-1,4
195,3.36779,0.922,-1,4
196,3.36872,0.934,-1,4
197,3.36965,0.933,-1,4
198,3.37057,0.920,-1,4
199,3.37148,0.903,-1,4
200,3.37238,0.902,-1,4
201,3.37329,0.914,-1,4
202,3.37421,0.916,-1,4
203,3.37511,0.897,-1,4
204,3.37599,0.878,-1,4
205,3.37687,0.880,-1,4
206,3.37776,0.895,-1,4
207,3.37866,0.898,-1,4
208,3.37954,0.882,-1,4
209,3.38040,0.860,-1,4
210,3.38125,0.854,-1,4
211,3.38212,0.868,-1,4
212,3.38300,0.874,-1,4
213,3.38386,0.863,-1,4
214,3.38470,0.840,-1,4
215,3.38553,0.831,-1,4
216,3.38637,0.841,-1,4
217,3.38723,0.854,-1,4
218,3.38807,0.845,-1,4
219,3.38889,0.823,-1,4
220,3.38970,0.806,-1,4
221,3.39051,0.809,-1,4
222,3.39133,0.824,-1,4
223,3.39216,0.827,-1,4
224,3.39297,0.808,-1,4
225,3.39376,0.788,-1,4
226,3.39454,0.784,-1,4
227,3.39533,0.794,-1,4
228,3.39614,0.804,-1,4
229,3.39693,0.792,-1,4
230,3.39770,0.773,-1,4
231,3.39846,0.760,-1,4
232,3.39923,0.764,-1,4
233,3.40000,0.774,-1,4
234,3.40078,0.763,-1,4
235,3.40154,0.747,-1,4
236,3.40229,0.743,-1,4
237,3.40303,0.743,-1,4
238,3.40378,0.750,-1,4
239,3.40453,0.750,-1,4
240,3.40527,0.734,-1,4
241,3.40601,0.725,-1,4
242,3.40746,0.726,-1,4
243,3.40819,0.731,-1,4
244,3.40891,0.723,-1,4
245,3.40963,0.716,-1,4
246,3.41034,0.712,-1,4
247,3.41105,0.711,-1,4
248,3.41176,0.712,-1,4
249,3.41247,0.702,-1,4
250,3.41316,0.697,-1,4
251,3.41385,0.689,-1,4
252,3.41455,0.696,-1,4
253,3.41524,0.695,-1,4
254,3.41593,0.691,-1,4
255,3.41661,0.678,-1,4
256,3.41729,0.675,-1,4
257,3.41796,0.673,-1,4
258,3.41864,0.679,-1,4
259,3.41931,0.676,-1,4
260,3.41998,0.668,-1,4
261,3.42064,0.658,-1,4
262,3.42129,0.654,-1,4
263,3.42195,0.659,-1,4
264,3.42326,0.654,-1,4
265,3.42326,0.650,-1,4
266,3.42456,0.647,-1,4
267,3.42456,0.647,-1,4
268,3.42521,0.647,-1,4
269,3.42586,0.647,-1,4
270,3.42650,0.641,-1,4
271,3.42713,0.635,-1,4
272,3.42776,0.632,-1,4
273,3.42840,0.636,-1,4
274,3.42967,0.632,-1,4
275,3.42967,0.627,-1,4
276,3.43029,0.627,-1,4
277,3.43091,0.622,-1,4
278,3.43154,0.623,-1,4
279,3.43216,0.626,-1,4
280,3.43279,0.625,-1,4
281,3.43341,0.621,-1,4
282,3.43403,0.618,-1,4
283,3.43464,0.615,-1,4
284,3.43526,0.616,-1,4
285,3.43587,0.613,-1,4
286,3.43648,0.610,-1,4
287,3.43709,0.607,-1,4
288,3.43770,0.607,-1,4
289,3.43831,0.610,-1,4
290,3.43892,0.610,-1,4
291,3.43952,0.607,-1,4
292,3.44013,0.604,-1,4
293,3.44073,0.603,-1,4
294,3.44134,0.606,-1,4
295,3.44194,0.604,-1,4
296,3.44254,0.602,-1,4
297,3.44314,0.601,-1,4
298,3.44374,0.599,-1,4
299,3.44434,0.599,-1,4
300,3.44494,0.598,-1,4
301,3.44554,0.597,-1,4
302,3.44613,0.594,-1,4
303,3.44673,0.596,-1,4
304,3.44732,0.597,-1,4
305,3.44792,0.599,-1,4
306,3.44852,0.598,-1,4
307,3.44911,0.594,-1,4
308,3.44971,0.592,-1,4
309,3.45030,0.593,-1,4
310,3.45089,0.594,-1,4
311,3.45149,0.593,-1,4
312,3.45208,0.593,-1,4
313,3.45326,0.591,-1,4
314,3.45326,0.591,-1,4
315,3.45385,0.592,-1,4
316,3.45444,0.592,-1,4
317,3.45562,0.589,-1,4
318,3.45562,0.589,-1,4
319,3.45621,0.593,-1,4
320,3.45681,0.592,-1,4
321,3.45799,0.587,-1,4
322,3.45857,0.586,-1,4
323,3.45916,0.587,-1,4
324,3.45975,0.588,-1,4
325,3.46033,0.587,-1,4
326,3.46092,0.585,-1,4
327,3.46150,0.585,-1,4
328,3.46209,0.587,-1,4
329,3.46268,0.586,-1,4
330,3.46326,0.585,-1,4
331,3.46385,0.584,-1,4
332,3.46443,0.584,-1,4
333,3.46501,0.583,-1,4
334,3.46560,0.582,-1,4
335,3.46618,0.582,-1,4
336,3.46676,0.580,-1,4
337,3.46734,0.580,-1,4
338,3.46792,0.579,-1,4
339,3.46849,0.576,-1,4
340,3.46907,0.578,-1,4
341,3.46965,0.578,-1,4
342,3.47022,0.577,-1,4
343,3.47080,0.577,-1,4
344,3.47138,0.578,-1,4
345,3.47196,0.577,-1,4
346,3.47253,0.575,-1,4
347,3.47310,0.573,-1,4
348,3.47368,0.572,-1,4
349,3.47425,0.570,-1,4
350,3.47482,0.570,-1,4
351,3.47539,0.570,-1,4
352,3.47596,0.572,-1,4
353,3.47653,0.569,-1,4
354,3.47710,0.570,-1,4
355,3.47766,0.568,-1,4
356,3.47823,0.568,-1,4
357,3.47880,0.567,-1,4
358,3.47937,0.567,-1,4
359,3.47993,0.567,-1,4
360,3.48050,0.568,-1,4
361,3.48107,0.567,-1,4
362,3.48163,0.565,-1,4
363,3.48220,0.563,-1,4
364,3.48276,0.564,-1,4
365,3.48332,0.563,-1,4
366,3.48388,0.561,-1,4
367,3.48444,0.560,-1,4
368,3.48501,0.562,-1,4
369,3.48557,0.563,-1,4
370,3.48613,0.562,-1,4
371,3.48669,0.560,-1,4
372,3.48781,0.561,-1,4
373,3.48781,0.560,-1,4
374,3.48837,0.560,-1,4
375,3.48893,0.559,-1,4
376,3.48949,0.557,-1,4
377,3.49004,0.557,-1,4
378,3.49060,0.558,-1,4
379,3.49116,0.557,-1,4
380,3.49171,0.554,-1,4
381,3.49282,0.552,-1,4
382,3.49337,0.553,-1,4
383,3.49392,0.552,-1,4
384,3.49447,0.551,-1,4
385,3.49503,0.551,-1,4
386,3.49558,0.551,-1,4
387,3.49613,0.550,-1,4
388,3.49668,0.549,-1,4
389,3.49722,0.546,-1,4
390,3.49777,0.546,-1,4
391,3.49831,0.546,-1,4
392,3.49886,0.545,-1,4
393,3.49940,0.545,-1,4
394,3.49995,0.544,-1,4
395,3.50049,0.542,-1,4
396,3.50103,0.541,-1,4
397,3.50157,0.540,-1,4
398,3.50211,0.539,-1,4
399,3.50265,0.538,-1,4
400,3.50318,0.537,-1,4
401,3.50372,0.536,-1,4
402,3.50426,0.536,-1,4
403,3.50479,0.535,-1,4
404,3.50532,0.532,-1,4
405,3.50585,0.532,-1,4
406,3.50638,0.530,-1,4
407,3.50691,0.530,-1,4
408,3.50744,0.528,-1,4
409,3.50797,0.526,-1,4
410,3.50850,0.527,-1,4
411,3.50902,0.528,-1,4
412,3.50955,0.527,-1,4
413,3.51008,0.525,-1,4
414,3.51060,0.523,-1,4
415,3.51112,0.524,-1,4
416,3.51165,0.524,-1,4
417,3.51217,0.521,-1,4
418,3.51269,0.519,-1,4
419,3.51320,0.519,-1,4
420,3.51372,0.520,-1,4
421,3.51424,0.518,-1,4
422,3.51476,0.516,-1,4
423,3.51527,0.514,-1,4
424,3.51579,0.515,-1,4
425,3.51630,0.515,-1,4
426,3.51682,0.513,-1,4
427,3.51733,0.514,-1,4
428,3.51784,0.513,-1,4
429,3.51836,0.514,-1,4
430,3.51887,0.512,-1,4
431,3.51938,0.511,-1,4
432,3.51989,0.509,-1,4
433,3.52040,0.509,-1,4
434,3.52090,0.506,-1,4
435,3.52141,0.503,-1,4
436,3.52191,0.504,-1,4
437,3.52242,0.504,-1,4
438,3.52292,0.502,-1,4
439,3.52342,0.500,-1,4
440,3.52442,0.501,-1,4
441,3.52492,0.500,-1,4
442,3.52542,0.501,-1,4
443,3.52592,0.497,-1,4
444,3.52642,0.497,-1,4
445,3.52692,0.497,-1,4
446,3.52741,0.498,-1,4
447,3.52791,0.497,-1,4
448,3.52840,0.492,-1,4
449,3.52890,0.492,-1,4
450,3.52939,0.493,-1,4
451,3.52988,0.492,-1,4
452,3.53037,0.490,-1,4
453,3.53086,0.487,-1,4
454,3.53134,0.486,-1,4
455,3.53183,0.486,-1,4
456,3.53232,0.488,-1,4
457,3.53280,0.484,-1,4
458,3.53328,0.483,-1,4
459,3.53377,0.482,-1,4
460,3.53425,0.485,-1,4
461,3.53522,0.482,-1,4
462,3.53570,0.478,-1,4
463,3.53618,0.481,-1,4
464,3.53666,0.482,-1,4
465,3.53714,0.482,-1,4
466,3.53762,0.476,-1,4
467,3.53809,0.475,-1,4
468,3.53857,0.478,-1,4
469,3.53905,0.480,-1,4
470,3.53953,0.475,-1,4
471,3.54000,0.471,-1,4
472,3.54047,0.474,-1,4
473,3.54095,0.476,-1,4
474,3.54142,0.476,-1,4
475,3.54190,0.474,-1,4
476,3.54237,0.471,-1,4
477,3.54284,0.472,-1,4
478,3.54332,0.475,-1,4
479,3.54379,0.476,-1,4
480,3.54426,0.472,-1,4
481,3.54473,0.470,-1,4
482,3.54521,0.473,-1,4
483,3.54568,0.474,-1,4
484,3.54615,0.472,-1,4
485,3.54662,0.469,-1,4
486,3.54709,0.470,-1,4
487,3.54756,0.469,-1,4
488,3.54803,0.471,-1,4
489,3.54850,0.471,-1,4
490,3.54897,0.467,-1,4
491,3.54944,0.467,-1,4
492,3.54991,0.469,-1,4
493,3.55038,0.471,-1,4
494,3.55084,0.468,-1,4
495,3.55131,0.466,-1,4
496,3.55178,0.468,-1,4
497,3.55225,0.468,-1,4
498,3.55271,0.468,-1,4
499,3.55318,0.468,-1,4
500,3.55365,0.466,-1,4
501,3.55411,0.465,-1,4
502,3.55458,0.468,-1,4
503,3.55505,0.468,-1,4
504,3.55551,0.465,-1,4
505,3.55598,0.464,-1,4
506,3.55644,0.466,-1,4
507,3.55691,0.467,-1,4
508,3.55738,0.466,-1,4
509,3.55784,0.465,-1,4
510,3.55830,0.463,-1,4
511,3.55877,0.463,-1,4
512,3.55923,0.467,-1,4
513,3.55970,0.464,-1,4
514,3.56016,0.463,-1,4
515,3.56063,0.464,-1,4
516,3.56109,0.463,-1,4
517,3.56155,0.463,-1,4
518,3.56201,0.464,-1,4
519,3.56248,0.463,-1,4
520,3.56340,0.464,-1,4
521,3.56387,0.463,-1,4
522,3.56433,0.463,-1,4
523,3.56479,0.465,-1,4
524,3.56479,0.465,-1,4
525,3.56573,0.465,-1,4
526,3.56619,0.465,-1,4
527,3.56666,0.465,-1,4
528,3.56712,0.466,-1,4
529,3.56759,0.466,-1,4
530,3.56805,0.467,-1,4
531,3.56852,0.465,-1,4
532,3.56898,0.464,-1,4
533,3.56945,0.467,-1,4
534,3.56992,0.466,-1,4
535,3.57038,0.465,-1,4
536,3.57085,0.467,-1,4
537,3.57131,0.466,-1,4
538,3.57178,0.467,-1,4
539,3.57225,0.470,-1,4
540,3.57272,0.468,-1,4
541,3.57319,0.468,-1,4
542,3.57366,0.469,-1,4
543,3.57413,0.471,-1,4
544,3.57460,0.471,-1,4
545,3.57507,0.470,-1,4
546,3.57554,0.472,-1,4
547,3.57601,0.471,-1,4
548,3.57648,0.471,-1,4
549,3.57695,0.471,-1,4
550,3.57743,0.471,-1,4
551,3.57790,0.470,-1,4
552,3.57837,0.470,-1,4
553,3.57884,0.472,-1,4
554,3.57931,0.470,-1,4
555,3.57978,0.469,-1,4
556,3.58025,0.471,-1,4
557,3.58072,0.472,-1,4
558,3.58119,0.473,-1,4
559,3.58167,0.474,-1,4
560,3.58214,0.472,-1,4
561,3.58261,0.470,-1,4
562,3.58308,0.472,-1,4
563,3.58355,0.474,-1,4
564,3.58403,0.473,-1,4
565,3.58450,0.470,-1,4
566,3.58497,0.470,-1,4
567,3.58544,0.470,-1,4
568,3.58591,0.471,-1,4
569,3.58638,0.470,-1,4
570,3.58685,0.469,-1,4
571,3.58731,0.466,-1,4
572,3.58778,0.468,-1,4
573,3.58825,0.471,-1,4
574,3.58872,0.470,-1,4
575,3.58919,0.467,-1,4
576,3.58966,0.468,-1,4
577,3.59013,0.470,-1,4
578,3.59060,0.470,-1,4
579,3.59107,0.470,-1,4
580,3.59154,0.469,-1,4
581,3.59200,0.467,-1,4
582,3.59247,0.467,-1,4
583,3.59294,0.471,-1,4
584,3.59341,0.468,-1,4
585,3.59388,0.467,-1,4
586,3.59434,0.468,-1,4
587,3.59528,0.469,-1,4
588,3.59575,0.468,-1,4
589,3.59622,0.469,-1,4
590,3.59669,0.468,-1,4
591,3.59715,0.468,-1,4
592,3.59762,0.470,-1,4
593,3.59809,0.469,-1,4
594,3.59856,0.468,-1,4
595,3.59903,0.470,-1,4
596,3.59950,0.469,-1,4
597,3.59997,0.470,-1,4
598,3.60044,0.470,-1,4
599,3.60091,0.469,-1,4
600,3.60138,0.468,-1,4
601,3.60185,0.469,-1,4
602,3.60232,0.471,-1,4
603,3.60279,0.469,-1,4
604,3.60325,0.468,-1,4
605,3.60372,0.469,-1,4
606,3.60419,0.469,-1,4
607,3.60466,0.470,-1,4
608,3.60513,0.469,-1,4
609,3.60560,0.468,-1,4
610,3.60607,0.468,-1,4
611,3.60653,0.467,-1,4
612,3.60700,0.469,-1,4
613,3.60747,0.466,-1,4
614,3.60793,0.465,-1,4
615,3.60840,0.466,-1,4
616,3.60886,0.464,-1,4
617,3.60933,0.464,-1,4
618,3.60979,0.465,-1,4
619,3.61025,0.462,-1,4
620,3.61071,0.461,-1,4
621,3.61118,0.461,-1,4
622,3.61164,0.461,-1,4
623,3.61210,0.460,-1,4
624,3.61255,0.459,-1,4
625,3.61301,0.456,-1,4
626,3.61347,0.455,-1,4
627,3.61392,0.456,-1,4
628,3.61438,0.454,-1,4
629,3.61483,0.451,-1,4
630,3.61528,0.450,-1,4
631,3.61573,0.447,-1,4
632,3.61617,0.447,-1,4
633,3.61662,0.445,-1,4
634,3.61706,0.442,-1,4
635,3.61750,0.440,-1,4
636,3.61794,0.438,-1,4
637,3.61881,0.436,-1,4
638,3.61924,0.432,-1,4
639,3.61967,0.432,-1,4
640,3.61967,0.432,-1,4
641,3.62010,0.428,-1,4
642,3.62053,0.429,-1,4
643,3.62096,0.426,-1,4
644,3.62138,0.423,-1,4
645,3.62180,0.418,-1,4
646,3.62263,0.417,-1,4
647,3.62305,0.414,-1,4
648,3.62346,0.409,-1,4
649,3.62387,0.407,-1,4
650,3.62427,0.405,-1,4
651,3.62467,0.402,-1,4
652,3.62507,0.397,-1,4
653,3.62546,0.395,-1,4
654,3.62585,0.390,-1,4
655,3.62624,0.389,-1,4
656,3.62701,0.381,-1,4
657,3.62701,0.379,-1,4
658,3.62739,0.375,-1,4
659,3.62776,0.375,-1,4
660,3.62814,0.370,-1,4
661,3.62851,0.370,-1,4
662,3.62887,0.362,-1,4
663,3.62923,0.362,-1,4
664,3.62995,0.355,-1,4
665,3.63030,0.352,-1,4
666,3.63065,0.347,-1,4
667,3.63099,0.341,-1,4
668,3.63133,0.338,-1,4
669,3.63166,0.334,-1,4
670,3.63199,0.330,-1,4
671,3.63231,0.324,-1,4
672,3.63264,0.321,-1,4
673,3.63295,0.318,-1,4
674,3.63326,0.311,-1,4
675,3.63357,0.308,-1,4
676,3.63387,0.301,-1,4
677,3.63417,0.298,-1,4
678,3.63446,0.293,-1,4
679,3.63475,0.289,-1,4
680,3.63503,0.282,-1,4
681,3.63531,0.277,-1,4
682,3.63558,0.272,-1,4
683,3.63585,0.269,-1,4
684,3.63612,0.263,-1,4
685,3.63637,0.257,-1,4
686,3.63663,0.254,-1,4
687,3.63688,0.251,-1,4
688,3.63712,0.246,-1,4
689,3.63736,0.241,-1,4
690,3.63760,0.235,-1,4
691,3.63783,0.233,-1,4
692,3.63806,0.229,-1,4
693,3.63828,0.224,-1,4
694,3.63851,0.221,-1,4
695,3.63872,0.214,-1,4
696,3.63893,0.210,-1,4
697,3.63913,0.205,-1,4
698,3.63934,0.202,-1,4
699,3.63953,0.196,-1,4
700,3.63972,0.191,-1,4
701,3.63991,0.187,-1,4
702,3.64009,0.183,-1,4
703,3.64027,0.177,-1,4
704,3.64044,0.174,-1,4
705,3.64061,0.170,-1,4
706,3.64078,0.164,-1,4
707,3.64094,0.164,-1,4
708,3.64110,0.158,-1,4
709,3.64126,0.157,-1,4
710,3.64141,0.152,-1,4
711,3.64156,0.149,-1,4
712,3.64171,0.148,-1,4
713,3.64199,0.141,-1,4
714,3.64213,0.139,-1,4
715,3.64227,0.137,-1,4
716,3.64240,0.134,-1,4
717,3.64253,0.131,-1,4
718,3.64266,0.129,-1,4
719,3.64279,0.127,-1,4
720,3.64291,0.126,-1,4
721,3.64304,0.123,-1,4
722,3.64316,0.122,-1,4
723,3.64328,0.117,-1,4
724,3.64339,0.118,-1,4
725,3.64351,0.115,-1,4
726,3.64362,0.113,-1,4
727,3.64373,0.112,-1,4
728,3.64384,0.109,-1,4
729,3.64395,0.110,-1,4
730,3.64406,0.109,-1,4
731,3.64417,0.107,-1,4
732,3.64428,0.106,-1,4
733,3.64438,0.104,-1,4
734,3.64449,0.106,-1,4
735,3.64459,0.105,-1,4
736,3.64470,0.104,-1,4
737,3.64480,0.104,-1,4
738,3.64490,0.105,-1,4
739,3.64501,0.106,-1,4
740,3.64512,0.107,-1,4
741,3.64522,0.107,-1,4
742,3.64533,0.108,-1,4
743,3.64544,0.110,-1,4
744,3.64555,0.111,-1,4
745,3.64567,0.114,-1,4
746,3.64578,0.113,-1,4
747,3.64590,0.117,-1,4
748,3.64602,0.118,-1,4
749,3.64614,0.123,-1,4
750,3.64626,0.123,-1,4
751,3.64639,0.125,-1,4
752,3.64652,0.128,-1,4
753,3.64665,0.132,-1,4
754,3.64678,0.134,-1,4
755,3.64692,0.136,-1,4
756,3.64706,0.139,-1,4
757,3.64720,0.142,-1,4
758,3.64734,0.145,-1,4
759,3.64749,0.147,-1,4
760,3.64764,0.150,-1,4
761,3.64779,0.153,-1,4
762,3.64795,0.154,-1,4
763,3.64811,0.158,-1,4
764,3.64827,0.159,-1,4
765,3.64859,0.163,-1,4
766,3.64859,0.165,-1,4
767,3.64892,0.168,-1,4
768,3.64892,0.169,-1,4
769,3.64909,0.172,-1,4
770,3.64927,0.172,-1,4
771,3.64944,0.174,-1,4
772,3.64961,0.179,-1,4
773,3.64997,0.179,-1,4
774,3.65015,0.181,-1,4
775,3.65034,0.184,-1,4
776,3.65052,0.185,-1,4
777,3.65071,0.188,-1,4
778,3.65090,0.191,-1,4
779,3.65109,0.191,-1,4
780,3.65128,0.193,-1,4
781,3.65148,0.197,-1,4
782,3.65168,0.199,-1,4
783,3.65188,0.200,-1,4
784,3.65208,0.200,-1,4
785,3.65228,0.204,-1,4
786,3.65249,0.203,-1,4
787,3.65269,0.205,-1,4
788,3.65290,0.207,-1,4
789,3.65311,0.207,-1,4
790,3.65331,0.206,-1,4
791,3.65352,0.208,-1,4
792,3.65373,0.209,-1,4
793,3.65394,0.210,-1,4
794,3.65415,0.208,-1,4
795,3.65436,0.210,-1,4
796,3.65457,0.211,-1,4
797,3.65478,0.212,-1,4
798,3.65499,0.212,-1,4
799,3.65520,0.212,-1,4
800,3.65541,0.212,-1,4
801,3.65563,0.216,-1,4
802,3.65585,0.216,-1,4
803,3.65606,0.216,-1,4
804,3.65628,0.217,-1,4
805,3.65650,0.219,-1,4
806,3.65672,0.220,-1,4
807,3.65694,0.220,-1,4
808,3.65716,0.220,-1,4
809,3.65738,0.220,-1,4
810,3.65760,0.221,-1,4
811,3.65782,0.222,-1,4
812,3.65804,0.221,-1,4
813,3.65826,0.220,-1,4
814,3.65870,0.220,-1,4
815,3.65870,0.220,-1,4
816,3.65892,0.221,-1,4
817,3.65914,0.219,-1,4
818,3.65936,0.219,-1,4
819,3.65958,0.219,-1,4
820,3.66002,0.221,-1,4
821,3.66024,0.218,-1,4
822,3.66046,0.220,-1,4
823,3.66068,0.219,-1,4
824,3.66090,0.220,-1,4
825,3.66112,0.220,-1,4
826,3.66134,0.219,-1,4
827,3.66156,0.219,-1,4
828,3.66177,0.218,-1,4
829,3.66199,0.219,-1,4
830,3.66221,0.219,-1,4
831,3.66243,0.216,-1,4
832,3.66265,0.217,-1,4
833,3.66286,0.215,-1,4
834,3.66308,0.215,-1,4
835,3.66329,0.214,-1,4
836,3.66350,0.214,-1,4
837,3.66372,0.212,-1,4
838,3.66393,0.213,-1,4
839,3.66414,0.212,-1,4
840,3.66435,0.212,-1,4
841,3.66456,0.211,-1,4
842,3.66477,0.211,-1,4
843,3.66499,0.213,-1,4
844,3.66520,0.211,-1,4
845,3.66541,0.212,-1,4
846,3.66562,0.212,-1,4
847,3.66584,0.214,-1,4
848,3.66605,0.214,-1,4
849,3.66627,0.214,-1,4
850,3.66648,0.213,-1,4
851,3.66669,0.214,-1,4
852,3.66712,0.214,-1,4
853,3.66733,0.213,-1,4
854,3.66755,0.213,-1,4
855,3.66776,0.213,-1,4
856,3.66797,0.212,-1,4
857,3.66818,0.212,-1,4
858,3.66839,0.210,-1,4
859,3.66861,0.212,-1,4
860,3.66882,0.211,-1,4
861,3.66903,0.211,-1,4
862,3.66924,0.210,-1,4
863,3.66945,0.212,-1,4
864,3.66966,0.210,-1,4
865,3.66987,0.211,-1,4
866,3.67008,0.211,-1,4
867,3.67029,0.212,-1,4
868,3.67051,0.212,-1,4
869,3.67072,0.211,-1,4
870,3.67093,0.212,-1,4
871,3.67114,0.211,-1,4
872,3.67135,0.213,-1,4
873,3.67156,0.211,-1,4
