cnt,pos,speed,Dir,Force,
1,3.19917,1.020,-1,4
2,3.20020,1.030,-1,4
3,3.20123,1.028,-1,4
4,3.20225,1.020,-1,4
5,3.20328,1.029,-1,4
6,3.20432,1.046,-1,4
7,3.20538,1.059,-1,4
8,3.20644,1.057,-1,4
9,3.20749,1.055,-1,4
10,3.20856,1.065,-1,4
11,3.20963,1.076,-1,4
12,3.21072,1.082,-1,4
13,3.21180,1.082,-1,4
14,3.21289,1.089,-1,4
15,3.21399,1.102,-1,4
16,3.21510,1.111,-1,4
17,3.21621,1.109,-1,4
18,3.21732,1.111,-1,4
19,3.21844,1.121,-1,4
20,3.21957,1.132,-1,4
21,3.22071,1.141,-1,4
22,3.22185,1.150,-1,4
23,3.22300,1.157,-1,4
24,3.22416,1.157,-1,4
25,3.22532,1.163,-1,4
26,3.22648,1.163,-1,4
27,3.22766,1.186,-1,4
28,3.22884,1.191,-1,4
29,3.23123,1.193,-1,4
30,3.23243,1.201,-1,4
31,3.23364,1.209,-1,4
32,3.23485,1.213,-1,4
33,3.23607,1.219,-1,4
34,3.23730,1.232,-1,4
35,3.23854,1.241,-1,4
36,3.23978,1.242,-1,4
37,3.24103,1.242,-1,4
38,3.24228,1.254,-1,4
39,3.24354,1.265,-1,4
40,3.24481,1.277,-1,4
41,3.24609,1.277,-1,4
42,3.24738,1.285,-1,4
43,3.24866,1.286,-1,4
44,3.24995,1.289,-1,4
45,3.25125,1.302,-1,4
46,3.25257,1.313,-1,4
47,3.25389,1.319,-1,4
48,3.25521,1.321,-1,4
49,3.25653,1.332,-1,4
50,3.25786,1.339,-1,4
51,3.25920,1.339,-1,4
52,3.26055,1.352,-1,4
53,3.26192,1.363,-1,4
54,3.26328,1.360,-1,4
55,3.26464,1.360,-1,4
56,3.26601,1.371,-1,4
57,3.26739,1.384,-1,4
58,3.26878,1.390,-1,4
59,3.27018,1.395,-1,4
60,3.27158,1.398,-1,4
61,3.27298,1.400,-1,4
62,3.27438,1.407,-1,4
63,3.27580,1.421,-1,4
64,3.27723,1.426,-1,4
65,3.27866,1.426,-1,4
66,3.28009,1.434,-1,4
67,3.28153,1.437,-1,4
68,3.28297,1.441,-1,4
69,3.28442,1.451,-1,4
70,3.28588,1.461,-1,4
71,3.28734,1.460,-1,4
72,3.28880,1.462,-1,4
73,3.29027,1.468,-1,4
74,3.29174,1.475,-1,4
75,3.29323,1.484,-1,4
76,3.29472,1.492,-1,4
77,3.29621,1.487,-1,4
78,3.29770,1.490,-1,4
79,3.29920,1.511,-1,4
80,3.30071,1.515,-1,4
81,3.30373,1.511,-1,4
82,3.30524,1.509,-1,4
83,3.30676,1.517,-1,4
84,3.30829,1.535,-1,4
85,3.30984,1.542,-1,4
86,3.31137,1.533,-1,4
87,3.31290,1.529,-1,4
88,3.31444,1.538,-1,4
89,3.31599,1.556,-1,4
90,3.31756,1.564,-1,4
91,3.31911,1.559,-1,4
92,3.32067,1.551,-1,4
93,3.32222,1.556,-1,4
94,3.32380,1.574,-1,4
95,3.32538,1.586,-1,4
96,3.32696,1.582,-1,4
97,3.32854,1.574,-1,4
98,3.33011,1.576,-1,4
99,3.33171,1.594,-1,4
100,3.33331,1.606,-1,4
101,3.33492,1.604,-1,4
102,3.33651,1.594,-1,4
103,3.33811,1.600,-1,4
104,3.33972,1.612,-1,4
105,3.34135,1.627,-1,4
106,3.34298,1.626,-1,4
107,3.34459,1.616,-1,4
108,3.34621,1.620,-1,4
109,3.34785,1.637,-1,4
110,3.34950,1.647,-1,4
111,3.35115,1.647,-1,4
112,3.35278,1.638,-1,4
113,3.35443,1.643,-1,4
114,3.35609,1.663,-1,4
115,3.35776,1.674,-1,4
116,3.35943,1.666,-1,4
117,3.36109,1.657,-1,4
118,3.36275,1.664,-1,4
119,3.36444,1.687,-1,4
120,3.36614,1.702,-1,4
121,3.36783,1.689,-1,4
122,3.36951,1.679,-1,4
123,3.37119,1.687,-1,4
124,3.37291,1.711,-1,4
125,3.37463,1.724,-1,4
126,3.37634,1.715,-1,4
127,3.37805,1.704,-1,4
128,3.37976,1.714,-1,4
129,3.38150,1.734,-1,4
130,3.38324,1.746,-1,4
131,3.38498,1.742,-1,4
132,3.38671,1.728,-1,4
133,3.38845,1.736,-1,4
134,3.39021,1.759,-1,4
135,3.39197,1.767,-1,4
136,3.39374,1.763,-1,4
137,3.39550,1.759,-1,4
138,3.39726,1.762,-1,4
139,3.39904,1.781,-1,4
140,3.40082,1.785,-1,4
141,3.40261,1.789,-1,4
142,3.40440,1.787,-1,4
143,3.40619,1.787,-1,4
144,3.40798,1.797,-1,4
145,3.40979,1.807,-1,4
146,3.41160,1.812,-1,4
147,3.41342,1.816,-1,4
148,3.41523,1.808,-1,4
149,3.41704,1.813,-1,4
150,3.41887,1.838,-1,4
151,3.42070,1.838,-1,4
152,3.42255,1.842,-1,4
153,3.42437,1.827,-1,4
154,3.42620,1.830,-1,4
155,3.42805,1.847,-1,4
156,3.42991,1.858,-1,4
157,3.43176,1.856,-1,4
158,3.43361,1.849,-1,4
159,3.43547,1.852,-1,4
160,3.43733,1.865,-1,4
161,3.43920,1.870,-1,4
162,3.44107,1.872,-1,4
163,3.44294,1.871,-1,4
164,3.44481,1.871,-1,4
165,3.44669,1.873,-1,4
166,3.44857,1.879,-1,4
167,3.45046,1.890,-1,4
168,3.45235,1.889,-1,4
169,3.45423,1.882,-1,4
170,3.45610,1.878,-1,4
171,3.45799,1.889,-1,4
172,3.45990,1.906,-1,4
173,3.46180,1.901,-1,4
174,3.46369,1.888,-1,4
175,3.46557,1.885,-1,4
176,3.46748,1.901,-1,4
177,3.46939,1.915,-1,4
178,3.47130,1.907,-1,4
179,3.47319,1.895,-1,4
180,3.47509,1.898,-1,4
181,3.47700,1.907,-1,4
182,3.47891,1.917,-1,4
183,3.48083,1.913,-1,4
184,3.48273,1.906,-1,4
185,3.48463,1.900,-1,4
186,3.48654,1.908,-1,4
187,3.48846,1.920,-1,4
188,3.49038,1.920,-1,4
189,3.49229,1.911,-1,4
190,3.49419,1.902,-1,4
191,3.49610,1.906,-1,4
192,3.49802,1.924,-1,4
193,3.49995,1.924,-1,4
194,3.50186,1.910,-1,4
195,3.50376,1.902,-1,4
196,3.50567,1.914,-1,4
197,3.50760,1.928,-1,4
198,3.50952,1.919,-1,4
199,3.51143,1.905,-1,4
200,3.51333,1.904,-1,4
201,3.51525,1.918,-1,4
202,3.51717,1.923,-1,4
203,3.51908,1.911,-1,4
204,3.52099,1.904,-1,4
205,3.52289,1.908,-1,4
206,3.52481,1.916,-1,4
207,3.52673,1.916,-1,4
208,3.52863,1.905,-1,4
209,3.53053,1.905,-1,4
210,3.53244,1.905,-1,4
211,3.53434,1.908,-1,4
212,3.53625,1.908,-1,4
213,3.53815,1.902,-1,4
214,3.54005,1.898,-1,4
215,3.54195,1.894,-1,4
216,3.54385,1.901,-1,4
217,3.54575,1.898,-1,4
218,3.54954,1.887,-1,4
219,3.55143,1.888,-1,4
220,3.55332,1.898,-1,4
221,3.55523,1.901,-1,4
222,3.55711,1.886,-1,4
223,3.55899,1.879,-1,4
224,3.56087,1.884,-1,4
225,3.56277,1.898,-1,4
226,3.56467,1.894,-1,4
227,3.56654,1.874,-1,4
228,3.56841,1.875,-1,4
229,3.57030,1.887,-1,4
230,3.57220,1.896,-1,4
231,3.57408,1.882,-1,4
232,3.57595,1.871,-1,4
233,3.57783,1.877,-1,4
234,3.57972,1.889,-1,4
235,3.58161,1.888,-1,4
236,3.58348,1.877,-1,4
237,3.58536,1.874,-1,4
238,3.58724,1.882,-1,4
239,3.58912,1.883,-1,4
240,3.59101,1.884,-1,4
241,3.59289,1.881,-1,4
242,3.59477,1.880,-1,4
243,3.59664,1.878,-1,4
244,3.59852,1.879,-1,4
245,3.60041,1.891,-1,4
246,3.60231,1.893,-1,4
247,3.60419,1.880,-1,4
248,3.60606,1.877,-1,4
249,3.60795,1.886,-1,4
250,3.60985,1.899,-1,4
251,3.61175,1.898,-1,4
252,3.61363,1.883,-1,4
253,3.61551,1.882,-1,4
254,3.61741,1.897,-1,4
255,3.61932,1.909,-1,4
256,3.62122,1.899,-1,4
257,3.62311,1.888,-1,4
258,3.62500,1.897,-1,4
259,3.62691,1.910,-1,4
260,3.62883,1.913,-1,4
261,3.63073,1.906,-1,4
262,3.63263,1.902,-1,4
263,3.63454,1.912,-1,4
264,3.63646,1.917,-1,4
265,3.63838,1.923,-1,4
266,3.64031,1.921,-1,4
267,3.64222,1.914,-1,4
268,3.64414,1.920,-1,4
269,3.64607,1.940,-1,4
270,3.64801,1.932,-1,4
271,3.64994,1.932,-1,4
272,3.65187,1.926,-1,4
273,3.65380,1.933,-1,4
274,3.65575,1.954,-1,4
275,3.65770,1.954,-1,4
276,3.65965,1.939,-1,4
277,3.66354,1.951,-1,4
278,3.66550,1.963,-1,4
279,3.66746,1.966,-1,4
280,3.66942,1.955,-1,4
281,3.67137,1.954,-1,4
282,3.67334,1.965,-1,4
283,3.67531,1.972,-1,4
284,3.67729,1.979,-1,4
285,3.67926,1.970,-1,4
286,3.68123,1.972,-1,4
287,3.68321,1.977,-1,4
288,3.68520,1.988,-1,4
289,3.68719,1.990,-1,4
290,3.68917,1.985,-1,4
291,3.69115,1.983,-1,4
292,3.69315,1.991,-1,4
293,3.69514,1.999,-1,4
294,3.69715,2.002,-1,4
295,3.69914,1.997,-1,4
296,3.70114,1.994,-1,4
297,3.70314,2.001,-1,4
298,3.70515,2.013,-1,4
299,3.70717,2.014,-1,4
300,3.70917,2.007,-1,4
301,3.71118,2.003,-1,4
302,3.71319,2.013,-1,4
303,3.71521,2.025,-1,4
304,3.71723,2.021,-1,4
305,3.71925,2.018,-1,4
306,3.72127,2.016,-1,4
307,3.72329,2.025,-1,4
308,3.72533,2.033,-1,4
309,3.72736,2.032,-1,4
310,3.72938,2.025,-1,4
311,3.73141,2.024,-1,4
312,3.73345,2.039,-1,4
313,3.73549,2.043,-1,4
314,3.73753,2.040,-1,4
315,3.73956,2.031,-1,4
316,3.74160,2.038,-1,4
317,3.74365,2.053,-1,4
318,3.74570,2.050,-1,4
319,3.74774,2.043,-1,4
320,3.74979,2.042,-1,4
321,3.75184,2.056,-1,4
322,3.75390,2.062,-1,4
323,3.75595,2.051,-1,4
324,3.75801,2.052,-1,4
325,3.76007,2.060,-1,4
326,3.76214,2.070,-1,4
327,3.76626,2.062,-1,4
328,3.76833,2.067,-1,4
329,3.77040,2.075,-1,4
330,3.77247,2.072,-1,4
331,3.77455,2.075,-1,4
332,3.77662,2.076,-1,4
333,3.77870,2.078,-1,4
334,3.78079,2.087,-1,4
335,3.78288,2.090,-1,4
336,3.78496,2.085,-1,4
337,3.78705,2.085,-1,4
338,3.78914,2.097,-1,4
339,3.79125,2.106,-1,4
340,3.79335,2.101,-1,4
341,3.79545,2.094,-1,4
342,3.79755,2.106,-1,4
343,3.79967,2.121,-1,4
344,3.80179,2.115,-1,4
345,3.80390,2.119,-1,4
346,3.80815,2.130,-1,4
347,3.81028,2.132,-1,4
348,3.81241,2.129,-1,4
349,3.81454,2.132,-1,4
350,3.81668,2.141,-1,4
351,3.81883,2.150,-1,4
352,3.82098,2.151,-1,4
353,3.82313,2.151,-1,4
354,3.82528,2.151,-1,4
355,3.82745,2.163,-1,4
356,3.82962,2.175,-1,4
357,3.83179,2.172,-1,4
358,3.83396,2.168,-1,4
359,3.83614,2.177,-1,4
360,3.83833,2.195,-1,4
361,3.84053,2.196,-1,4
362,3.84272,2.189,-1,4
363,3.84491,2.194,-1,4
364,3.84712,2.211,-1,4
365,3.84934,2.216,-1,4
366,3.85156,2.215,-1,4
367,3.85600,2.228,-1,4
368,3.85600,2.237,-1,4
369,3.86048,2.244,-1,4
370,3.86048,2.242,-1,4
371,3.86497,2.246,-1,4
372,3.86723,2.259,-1,4
373,3.86723,2.269,-1,4
374,3.87177,2.268,-1,4
375,3.87404,2.270,-1,4
376,3.87632,2.282,-1,4
377,3.87861,2.293,-1,4
378,3.88090,2.293,-1,4
379,3.88320,2.298,-1,4
380,3.88551,2.310,-1,4
381,3.88783,2.313,-1,4
382,3.89014,2.316,-1,4
383,3.89247,2.330,-1,4
384,3.89480,2.334,-1,4
385,3.89714,2.339,-1,4
386,3.89949,2.343,-1,4
387,3.90184,2.355,-1,4
388,3.90420,2.360,-1,4
389,3.90657,2.370,-1,4
390,3.90894,2.369,-1,4
391,3.91132,2.380,-1,4
392,3.91371,2.391,-1,4
393,3.91611,2.395,-1,4
394,3.91851,2.403,-1,4
395,3.92092,2.408,-1,4
396,3.92334,2.420,-1,4
397,3.92577,2.427,-1,4
398,3.92820,2.433,-1,4
399,3.93064,2.441,-1,4
400,3.93309,2.454,-1,4
401,3.93555,2.459,-1,4
402,3.93802,2.467,-1,4
403,3.94050,2.477,-1,4
404,3.94298,2.485,-1,4
405,3.94547,2.493,-1,4
406,3.94798,2.504,-1,4
407,3.95049,2.513,-1,4
408,3.95301,2.517,-1,4
409,3.95554,2.528,-1,4
410,3.95807,2.536,-1,4
411,3.96062,2.550,-1,4
412,3.96318,2.561,-1,4
413,3.96575,2.566,-1,4
414,3.96832,2.574,-1,4
415,3.97091,2.588,-1,4
416,3.97351,2.607,-1,4
417,3.97611,2.607,-1,4
418,3.97873,2.628,-1,4
419,3.98136,2.628,-1,4
420,3.98399,2.647,-1,4
421,3.98664,2.647,-1,4
422,3.98929,2.658,-1,4
423,3.99196,2.669,-1,4
424,3.99733,2.687,-1,4
425,4.00002,2.695,-1,4
426,4.00273,2.709,-1,4
427,4.00545,2.721,-1,4
428,4.00819,2.732,-1,4
429,4.01093,2.740,-1,4
430,4.01367,2.746,-1,4
431,4.01643,2.761,-1,4
432,4.01921,2.774,-1,4
433,4.02199,2.781,-1,4
434,4.02478,2.789,-1,4
435,4.02758,2.801,-1,4
436,4.03039,2.808,-1,4
437,4.03321,2.821,-1,4
438,4.03604,2.830,-1,4
439,4.03888,2.838,-1,4
440,4.04172,2.843,-1,4
441,4.04458,2.857,-1,4
442,4.04744,2.862,-1,4
443,4.05031,2.870,-1,4
444,4.05319,2.879,-1,4
445,4.05607,2.884,-1,4
446,4.05896,2.894,-1,4
447,4.06186,2.895,-1,4
448,4.06477,2.909,-1,4
449,4.06768,2.911,-1,4
450,4.07060,2.917,-1,4
451,4.07352,2.924,-1,4
452,4.07645,2.930,-1,4
453,4.07938,2.930,-1,4
454,4.08232,2.936,-1,4
455,4.08526,2.941,-1,4
456,4.08820,2.944,-1,4
457,4.09115,2.945,-1,4
458,4.09410,2.951,-1,4
459,4.09705,2.951,-1,4
460,4.10000,2.949,-1,4
461,4.10296,2.957,-1,4
462,4.10592,2.960,-1,4
463,4.10887,2.955,-1,4
464,4.11182,2.955,-1,4
465,4.11478,2.959,-1,4
466,4.11774,2.954,-1,4
467,4.12070,2.957,-1,4
468,4.12365,2.957,-1,4
469,4.12660,2.952,-1,4
470,4.12956,2.953,-1,4
471,4.13251,2.952,-1,4
472,4.13546,2.950,-1,4
473,4.13841,2.948,-1,4
474,4.14135,2.943,-1,4
475,4.14429,2.943,-1,4
476,4.14723,2.938,-1,4
477,4.15311,2.936,-1,4
478,4.15311,2.927,-1,4
479,4.15603,2.927,-1,4
480,4.15896,2.927,-1,4
481,4.16188,2.923,-1,4
482,4.16480,2.921,-1,4
483,4.17063,2.911,-1,4
484,4.17354,2.904,-1,4
485,4.17644,2.904,-1,4
486,4.17934,2.900,-1,4
487,4.18223,2.894,-1,4
488,4.18512,2.888,-1,4
489,4.18800,2.882,-1,4
490,4.19088,2.879,-1,4
491,4.19376,2.875,-1,4
492,4.19663,2.867,-1,4
493,4.19949,2.863,-1,4
494,4.20234,2.855,-1,4
495,4.20520,2.852,-1,4
496,4.20805,2.849,-1,4
497,4.21089,2.840,-1,4
498,4.21372,2.833,-1,4
499,4.21655,2.831,-1,4
500,4.21937,2.823,-1,4
501,4.22219,2.820,-1,4
502,4.22501,2.814,-1,4
503,4.22781,2.804,-1,4
504,4.23061,2.802,-1,4
505,4.23341,2.795,-1,4
506,4.23620,2.788,-1,4
507,4.23898,2.782,-1,4
508,4.24175,2.776,-1,4
509,4.24452,2.771,-1,4
510,4.24729,2.765,-1,4
511,4.25004,2.756,-1,4
512,4.25280,2.752,-1,4
513,4.25554,2.744,-1,4
514,4.25828,2.736,-1,4
515,4.26101,2.733,-1,4
516,4.26373,2.725,-1,4
517,4.26645,2.718,-1,4
518,4.26916,2.711,-1,4
519,4.27187,2.710,-1,4
520,4.27457,2.700,-1,4
521,4.27727,2.696,-1,4
522,4.27996,2.688,-1,4
523,4.28264,2.683,-1,4
524,4.28532,2.677,-1,4
525,4.28798,2.669,-1,4
526,4.29065,2.668,-1,4
527,4.29331,2.661,-1,4
528,4.29596,2.651,-1,4
529,4.29861,2.647,-1,4
530,4.30126,2.645,-1,4
531,4.30390,2.640,-1,4
532,4.30652,2.629,-1,4
533,4.30915,2.629,-1,4
534,4.31177,2.619,-1,4
535,4.31439,2.614,-1,4
536,4.31700,2.610,-1,4
537,4.31961,2.608,-1,4
538,4.32221,2.594,-1,4
539,4.32480,2.592,-1,4
540,4.32739,2.592,-1,4
541,4.32998,2.585,-1,4
542,4.33256,2.576,-1,4
543,4.33771,2.571,-1,4
544,4.34028,2.571,-1,4
545,4.34285,2.566,-1,4
546,4.34541,2.559,-1,4
547,4.34796,2.557,-1,4
548,4.35052,2.554,-1,4
549,4.35306,2.548,-1,4
550,4.35561,2.547,-1,4
551,4.35816,2.543,-1,4
552,4.36069,2.537,-1,4
553,4.36323,2.534,-1,4
554,4.36576,2.534,-1,4
555,4.36829,2.526,-1,4
556,4.37081,2.528,-1,4
557,4.37334,2.521,-1,4
558,4.37586,2.520,-1,4
559,4.37837,2.517,-1,4
560,4.38089,2.513,-1,4
561,4.38340,2.511,-1,4
562,4.38591,2.510,-1,4
563,4.38841,2.508,-1,4
564,4.39091,2.499,-1,4
565,4.39341,2.502,-1,4
566,4.39591,2.499,-1,4
567,4.39841,2.497,-1,4
568,4.40090,2.492,-1,4
569,4.40340,2.496,-1,4
570,4.40589,2.490,-1,4
571,4.40837,2.486,-1,4
572,4.41086,2.485,-1,4
573,4.41335,2.488,-1,4
574,4.41583,2.482,-1,4
575,4.41831,2.481,-1,4
576,4.42079,2.480,-1,4
577,4.42327,2.477,-1,4
578,4.42575,2.478,-1,4
579,4.42822,2.477,-1,4
580,4.43069,2.472,-1,4
581,4.43317,2.471,-1,4
582,4.43564,2.473,-1,4
583,4.43811,2.469,-1,4
584,4.44305,2.470,-1,4
585,4.44305,2.465,-1,4
586,4.44551,2.461,-1,4
587,4.44797,2.461,-1,4
588,4.45044,2.468,-1,4
589,4.45291,2.465,-1,4
590,4.45537,2.458,-1,4
591,4.45783,2.465,-1,4
592,4.46275,2.460,-1,4
593,4.46521,2.457,-1,4
594,4.46767,2.460,-1,4
595,4.47013,2.461,-1,4
596,4.47258,2.456,-1,4
597,4.47504,2.455,-1,4
598,4.47750,2.456,-1,4
599,4.47995,2.455,-1,4
600,4.48241,2.458,-1,4
601,4.48486,2.453,-1,4
602,4.48732,2.457,-1,4
603,4.48978,2.457,-1,4
604,4.49469,2.453,-1,4
605,4.49714,2.459,-1,4
606,4.49714,2.458,-1,4
607,4.50206,2.456,-1,4
608,4.50206,2.455,-1,4
609,4.50451,2.458,-1,4
610,4.50697,2.458,-1,4
611,4.51189,2.461,-1,4
612,4.51435,2.460,-1,4
613,4.51681,2.460,-1,4
614,4.51927,2.462,-1,4
615,4.52173,2.460,-1,4
616,4.52420,2.462,-1,4
617,4.52666,2.464,-1,4
618,4.52912,2.465,-1,4
619,4.53159,2.463,-1,4
620,4.53405,2.466,-1,4
621,4.53652,2.466,-1,4
622,4.53899,2.467,-1,4
623,4.54145,2.467,-1,4
624,4.54392,2.470,-1,4
625,4.54639,2.470,-1,4
626,4.54886,2.469,-1,4
627,4.55133,2.471,-1,4
628,4.55381,2.476,-1,4
629,4.55628,2.476,-1,4
630,4.55876,2.474,-1,4
631,4.56123,2.475,-1,4
632,4.56371,2.479,-1,4
633,4.56619,2.482,-1,4
634,4.56868,2.483,-1,4
635,4.57116,2.483,-1,4
636,4.57365,2.486,-1,4
637,4.57613,2.488,-1,4
638,4.57862,2.487,-1,4
639,4.58111,2.491,-1,4
640,4.58361,2.494,-1,4
641,4.58610,2.493,-1,4
642,4.59109,2.499,-1,4
643,4.59359,2.502,-1,4
644,4.59610,2.503,-1,4
645,4.59860,2.502,-1,4
646,4.60111,2.509,-1,4
647,4.60362,2.511,-1,4
648,4.60613,2.511,-1,4
649,4.60865,2.516,-1,4
650,4.61117,2.520,-1,4
651,4.61369,2.521,-1,4
652,4.61621,2.524,-1,4
653,4.61874,2.528,-1,4
654,4.62127,2.529,-1,4
655,4.62381,2.538,-1,4
656,4.62634,2.537,-1,4
657,4.62889,2.543,-1,4
658,4.63143,2.548,-1,4
659,4.63398,2.551,-1,4
660,4.63654,2.552,-1,4
661,4.63910,2.564,-1,4
662,4.64167,2.567,-1,4
663,4.64424,2.569,-1,4
664,4.64681,2.575,-1,4
665,4.64939,2.581,-1,4
666,4.65198,2.588,-1,4
667,4.65457,2.593,-1,4
668,4.65717,2.596,-1,4
669,4.65977,2.603,-1,4
670,4.66238,2.611,-1,4
671,4.66500,2.616,-1,4
672,4.66762,2.624,-1,4
673,4.67025,2.630,-1,4
674,4.67289,2.635,-1,4
675,4.67553,2.642,-1,4
676,4.67818,2.649,-1,4
677,4.68084,2.659,-1,4
678,4.68350,2.662,-1,4
679,4.68617,2.672,-1,4
680,4.68886,2.682,-1,4
681,4.69154,2.687,-1,4
682,4.69424,2.694,-1,4
683,4.69694,2.704,-1,4
684,4.69965,2.712,-1,4
685,4.70237,2.721,-1,4
686,4.70511,2.732,-1,4
687,4.70784,2.739,-1,4
688,4.71059,2.746,-1,4
689,4.71335,2.757,-1,4
690,4.71889,2.779,-1,4
691,4.72168,2.783,-1,4
692,4.72447,2.794,-1,4
693,4.72728,2.808,-1,4
694,4.73010,2.817,-1,4
695,4.73292,2.828,-1,4
696,4.73576,2.837,-1,4
697,4.73861,2.845,-1,4
698,4.74147,2.862,-1,4
699,4.74434,2.872,-1,4
700,4.74722,2.879,-1,4
701,4.75011,2.893,-1,4
702,4.75301,2.903,-1,4
703,4.75593,2.919,-1,4
704,4.75886,2.927,-1,4
705,4.76180,2.940,-1,4
706,4.76475,2.953,-1,4
707,4.76772,2.964,-1,4
708,4.77069,2.978,-1,4
709,4.77368,2.990,-1,4
710,4.77669,3.004,-1,4
711,4.77971,3.018,-1,4
712,4.78274,3.034,-1,4
713,4.78578,3.044,-1,4
714,4.78884,3.060,-1,4
715,4.79191,3.069,-1,4
716,4.79500,3.090,-1,4
717,4.79811,3.103,-1,4
718,4.80122,3.116,-1,4
719,4.80435,3.126,-1,4
720,4.80749,3.145,-1,4
721,4.81065,3.160,-1,4
722,4.81383,3.177,-1,4
723,4.81702,3.188,-1,4
724,4.82022,3.203,-1,4
725,4.82344,3.215,-1,4
726,4.82667,3.235,-1,4
727,4.82992,3.250,-1,4
728,4.83318,3.262,-1,4
729,4.83646,3.276,-1,4
730,4.83975,3.293,-1,4
731,4.84306,3.309,-1,4
732,4.84639,3.325,-1,4
733,4.84973,3.338,-1,4
734,4.85308,3.350,-1,4
735,4.85644,3.366,-1,4
736,4.85983,3.384,-1,4
737,4.86323,3.399,-1,4
738,4.86664,3.415,-1,4
739,4.87006,3.424,-1,4
740,4.87351,3.441,-1,4
741,4.87696,3.455,-1,4
742,4.88043,3.469,-1,4
743,4.88391,3.480,-1,4
744,4.88740,3.492,-1,4
745,4.89091,3.504,-1,4
746,4.89442,3.519,-1,4
747,4.89796,3.533,-1,4
748,4.90150,3.543,-1,4
749,4.90505,3.550,-1,4
750,4.90862,3.565,-1,4
751,4.91219,3.574,-1,4
752,4.91578,3.587,-1,4
753,4.91937,3.595,-1,4
754,4.92298,3.608,-1,4
755,4.92659,3.614,-1,4
756,4.93022,3.626,-1,4
757,4.93385,3.631,-1,4
758,4.93749,3.641,-1,4
759,4.94114,3.649,-1,4
760,4.94479,3.662,-1,4
761,4.95213,3.669,-1,4
762,4.95213,3.675,-1,4
763,4.95948,3.677,-1,4
764,4.95948,3.684,-1,4
765,4.96316,3.684,-1,4
766,4.96685,3.686,-1,4
767,4.97054,3.692,-1,4
768,4.97424,3.695,-1,4
769,4.97793,3.700,-1,4
770,4.98534,3.706,-1,4
771,4.98534,3.705,-1,4
772,4.98905,3.705,-1,4
773,4.99276,3.710,-1,4
774,4.99647,3.709,-1,4
775,5.00018,3.713,-1,4
776,5.00389,3.711,-1,4
777,5.00760,3.710,-1,4
778,5.01131,3.714,-1,4
779,5.01503,3.713,-1,4
780,5.01874,3.716,-1,4
781,5.02245,3.709,-1,4
782,5.02616,3.710,-1,4
783,5.02987,3.706,-1,4
784,5.03358,3.708,-1,4
785,5.03728,3.708,-1,4
786,5.04099,3.703,-1,4
787,5.04469,3.701,-1,4
788,5.04839,3.698,-1,4
789,5.05208,3.694,-1,4
790,5.05578,3.698,-1,4
791,5.05947,3.689,-1,4
792,5.06316,3.689,-1,4
793,5.06684,3.683,-1,4
794,5.07052,3.682,-1,4
795,5.07420,3.681,-1,4
796,5.07788,3.675,-1,4
797,5.08155,3.672,-1,4
798,5.08522,3.667,-1,4
799,5.08888,3.662,-1,4
800,5.09254,3.657,-1,4
801,5.09619,3.657,-1,4
802,5.09984,3.649,-1,4
803,5.10349,3.644,-1,4
804,5.10712,3.636,-1,4
805,5.11076,3.634,-1,4
806,5.11438,3.629,-1,4
807,5.11801,3.624,-1,4
808,5.12163,3.617,-1,4
809,5.12524,3.613,-1,4
810,5.13245,3.600,-1,4
811,5.13604,3.595,-1,4
812,5.13963,3.591,-1,4
813,5.14321,3.583,-1,4
814,5.14679,3.574,-1,4
815,5.15036,3.572,-1,4
816,5.15393,3.565,-1,4
817,5.15749,3.562,-1,4
818,5.16104,3.551,-1,4
819,5.16458,3.543,-1,4
820,5.16812,3.538,-1,4
821,5.17165,3.531,-1,4
822,5.17517,3.523,-1,4
823,5.17869,3.518,-1,4
824,5.18220,3.507,-1,4
825,5.18570,3.499,-1,4
826,5.18919,3.494,-1,4
827,5.19268,3.484,-1,4
828,5.19615,3.477,-1,4
829,5.19963,3.472,-1,4
830,5.20309,3.461,-1,4
831,5.20655,3.458,-1,4
832,5.20999,3.449,-1,4
833,5.21344,3.442,-1,4
834,5.21687,3.429,-1,4
835,5.22029,3.426,-1,4
836,5.22371,3.419,-1,4
837,5.22712,3.409,-1,4
838,5.23052,3.402,-1,4
839,5.23391,3.391,-1,4
840,5.23730,3.386,-1,4
841,5.24068,3.379,-1,4
842,5.24405,3.372,-1,4
843,5.24741,3.359,-1,4
844,5.25076,3.350,-1,4
845,5.25411,3.348,-1,4
846,5.25744,3.338,-1,4
847,5.26078,3.331,-1,4
848,5.26410,3.321,-1,4
849,5.26741,3.316,-1,4
850,5.27072,3.309,-1,4
851,5.27402,3.301,-1,4
852,5.27732,3.293,-1,4
853,5.28060,3.288,-1,4
854,5.28388,3.281,-1,4
855,5.28716,3.273,-1,4
856,5.29042,3.267,-1,4
857,5.29368,3.260,-1,4
858,5.29693,3.249,-1,4
859,5.30018,3.250,-1,4
860,5.30665,3.232,-1,4
861,5.30665,3.226,-1,4
862,5.31310,3.216,-1,4
863,5.31310,3.213,-1,4
864,5.31631,3.208,-1,4
865,5.31952,3.208,-1,4
866,5.32271,3.199,-1,4
867,5.32590,3.190,-1,4
868,5.33227,3.179,-1,4
869,5.33545,3.177,-1,4
870,5.33862,3.169,-1,4
871,5.34178,3.165,-1,4
872,5.34494,3.160,-1,4
873,5.34810,3.155,-1,4
