cnt,pos,speed,Dir,Force,
1,0,1.0004,-1,1
2,0.00101995,1.004,-1,1
3,0.00204992,1.0081,-1,1
4,0.00307989,1.0118,-1,1
5,0.00410986,1.0151,-1,1
6,0.00513983,1.0181,-1,1
7,0.00617981,1.0206,-1,1
8,0.00720978,1.0233,-1,1
9,0.00824976,1.0263,-1,1
10,0.00928974,1.0297,-1,1
11,0.0103397,1.0337,-1,1
12,0.0113997,1.0376,-1,1
13,0.0124598,1.0409,-1,1
14,0.0135098,1.0435,-1,1
15,0.0145597,1.0454,-1,1
16,0.0156198,1.0476,-1,1
17,0.0166798,1.0505,-1,1
18,0.0177498,1.054,-1,1
19,0.0188298,1.0581,-1,1
20,0.0199099,1.0619,-1,1
21,0.0209899,1.0648,-1,1
22,0.0220599,1.0666,-1,1
23,0.02314,1.0681,-1,1
24,0.02421,1.0704,-1,1
25,0.0253,1.0742,-1,1
26,0.0264001,1.0787,-1,1
27,0.0275097,1.0829,-1,1
28,0.0286098,1.0861,-1,1
29,0.0297098,1.088,-1,1
30,0.0307999,1.0895,-1,1
31,0.0318999,1.0915,-1,1
32,0.03301,1.0952,-1,1
33,0.0341401,1.1,-1,1
34,0.0352597,1.1046,-1,1
35,0.0363798,1.1076,-1,1
36,0.0374999,1.109,-1,1
37,0.03861,1.1101,-1,1
38,0.0397301,1.1125,-1,1
39,0.0408697,1.1164,-1,1
40,0.0420098,1.1211,-1,1
41,0.04316,1.1255,-1,1
42,0.0443001,1.1283,-1,1
43,0.0454297,1.1295,-1,1
44,0.0465698,1.1305,-1,1
45,0.0477099,1.1328,-1,1
46,0.0488601,1.137,-1,1
47,0.0500298,1.142,-1,1
48,0.0511999,1.1462,-1,1
49,0.05235,1.1483,-1,1
50,0.0535097,1.1493,-1,1
51,0.0546598,1.1503,-1,1
52,0.05582,1.1526,-1,1
53,0.0569997,1.1567,-1,1
54,0.0581799,1.1613,-1,1
55,0.05936,1.1655,-1,1
56,0.0605397,1.1679,-1,1
57,0.0617199,1.1687,-1,1
58,0.0628901,1.1693,-1,1
59,0.0640697,1.1718,-1,1
60,0.0652599,1.1759,-1,1
61,0.0664601,1.1806,-1,1
62,0.0676699,1.1847,-1,1
63,0.0688701,1.1872,-1,1
64,0.0700598,1.1882,-1,1
65,0.07125,1.1891,-1,1
66,0.0724597,1.1916,-1,1
67,0.0736699,1.1958,-1,1
68,0.0749002,1.2008,-1,1
69,0.0761099,1.2045,-1,1
70,0.0773301,1.2063,-1,1
71,0.0785398,1.2075,-1,1
72,0.0797601,1.2088,-1,1
73,0.0809898,1.2118,-1,1
74,0.0822201,1.2163,-1,1
75,0.0834599,1.2208,-1,1
76,0.0847001,1.2236,-1,1
77,0.0859299,1.2252,-1,1
78,0.0871601,1.2264,-1,1
79,0.0883999,1.2286,-1,1
80,0.0896497,1.2324,-1,1
81,0.09091,1.2366,-1,1
82,0.0921597,1.2403,-1,1
83,0.09341,1.2425,-1,1
84,0.0946598,1.2437,-1,1
85,0.0959201,1.2453,-1,1
86,0.0971799,1.2484,-1,1
87,0.0984497,1.2522,-1,1
88,0.09972,1.2562,-1,1
89,0.10099,1.259,-1,1
90,0.10226,1.2607,-1,1
91,0.10352,1.2618,-1,1
92,0.1048,1.2638,-1,1
93,0.10608,1.267,-1,1
94,0.10737,1.271,-1,1
95,0.10866,1.2743,-1,1
96,0.10994,1.2761,-1,1
97,0.11122,1.2773,-1,1
98,0.11251,1.2787,-1,1
99,0.1138,1.2813,-1,1
100,0.11511,1.2848,-1,1
101,0.11641,1.2886,-1,1
102,0.11771,1.2912,-1,1
103,0.11901,1.2923,-1,1
104,0.1203,1.2933,-1,1
105,0.12161,1.2952,-1,1
106,0.12292,1.2983,-1,1
107,0.12424,1.3018,-1,1
108,0.12555,1.3043,-1,1
109,0.12686,1.3059,-1,1
110,0.12817,1.3067,-1,1
111,0.12949,1.308,-1,1
112,0.13081,1.3103,-1,1
113,0.13214,1.3133,-1,1
114,0.13346,1.3159,-1,1
115,0.13478,1.3174,-1,1
116,0.13611,1.3185,-1,1
117,0.13744,1.3197,-1,1
118,0.13877,1.3215,-1,1
119,0.1401,1.3237,-1,1
120,0.14143,1.3257,-1,1
121,0.14276,1.3273,-1,1
122,0.1441,1.3285,-1,1
123,0.14544,1.3297,-1,1
124,0.14678,1.3313,-1,1
125,0.14812,1.3332,-1,1
126,0.14946,1.3348,-1,1
127,0.1508,1.336,-1,1
128,0.15214,1.3374,-1,1
129,0.15349,1.3387,-1,1
130,0.15483,1.3403,-1,1
131,0.15618,1.3416,-1,1
132,0.15753,1.3429,-1,1
133,0.15888,1.3443,-1,1
134,0.16023,1.3454,-1,1
135,0.16158,1.3464,-1,1
136,0.16293,1.3476,-1,1
137,0.16428,1.3486,-1,1
138,0.16564,1.3494,-1,1
139,0.16699,1.3503,-1,1
140,0.16835,1.3514,-1,1
141,0.1697,1.3522,-1,1
142,0.17106,1.3528,-1,1
143,0.17241,1.3533,-1,1
144,0.17377,1.354,-1,1
145,0.17513,1.3547,-1,1
146,0.17649,1.3555,-1,1
147,0.17785,1.3564,-1,1
148,0.1792,1.3567,-1,1
149,0.18056,1.3567,-1,1
150,0.18191,1.3567,-1,1
151,0.18327,1.3573,-1,1
152,0.18463,1.3579,-1,1
153,0.18599,1.3583,-1,1
154,0.18735,1.3579,-1,1
155,0.1887,1.3576,-1,1
156,0.19006,1.3572,-1,1
157,0.19142,1.3572,-1,1
158,0.19278,1.3575,-1,1
159,0.19413,1.3577,-1,1
160,0.19548,1.3571,-1,1
161,0.19683,1.3561,-1,1
162,0.19819,1.3552,-1,1
163,0.19954,1.3546,-1,1
164,0.20089,1.3546,-1,1
165,0.20224,1.3541,-1,1
166,0.20359,1.353,-1,1
167,0.20493,1.3514,-1,1
168,0.20628,1.3502,-1,1
169,0.20763,1.3492,-1,1
170,0.20897,1.3486,-1,1
171,0.21031,1.3478,-1,1
172,0.21165,1.3463,-1,1
173,0.21299,1.3445,-1,1
174,0.21433,1.3431,-1,1
175,0.21567,1.3422,-1,1
176,0.217,1.3412,-1,1
177,0.21833,1.3398,-1,1
178,0.21966,1.3377,-1,1
179,0.22098,1.3357,-1,1
180,0.22231,1.3343,-1,1
181,0.22365,1.3333,-1,1
182,0.22497,1.3321,-1,1
183,0.22629,1.3301,-1,1
184,0.2276,1.3273,-1,1
185,0.22892,1.3248,-1,1
186,0.23024,1.3234,-1,1
187,0.23156,1.3224,-1,1
188,0.23287,1.3212,-1,1
189,0.23417,1.3187,-1,1
190,0.23547,1.3153,-1,1
191,0.23677,1.3123,-1,1
192,0.23808,1.3105,-1,1
193,0.23938,1.3095,-1,1
194,0.24068,1.3082,-1,1
195,0.24197,1.3054,-1,1
196,0.24325,1.3015,-1,1
197,0.24454,1.2981,-1,1
198,0.24583,1.2958,-1,1
199,0.24712,1.2948,-1,1
200,0.2484,1.2935,-1,1
201,0.24968,1.2907,-1,1
202,0.25094,1.2865,-1,1
203,0.25221,1.2827,-1,1
204,0.25348,1.2799,-1,1
205,0.25476,1.2787,-1,1
206,0.25603,1.2776,-1,1
207,0.25729,1.2751,-1,1
208,0.25854,1.2711,-1,1
209,0.25978,1.2666,-1,1
210,0.26104,1.2635,-1,1
211,0.26229,1.2618,-1,1
212,0.26355,1.2598,-1,1
213,0.26479,1.2565,-1,1
214,0.26726,1.2522,-1,1
215,0.26849,1.2478,-1,1
216,0.26849,1.2443,-1,1
217,0.26972,1.2419,-1,1
218,0.27096,1.2406,-1,1
219,0.27219,1.2385,-1,1
220,0.27341,1.235,-1,1
221,0.27461,1.2302,-1,1
222,0.27582,1.2269,-1,1
223,0.27704,1.225,-1,1
224,0.27826,1.2237,-1,1
225,0.27947,1.2217,-1,1
226,0.28067,1.2182,-1,1
227,0.28186,1.2136,-1,1
228,0.28305,1.2087,-1,1
229,0.28424,1.2054,-1,1
230,0.28543,1.203,-1,1
231,0.28663,1.2014,-1,1
232,0.28781,1.1987,-1,1
233,0.28898,1.1944,-1,1
234,0.29015,1.1897,-1,1
235,0.29132,1.1853,-1,1
236,0.29249,1.1824,-1,1
237,0.29367,1.1806,-1,1
238,0.29483,1.1782,-1,1
239,0.29599,1.1746,-1,1
240,0.29713,1.17,-1,1
241,0.29828,1.1651,-1,1
242,0.29943,1.1615,-1,1
243,0.30058,1.1591,-1,1
244,0.30172,1.1569,-1,1
245,0.30286,1.1539,-1,1
246,0.30399,1.1498,-1,1
247,0.30511,1.145,-1,1
248,0.30624,1.1407,-1,1
249,0.30736,1.1376,-1,1
250,0.30849,1.1354,-1,1
251,0.30961,1.1332,-1,1
252,0.31072,1.1296,-1,1
253,0.31183,1.1252,-1,1
254,0.31293,1.1207,-1,1
255,0.31403,1.1172,-1,1
256,0.31513,1.1144,-1,1
257,0.31624,1.1121,-1,1
258,0.31733,1.1095,-1,1
259,0.31842,1.1059,-1,1
260,0.3195,1.1015,-1,1
261,0.32058,1.0971,-1,1
262,0.32166,1.0939,-1,1
263,0.32274,1.0915,-1,1
264,0.32382,1.0892,-1,1
265,0.32489,1.0862,-1,1
266,0.32596,1.0825,-1,1
267,0.32702,1.0786,-1,1
268,0.32808,1.0748,-1,1
269,0.32914,1.0714,-1,1
270,0.33019,1.0688,-1,1
271,0.33125,1.0666,-1,1
272,0.3323,1.0638,-1,1
273,0.33335,1.0603,-1,1
274,0.33439,1.0566,-1,1
275,0.33542,1.0529,-1,1
276,0.33646,1.0501,-1,1
277,0.3375,1.0475,-1,1
278,0.33853,1.045,-1,1
279,0.33956,1.0424,-1,1
280,0.34059,1.0397,-1,1
281,0.34161,1.0365,-1,1
282,0.34264,1.0334,-1,1
283,0.34365,1.0305,-1,1
284,0.34467,1.0279,-1,1
285,0.34568,1.0257,-1,1
286,0.3467,1.0235,-1,1
287,0.34771,1.021,-1,1
288,0.34871,1.0183,-1,1
289,0.34972,1.0157,-1,1
290,0.35072,1.013,-1,1
291,0.35172,1.0108,-1,1
292,0.35272,1.0087,-1,1
293,0.35372,1.0068,-1,1
294,0.35472,1.0051,-1,1
295,0.35572,1.0034,-1,1
296,0.35671,1.001,-1,1
297,0.3577,0.9989,-1,1
298,0.35869,0.9972,-1,1
299,0.35968,0.9959,-1,1
300,0.36067,0.9948,-1,1
301,0.36166,0.9935,-1,1
302,0.36265,0.9922,-1,1
303,0.36363,0.9909,-1,1
304,0.36462,0.9897,-1,1
305,0.3656,0.9887,-1,1
306,0.36659,0.988,-1,1
307,0.36757,0.9874,-1,1
308,0.36856,0.987,-1,1
309,0.36955,0.9868,-1,1
310,0.37053,0.9865,-1,1
311,0.37152,0.9864,-1,1
312,0.37251,0.9864,-1,1
313,0.3735,0.9867,-1,1
314,0.37449,0.9871,-1,1
315,0.37548,0.9875,-1,1
316,0.37647,0.9884,-1,1
317,0.37747,0.9896,-1,1
318,0.37847,0.9911,-1,1
319,0.37947,0.9924,-1,1
320,0.38047,0.9935,-1,1
321,0.38147,0.9947,-1,1
322,0.38247,0.9963,-1,1
323,0.38348,0.9984,-1,1
324,0.38449,1.0009,-1,1
325,0.38551,1.0036,-1,1
326,0.38653,1.0061,-1,1
327,0.38755,1.0085,-1,1
328,0.38858,1.0109,-1,1
329,0.3896,1.0134,-1,1
330,0.39063,1.0167,-1,1
331,0.39167,1.0206,-1,1
332,0.39272,1.0248,-1,1
333,0.39377,1.0289,-1,1
334,0.39482,1.0327,-1,1
335,0.39588,1.0365,-1,1
336,0.39694,1.0406,-1,1
337,0.398,1.0454,-1,1
338,0.39908,1.0503,-1,1
339,0.40016,1.0555,-1,1
340,0.40124,1.061,-1,1
341,0.40234,1.0665,-1,1
342,0.40344,1.0719,-1,1
343,0.40454,1.077,-1,1
344,0.40564,1.0824,-1,1
345,0.40676,1.0885,-1,1
346,0.40789,1.0952,-1,1
347,0.40902,1.1019,-1,1
348,0.41016,1.1086,-1,1
349,0.41131,1.1153,-1,1
350,0.41246,1.1218,-1,1
351,0.41362,1.1283,-1,1
352,0.41479,1.1353,-1,1
353,0.41597,1.143,-1,1
354,0.41716,1.1512,-1,1
355,0.41835,1.1593,-1,1
356,0.41956,1.1668,-1,1
357,0.42076,1.1739,-1,1
358,0.42198,1.1815,-1,1
359,0.42321,1.1896,-1,1
360,0.42445,1.1985,-1,1
361,0.4257,1.2076,-1,1
362,0.42696,1.2166,-1,1
363,0.42822,1.225,-1,1
364,0.42949,1.2332,-1,1
365,0.43077,1.2428,-1,1
366,0.43206,1.252,-1,1
367,0.43337,1.2621,-1,1
368,0.43468,1.272,-1,1
369,0.43601,1.2814,-1,1
370,0.43733,1.2899,-1,1
371,0.43867,1.2985,-1,1
372,0.44002,1.3079,-1,1
373,0.44138,1.318,-1,1
374,0.44276,1.3282,-1,1
375,0.44552,1.3373,-1,1
376,0.44691,1.3475,-1,1
377,0.44832,1.3577,-1,1
378,0.44974,1.3681,-1,1
379,0.45117,1.3789,-1,1
380,0.45261,1.3899,-1,1
381,0.45405,1.4007,-1,1
382,0.45551,1.4109,-1,1
383,0.45697,1.4212,-1,1
384,0.45845,1.4317,-1,1
385,0.45994,1.4418,-1,1
386,0.46143,1.4515,-1,1
387,0.46293,1.4606,-1,1
388,0.46444,1.47,-1,1
389,0.46597,1.4795,-1,1
390,0.4675,1.4893,-1,1
391,0.46904,1.499,-1,1
392,0.47059,1.5082,-1,1
393,0.47214,1.517,-1,1
394,0.47371,1.526,-1,1
395,0.47529,1.5354,-1,1
396,0.47688,1.5448,-1,1
397,0.47847,1.5539,-1,1
398,0.48006,1.5622,-1,1
399,0.48167,1.5718,-1,1
400,0.48329,1.5804,-1,1
401,0.48492,1.5892,-1,1
402,0.48655,1.5978,-1,1
403,0.48819,1.606,-1,1
404,0.48983,1.6134,-1,1
405,0.49148,1.6209,-1,1
406,0.49315,1.6289,-1,1
407,0.49482,1.6371,-1,1
408,0.4965,1.6448,-1,1
409,0.49817,1.6505,-1,1
410,0.49986,1.657,-1,1
411,0.50155,1.6637,-1,1
412,0.50326,1.6708,-1,1
413,0.50496,1.6777,-1,1
414,0.50667,1.6842,-1,1
415,0.50839,1.6902,-1,1
416,0.51011,1.6956,-1,1
417,0.51184,1.7013,-1,1
418,0.51357,1.7073,-1,1
419,0.51531,1.7133,-1,1
420,0.51704,1.7186,-1,1
421,0.51879,1.7233,-1,1
422,0.52054,1.728,-1,1
423,0.52229,1.733,-1,1
424,0.52405,1.7381,-1,1
425,0.52581,1.7427,-1,1
426,0.52757,1.747,-1,1
427,0.52934,1.7506,-1,1
428,0.53111,1.7545,-1,1
429,0.53289,1.7582,-1,1
430,0.53467,1.7623,-1,1
431,0.53644,1.7659,-1,1
432,0.53823,1.7692,-1,1
433,0.54001,1.7723,-1,1
434,0.5418,1.7755,-1,1
435,0.54359,1.7784,-1,1
436,0.54539,1.7814,-1,1
437,0.54718,1.7842,-1,1
438,0.54898,1.7868,-1,1
439,0.55078,1.7892,-1,1
440,0.55258,1.7914,-1,1
441,0.55438,1.7937,-1,1
442,0.55619,1.7958,-1,1
443,0.55799,1.7976,-1,1
444,0.5598,1.7993,-1,1
445,0.5616,1.8009,-1,1
446,0.56341,1.8024,-1,1
447,0.56522,1.8038,-1,1
448,0.56703,1.8047,-1,1
449,0.56884,1.8058,-1,1
450,0.57065,1.8067,-1,1
451,0.57246,1.8077,-1,1
452,0.57427,1.8083,-1,1
453,0.57608,1.8089,-1,1
454,0.57789,1.8089,-1,1
455,0.5797,1.8092,-1,1
456,0.5815,1.8091,-1,1
457,0.58331,1.8091,-1,1
458,0.58512,1.8089,-1,1
459,0.58692,1.8086,-1,1
460,0.58873,1.808,-1,1
461,0.59053,1.8072,-1,1
462,0.59233,1.8063,-1,1
463,0.59413,1.8052,-1,1
464,0.59593,1.8042,-1,1
465,0.59773,1.803,-1,1
466,0.59952,1.8019,-1,1
467,0.60132,1.8004,-1,1
468,0.60311,1.799,-1,1
469,0.6049,1.7972,-1,1
470,0.60668,1.7955,-1,1
471,0.60847,1.7935,-1,1
472,0.61025,1.7915,-1,1
473,0.61203,1.7895,-1,1
474,0.61381,1.7876,-1,1
475,0.61558,1.7855,-1,1
476,0.61735,1.783,-1,1
477,0.61912,1.7807,-1,1
478,0.62089,1.7781,-1,1
479,0.62265,1.7754,-1,1
480,0.62441,1.7729,-1,1
481,0.62617,1.7702,-1,1
482,0.62792,1.7675,-1,1
483,0.62967,1.7646,-1,1
484,0.63142,1.7615,-1,1
485,0.63317,1.7584,-1,1
486,0.63491,1.7554,-1,1
487,0.63664,1.7521,-1,1
488,0.63838,1.749,-1,1
489,0.64011,1.746,-1,1
490,0.64183,1.7423,-1,1
491,0.64356,1.7391,-1,1
492,0.64528,1.7357,-1,1
493,0.647,1.7325,-1,1
494,0.64871,1.7291,-1,1
495,0.65042,1.7255,-1,1
496,0.65212,1.7218,-1,1
497,0.65383,1.7183,-1,1
498,0.65553,1.7148,-1,1
499,0.65722,1.7114,-1,1
500,0.65892,1.7082,-1,1
501,0.6606,1.7044,-1,1
502,0.66229,1.7007,-1,1
503,0.66397,1.697,-1,1
504,0.66565,1.6935,-1,1
505,0.66732,1.6901,-1,1
506,0.66899,1.6865,-1,1
507,0.67066,1.6829,-1,1
508,0.67232,1.6795,-1,1
509,0.67398,1.676,-1,1
510,0.67564,1.6724,-1,1
511,0.67729,1.6688,-1,1
512,0.67894,1.6653,-1,1
513,0.68059,1.6621,-1,1
514,0.68224,1.659,-1,1
515,0.68388,1.6555,-1,1
516,0.68551,1.652,-1,1
517,0.68714,1.6487,-1,1
518,0.68878,1.6456,-1,1
519,0.69041,1.6425,-1,1
520,0.69203,1.6392,-1,1
521,0.69365,1.6359,-1,1
522,0.69527,1.6329,-1,1
523,0.69689,1.6299,-1,1
524,0.6985,1.6268,-1,1
525,0.70011,1.6238,-1,1
526,0.70172,1.621,-1,1
527,0.70333,1.6184,-1,1
528,0.70494,1.6159,-1,1
529,0.70654,1.6131,-1,1
530,0.70814,1.6105,-1,1
531,0.70973,1.6083,-1,1
532,0.71133,1.6062,-1,1
533,0.71293,1.6044,-1,1
534,0.71453,1.6024,-1,1
535,0.71612,1.6005,-1,1
536,0.7177,1.5985,-1,1
537,0.7193,1.5969,-1,1
538,0.72089,1.5953,-1,1
539,0.72248,1.5942,-1,1
540,0.72407,1.5929,-1,1
541,0.72565,1.5915,-1,1
542,0.72723,1.59,-1,1
543,0.72882,1.589,-1,1
544,0.73041,1.5881,-1,1
545,0.73199,1.5873,-1,1
546,0.73357,1.5865,-1,1
547,0.73515,1.5857,-1,1
548,0.73674,1.5849,-1,1
549,0.73833,1.5843,-1,1
550,0.73991,1.5838,-1,1
551,0.74148,1.5834,-1,1
552,0.74306,1.583,-1,1
553,0.74464,1.582,-1,1
554,0.74623,1.5815,-1,1
555,0.7478,1.581,-1,1
556,0.74938,1.5808,-1,1
557,0.75096,1.5804,-1,1
558,0.75254,1.5801,-1,1
559,0.75412,1.579,-1,1
560,0.75569,1.5783,-1,1
561,0.75726,1.578,-1,1
562,0.75884,1.5777,-1,1
563,0.76042,1.5775,-1,1
564,0.76199,1.5767,-1,1
565,0.76356,1.5756,-1,1
566,0.76513,1.5747,-1,1
567,0.7667,1.5738,-1,1
568,0.76827,1.5732,-1,1
569,0.76984,1.5719,-1,1
570,0.77141,1.5708,-1,1
571,0.77297,1.5692,-1,1
572,0.77453,1.5677,-1,1
573,0.77609,1.5665,-1,1
574,0.77766,1.5659,-1,1
575,0.77922,1.565,-1,1
576,0.78077,1.5635,-1,1
577,0.78232,1.5617,-1,1
578,0.78388,1.5599,-1,1
579,0.78544,1.5596,-1,1
580,0.78699,1.5587,-1,1
581,0.78854,1.5571,-1,1
582,0.79008,1.5552,-1,1
583,0.79162,1.553,-1,1
584,0.79317,1.5509,-1,1
585,0.79471,1.5494,-1,1
586,0.79625,1.5478,-1,1
587,0.79778,1.5461,-1,1
588,0.79932,1.5438,-1,1
589,0.80085,1.5414,-1,1
590,0.80238,1.5389,-1,1
591,0.80391,1.5373,-1,1
592,0.80543,1.5355,-1,1
593,0.80696,1.5335,-1,1
594,0.80848,1.5311,-1,1
595,0.81,1.5285,-1,1
596,0.81151,1.526,-1,1
597,0.81302,1.5239,-1,1
598,0.81605,1.5218,-1,1
599,0.81605,1.5186,-1,1
600,0.81905,1.5156,-1,1
601,0.82055,1.5127,-1,1
602,0.82206,1.5108,-1,1
603,0.82356,1.5086,-1,1
604,0.82506,1.5059,-1,1
605,0.82654,1.5031,-1,1
606,0.82803,1.5004,-1,1
607,0.82952,1.4979,-1,1
608,0.83101,1.4955,-1,1
609,0.8325,1.494,-1,1
610,0.83398,1.4922,-1,1
611,0.83545,1.4897,-1,1
612,0.83692,1.4865,-1,1
613,0.8384,1.4841,-1,1
614,0.83988,1.4819,-1,1
615,0.84135,1.48,-1,1
616,0.84281,1.4779,-1,1
617,0.84427,1.4753,-1,1
618,0.84574,1.4728,-1,1
619,0.8472,1.4704,-1,1
620,0.84866,1.4682,-1,1
621,0.85011,1.466,-1,1
622,0.85156,1.464,-1,1
623,0.85302,1.4617,-1,1
624,0.85447,1.4597,-1,1
625,0.85592,1.4576,-1,1
626,0.85736,1.4553,-1,1
627,0.8588,1.4527,-1,1
628,0.86024,1.4506,-1,1
629,0.86169,1.4488,-1,1
630,0.86313,1.4471,-1,1
631,0.86456,1.4452,-1,1
632,0.86599,1.4424,-1,1
633,0.86742,1.4396,-1,1
634,0.86885,1.4375,-1,1
635,0.87029,1.4361,-1,1
636,0.87171,1.435,-1,1
637,0.87313,1.4332,-1,1
638,0.87455,1.4303,-1,1
639,0.87597,1.4274,-1,1
640,0.87739,1.4255,-1,1
641,0.87881,1.4245,-1,1
642,0.88023,1.4239,-1,1
643,0.88164,1.4221,-1,1
644,0.88305,1.4197,-1,1
645,0.88446,1.4171,-1,1
646,0.88587,1.4153,-1,1
647,0.88728,1.4145,-1,1
648,0.88868,1.4135,-1,1
649,0.89009,1.4121,-1,1
650,0.89149,1.4099,-1,1
651,0.89289,1.4078,-1,1
652,0.89429,1.4061,-1,1
653,0.89569,1.4049,-1,1
654,0.89708,1.4034,-1,1
655,0.89848,1.402,-1,1
656,0.89988,1.4008,-1,1
657,0.90127,1.3995,-1,1
658,0.90267,1.3982,-1,1
659,0.90405,1.3966,-1,1
660,0.90544,1.3949,-1,1
661,0.90682,1.3937,-1,1
662,0.90822,1.3928,-1,1
663,0.90961,1.3921,-1,1
664,0.91099,1.391,-1,1
665,0.91237,1.389,-1,1
666,0.91374,1.3866,-1,1
667,0.91512,1.3851,-1,1
668,0.91651,1.3847,-1,1
669,0.9179,1.3844,-1,1
670,0.91927,1.3833,-1,1
671,0.92063,1.3809,-1,1
672,0.922,1.3783,-1,1
673,0.92338,1.3767,-1,1
674,0.92476,1.3765,-1,1
675,0.92613,1.3768,-1,1
676,0.9275,1.376,-1,1
677,0.92886,1.3733,-1,1
678,0.93021,1.3701,-1,1
679,0.93158,1.3682,-1,1
680,0.93295,1.368,-1,1
681,0.93432,1.3684,-1,1
682,0.93568,1.3679,-1,1
683,0.93703,1.3657,-1,1
684,0.93838,1.3624,-1,1
685,0.93973,1.3599,-1,1
686,0.94109,1.359,-1,1
687,0.94245,1.3592,-1,1
688,0.9438,1.359,-1,1
689,0.94515,1.3572,-1,1
690,0.94649,1.3545,-1,1
691,0.94783,1.3519,-1,1
692,0.94918,1.3505,-1,1
693,0.95053,1.3498,-1,1
694,0.95187,1.3494,-1,1
695,0.95321,1.3479,-1,1
696,0.95455,1.3459,-1,1
697,0.95588,1.3438,-1,1
698,0.95722,1.3419,-1,1
699,0.95855,1.3405,-1,1
700,0.95988,1.3391,-1,1
701,0.96121,1.3377,-1,1
702,0.96254,1.336,-1,1
703,0.96387,1.3343,-1,1
704,0.96519,1.3325,-1,1
705,0.96652,1.3309,-1,1
706,0.96783,1.3288,-1,1
707,0.96915,1.327,-1,1
708,0.97047,1.3253,-1,1
709,0.97179,1.324,-1,1
710,0.97311,1.3226,-1,1
711,0.97442,1.3207,-1,1
712,0.97572,1.3181,-1,1
713,0.97703,1.3158,-1,1
714,0.97833,1.3138,-1,1
715,0.97964,1.3121,-1,1
716,0.98094,1.3105,-1,1
717,0.98224,1.3085,-1,1
718,0.98353,1.3061,-1,1
719,0.98482,1.3033,-1,1
720,0.98612,1.3012,-1,1
721,0.98741,1.2991,-1,1
722,0.98869,1.2973,-1,1
723,0.98998,1.2951,-1,1
724,0.99126,1.2926,-1,1
725,0.99254,1.2901,-1,1
726,0.99382,1.2879,-1,1
727,0.99509,1.2855,-1,1
728,0.99637,1.2834,-1,1
729,0.99764,1.2812,-1,1
730,0.9989,1.2786,-1,1
731,1.00017,1.2762,-1,1
732,1.00143,1.2739,-1,1
733,1.0027,1.2717,-1,1
734,1.00395,1.2692,-1,1
735,1.00521,1.2666,-1,1
736,1.00646,1.264,-1,1
737,1.00771,1.2616,-1,1
738,1.00896,1.2591,-1,1
739,1.0102,1.2565,-1,1
740,1.01144,1.2539,-1,1
741,1.01268,1.2513,-1,1
742,1.01392,1.2486,-1,1
743,1.01515,1.2459,-1,1
744,1.01639,1.2435,-1,1
745,1.01761,1.241,-1,1
746,1.01884,1.2381,-1,1
747,1.02006,1.2352,-1,1
748,1.02128,1.2323,-1,1
749,1.0225,1.2299,-1,1
750,1.02372,1.2274,-1,1
751,1.02493,1.2248,-1,1
752,1.02614,1.2219,-1,1
753,1.02734,1.2186,-1,1
754,1.02854,1.2154,-1,1
755,1.02974,1.2127,-1,1
756,1.03094,1.2101,-1,1
757,1.03214,1.2076,-1,1
758,1.03333,1.2049,-1,1
759,1.03451,1.2015,-1,1
760,1.03569,1.1978,-1,1
761,1.03687,1.1945,-1,1
762,1.03806,1.1918,-1,1
763,1.03923,1.1896,-1,1
764,1.04041,1.1873,-1,1
765,1.04158,1.184,-1,1
766,1.04274,1.1805,-1,1
767,1.0439,1.1766,-1,1
768,1.04506,1.1733,-1,1
769,1.04622,1.1706,-1,1
770,1.04738,1.1683,-1,1
771,1.04853,1.1656,-1,1
772,1.04967,1.1619,-1,1
773,1.05081,1.1577,-1,1
774,1.05195,1.1536,-1,1
775,1.05308,1.1504,-1,1
776,1.05422,1.148,-1,1
777,1.05536,1.1456,-1,1
778,1.05648,1.1424,-1,1
779,1.0576,1.1386,-1,1
780,1.05872,1.1345,-1,1
781,1.05983,1.1306,-1,1
782,1.06095,1.1278,-1,1
783,1.06207,1.1256,-1,1
784,1.06318,1.1231,-1,1
785,1.06428,1.1198,-1,1
786,1.06538,1.1156,-1,1
787,1.06647,1.1114,-1,1
788,1.06756,1.1079,-1,1
789,1.06865,1.105,-1,1
790,1.06975,1.1026,-1,1
791,1.07083,1.0999,-1,1
792,1.07191,1.0963,-1,1
793,1.07299,1.092,-1,1
794,1.07405,1.0876,-1,1
795,1.07512,1.0841,-1,1
796,1.07619,1.0813,-1,1
797,1.07726,1.079,-1,1
798,1.07832,1.0762,-1,1
799,1.07938,1.0726,-1,1
800,1.08043,1.0684,-1,1
801,1.08147,1.0642,-1,1
802,1.08252,1.0606,-1,1
803,1.08356,1.0576,-1,1
804,1.0846,1.0551,-1,1
805,1.08564,1.0522,-1,1
806,1.08668,1.0489,-1,1
807,1.08771,1.0448,-1,1
808,1.08873,1.0405,-1,1
809,1.08975,1.0367,-1,1
810,1.09076,1.0335,-1,1
811,1.09178,1.0305,-1,1
812,1.09279,1.0276,-1,1
813,1.09381,1.0245,-1,1
814,1.09481,1.0209,-1,1
815,1.09582,1.0171,-1,1
816,1.09681,1.0132,-1,1
817,1.0978,1.0095,-1,1
818,1.09879,1.0064,-1,1
819,1.09978,1.0034,-1,1
820,1.10077,1.0006,-1,1
821,1.10176,0.9977,-1,1
822,1.10274,0.9943,-1,1
823,1.10371,0.9907,-1,1
824,1.10468,0.9871,-1,1
825,1.10565,0.9836,-1,1
826,1.10661,0.9803,-1,1
827,1.10758,0.9776,-1,1
828,1.10854,0.9749,-1,1
829,1.1095,0.9724,-1,1
830,1.11046,0.9691,-1,1
831,1.11141,0.9654,-1,1
832,1.11235,0.9618,-1,1
833,1.1133,0.9586,-1,1
834,1.11424,0.956,-1,1
835,1.11518,0.9532,-1,1
836,1.11612,0.9508,-1,1
