cnt,pos,speed,Dir,Force,
1,0,1.1704,-1,1
2,0.0011301,1.1641,-1,1
3,0.00226021,1.1578,-1,1
4,0.00339031,1.1528,-1,1
5,0.00452042,1.1488,-1,1
6,0.00565004,1.1448,-1,1
7,0.00677013,1.1401,-1,1
8,0.0078702,1.1342,-1,1
9,0.00898027,1.1281,-1,1
10,0.0100703,1.1226,-1,1
11,0.0111704,1.1178,-1,1
12,0.01227,1.1138,-1,1
13,0.01336,1.1098,-1,1
14,0.0144401,1.1048,-1,1
15,0.0155101,1.0989,-1,1
16,0.0165801,1.0929,-1,1
17,0.0176401,1.0876,-1,1
18,0.0187101,1.083,-1,1
19,0.0197601,1.0786,-1,1
20,0.0208101,1.0737,-1,1
21,0.0218601,1.0687,-1,1
22,0.0229001,1.0635,-1,1
23,0.0239401,1.0579,-1,1
24,0.02496,1.0521,-1,1
25,0.02701,1.0467,-1,1
26,0.0280204,1.0417,-1,1
27,0.0290403,1.0365,-1,1
28,0.0300403,1.0311,-1,1
29,0.0310402,1.0254,-1,1
30,0.0320401,1.0198,-1,1
31,0.03302,1.0137,-1,1
32,0.0340104,1.0078,-1,1
33,0.0349903,1.0022,-1,1
34,0.0359602,0.9975,-1,1
35,0.0369401,0.9924,-1,1
36,0.0379,0.9865,-1,1
37,0.0398102,0.9803,-1,1
38,0.0398102,0.9743,-1,1
39,0.04076,0.969,-1,1
40,0.0417104,0.9641,-1,1
41,0.0426502,0.9595,-1,1
42,0.0445104,0.9543,-1,1
43,0.0454402,0.949,-1,1
44,0.04636,0.9433,-1,1
45,0.0472703,0.938,-1,1
46,0.0481801,0.9331,-1,1
47,0.0490904,0.9285,-1,1
48,0.0499902,0.9239,-1,1
49,0.0508804,0.9188,-1,1
50,0.0517802,0.9135,-1,1
51,0.05266,0.9083,-1,1
52,0.0535502,0.9036,-1,1
53,0.0553002,0.8984,-1,1
54,0.05617,0.8931,-1,1
55,0.0570302,0.8877,-1,1
56,0.0578804,0.8824,-1,1
57,0.0587401,0.8774,-1,1
58,0.0595903,0.8726,-1,1
59,0.0604401,0.868,-1,1
60,0.0612803,0.8631,-1,1
61,0.0621204,0.8581,-1,1
62,0.0629601,0.8529,-1,1
63,0.0637803,0.8482,-1,1
64,0.0646,0.8437,-1,1
65,0.0654202,0.8396,-1,1
66,0.0662403,0.8356,-1,1
67,0.06705,0.8314,-1,1
68,0.0678601,0.8269,-1,1
69,0.0686603,0.8225,-1,1
70,0.0694704,0.8183,-1,1
71,0.07026,0.8141,-1,1
72,0.0710502,0.81,-1,1
73,0.0718403,0.8058,-1,1
74,0.0726204,0.8017,-1,1
75,0.0734,0.7975,-1,1
76,0.0741701,0.7936,-1,1
77,0.0749502,0.7897,-1,1
78,0.0757203,0.786,-1,1
79,0.0764804,0.782,-1,1
80,0.07725,0.7779,-1,1
81,0.0780001,0.7739,-1,1
82,0.0787601,0.7703,-1,1
83,0.0795102,0.767,-1,1
84,0.0802503,0.7635,-1,1
85,0.0810003,0.7598,-1,1
86,0.0817304,0.7558,-1,1
87,0.0824704,0.7521,-1,1
88,0.0832,0.7485,-1,1
89,0.08394,0.7453,-1,1
90,0.0846701,0.7422,-1,1
91,0.0853901,0.739,-1,1
92,0.0861101,0.7353,-1,1
93,0.0868201,0.7316,-1,1
94,0.0875401,0.7283,-1,1
95,0.0882502,0.7253,-1,1
96,0.0889602,0.7224,-1,1
97,0.0896602,0.7192,-1,1
98,0.0903602,0.7157,-1,1
99,0.0910602,0.7121,-1,1
100,0.0917602,0.7088,-1,1
101,0.0924501,0.7061,-1,1
102,0.0931501,0.7036,-1,1
103,0.0938401,0.7012,-1,1
104,0.0945201,0.6981,-1,1
105,0.0952001,0.6949,-1,1
106,0.09588,0.692,-1,1
107,0.09655,0.6893,-1,1
108,0.0972304,0.687,-1,1
109,0.0979104,0.6847,-1,1
110,0.0985804,0.6822,-1,1
111,0.0992503,0.6792,-1,1
112,0.0999103,0.6767,-1,1
113,0.10058,0.6742,-1,1
114,0.10124,0.6724,-1,1
115,0.1019,0.6706,-1,1
116,0.10256,0.6683,-1,1
117,0.10322,0.6661,-1,1
118,0.10387,0.6636,-1,1
119,0.10452,0.6612,-1,1
120,0.10517,0.659,-1,1
121,0.10582,0.6571,-1,1
122,0.10647,0.6551,-1,1
123,0.10711,0.6534,-1,1
124,0.10776,0.6516,-1,1
125,0.1084,0.6497,-1,1
126,0.10904,0.648,-1,1
127,0.10968,0.6462,-1,1
128,0.11031,0.6447,-1,1
129,0.11095,0.6432,-1,1
130,0.11159,0.6417,-1,1
131,0.11222,0.6401,-1,1
132,0.11285,0.6385,-1,1
133,0.11348,0.6368,-1,1
134,0.11411,0.6352,-1,1
135,0.11474,0.6342,-1,1
136,0.11538,0.6335,-1,1
137,0.116,0.6327,-1,1
138,0.11663,0.6314,-1,1
139,0.11725,0.6302,-1,1
140,0.11788,0.6291,-1,1
141,0.1185,0.6282,-1,1
142,0.11912,0.6272,-1,1
143,0.11975,0.6264,-1,1
144,0.12037,0.6255,-1,1
145,0.12099,0.6244,-1,1
146,0.12161,0.6232,-1,1
147,0.12223,0.6226,-1,1
148,0.12285,0.6223,-1,1
149,0.12347,0.6219,-1,1
150,0.12409,0.6211,-1,1
151,0.1247,0.6204,-1,1
152,0.12532,0.6199,-1,1
153,0.12594,0.6191,-1,1
154,0.12655,0.6184,-1,1
155,0.12716,0.6176,-1,1
156,0.12777,0.6167,-1,1
157,0.12839,0.6156,-1,1
158,0.12961,0.6147,-1,1
159,0.13022,0.6141,-1,1
160,0.13084,0.6138,-1,1
161,0.13145,0.6131,-1,1
162,0.13205,0.612,-1,1
163,0.13266,0.6111,-1,1
164,0.13326,0.6103,-1,1
165,0.13387,0.6097,-1,1
166,0.13448,0.6092,-1,1
167,0.13569,0.6083,-1,1
168,0.13629,0.6074,-1,1
169,0.13689,0.6064,-1,1
170,0.1375,0.6057,-1,1
171,0.1381,0.6053,-1,1
172,0.13871,0.6053,-1,1
173,0.13932,0.6053,-1,1
174,0.13992,0.605,-1,1
175,0.14052,0.6046,-1,1
176,0.14113,0.6043,-1,1
177,0.14173,0.6042,-1,1
178,0.14233,0.6042,-1,1
179,0.14293,0.6041,-1,1
180,0.14354,0.6038,-1,1
181,0.14414,0.6037,-1,1
182,0.14475,0.6036,-1,1
183,0.14536,0.6038,-1,1
184,0.14596,0.6045,-1,1
185,0.14658,0.6052,-1,1
186,0.14719,0.6059,-1,1
187,0.14779,0.6066,-1,1
188,0.1484,0.6073,-1,1
189,0.14901,0.6081,-1,1
190,0.14963,0.6089,-1,1
191,0.15024,0.6097,-1,1
192,0.15085,0.6105,-1,1
193,0.15147,0.6111,-1,1
194,0.15208,0.6116,-1,1
195,0.1527,0.6126,-1,1
196,0.15332,0.6139,-1,1
197,0.15395,0.6156,-1,1
198,0.15458,0.6173,-1,1
199,0.1552,0.6187,-1,1
200,0.15583,0.62,-1,1
201,0.15645,0.6213,-1,1
202,0.15708,0.6229,-1,1
203,0.15771,0.6246,-1,1
204,0.15835,0.6266,-1,1
205,0.15898,0.6282,-1,1
206,0.15962,0.6296,-1,1
207,0.16026,0.6307,-1,1
208,0.1609,0.6322,-1,1
209,0.16155,0.6344,-1,1
210,0.1622,0.6369,-1,1
211,0.16285,0.6396,-1,1
212,0.1635,0.642,-1,1
213,0.16416,0.6442,-1,1
214,0.16481,0.6462,-1,1
215,0.16547,0.6482,-1,1
216,0.16613,0.6505,-1,1
217,0.16679,0.6533,-1,1
218,0.16746,0.6558,-1,1
219,0.16813,0.6584,-1,1
220,0.16881,0.6609,-1,1
221,0.16948,0.6633,-1,1
222,0.17016,0.6659,-1,1
223,0.17084,0.6688,-1,1
224,0.17153,0.6717,-1,1
225,0.17221,0.6749,-1,1
226,0.17291,0.678,-1,1
227,0.1736,0.681,-1,1
228,0.1743,0.6839,-1,1
229,0.17499,0.6864,-1,1
230,0.1757,0.6891,-1,1
231,0.1764,0.6921,-1,1
232,0.17712,0.6955,-1,1
233,0.17783,0.6991,-1,1
234,0.17855,0.7026,-1,1
235,0.17927,0.7058,-1,1
236,0.17999,0.7087,-1,1
237,0.18071,0.7114,-1,1
238,0.18144,0.7148,-1,1
239,0.18218,0.7185,-1,1
240,0.18292,0.7224,-1,1
241,0.18366,0.7259,-1,1
242,0.18441,0.7291,-1,1
243,0.18515,0.7321,-1,1
244,0.18591,0.7355,-1,1
245,0.18667,0.7394,-1,1
246,0.18743,0.7436,-1,1
247,0.18819,0.7478,-1,1
248,0.18896,0.7512,-1,1
249,0.18972,0.7544,-1,1
250,0.1905,0.7577,-1,1
251,0.19128,0.7615,-1,1
252,0.19206,0.7658,-1,1
253,0.19286,0.7701,-1,1
254,0.19365,0.7742,-1,1
255,0.19444,0.7776,-1,1
256,0.19524,0.7811,-1,1
257,0.19604,0.7849,-1,1
258,0.19685,0.7893,-1,1
259,0.19766,0.7938,-1,1
260,0.19848,0.798,-1,1
261,0.19929,0.8017,-1,1
262,0.20012,0.8053,-1,1
263,0.20095,0.8092,-1,1
264,0.20179,0.8135,-1,1
265,0.20263,0.8182,-1,1
266,0.20347,0.8227,-1,1
267,0.20431,0.8267,-1,1
268,0.20516,0.8305,-1,1
269,0.20601,0.8344,-1,1
270,0.20686,0.8387,-1,1
271,0.20773,0.8435,-1,1
272,0.2086,0.848,-1,1
273,0.20947,0.8522,-1,1
274,0.21034,0.8559,-1,1
275,0.21122,0.8599,-1,1
276,0.21211,0.8639,-1,1
277,0.21299,0.8683,-1,1
278,0.21388,0.8727,-1,1
279,0.21478,0.877,-1,1
280,0.21568,0.8812,-1,1
281,0.21658,0.8852,-1,1
282,0.21749,0.8893,-1,1
283,0.2184,0.8934,-1,1
284,0.21932,0.8973,-1,1
285,0.22024,0.9013,-1,1
286,0.22116,0.9054,-1,1
287,0.22209,0.9092,-1,1
288,0.22301,0.9131,-1,1
289,0.22395,0.9171,-1,1
290,0.22489,0.921,-1,1
291,0.22584,0.9252,-1,1
292,0.22678,0.929,-1,1
293,0.22773,0.9326,-1,1
294,0.22868,0.9363,-1,1
295,0.22964,0.9398,-1,1
296,0.2306,0.9435,-1,1
297,0.23156,0.9477,-1,1
298,0.23351,0.9521,-1,1
299,0.23448,0.9563,-1,1
300,0.23546,0.9602,-1,1
301,0.23644,0.9635,-1,1
302,0.23742,0.9671,-1,1
303,0.23841,0.971,-1,1
304,0.2394,0.9753,-1,1
305,0.2404,0.9795,-1,1
306,0.2414,0.9834,-1,1
307,0.2424,0.987,-1,1
308,0.24341,0.99,-1,1
309,0.24442,0.9932,-1,1
310,0.24542,0.9964,-1,1
311,0.24644,0.9996,-1,1
312,0.24745,1.0029,-1,1
313,0.24848,1.0064,-1,1
314,0.2495,1.0096,-1,1
315,0.25053,1.0125,-1,1
316,0.25156,1.0154,-1,1
317,0.25258,1.018,-1,1
318,0.25362,1.021,-1,1
319,0.2557,1.0244,-1,1
320,0.25674,1.0279,-1,1
321,0.25779,1.0314,-1,1
322,0.25884,1.0344,-1,1
323,0.25989,1.037,-1,1
324,0.26094,1.0396,-1,1
325,0.26199,1.0424,-1,1
326,0.26305,1.0456,-1,1
327,0.26412,1.0493,-1,1
328,0.26518,1.0524,-1,1
329,0.26625,1.0548,-1,1
330,0.26838,1.0573,-1,1
331,0.26945,1.0597,-1,1
332,0.27053,1.0626,-1,1
333,0.27161,1.0658,-1,1
334,0.27269,1.0689,-1,1
335,0.27377,1.0716,-1,1
336,0.27485,1.0736,-1,1
337,0.27594,1.0755,-1,1
338,0.27703,1.0779,-1,1
339,0.27812,1.0806,-1,1
340,0.27921,1.0831,-1,1
341,0.28031,1.0855,-1,1
342,0.2814,1.0872,-1,1
343,0.2825,1.0886,-1,1
344,0.2836,1.0903,-1,1
345,0.2847,1.0926,-1,1
346,0.28581,1.0954,-1,1
347,0.28692,1.0978,-1,1
348,0.28802,1.0997,-1,1
349,0.28913,1.1011,-1,1
350,0.29024,1.1025,-1,1
351,0.29136,1.1046,-1,1
352,0.29248,1.1073,-1,1
353,0.29359,1.1097,-1,1
354,0.29471,1.1116,-1,1
355,0.29583,1.1129,-1,1
356,0.29695,1.1144,-1,1
357,0.29808,1.1162,-1,1
358,0.29921,1.1182,-1,1
359,0.30033,1.1204,-1,1
360,0.30146,1.1226,-1,1
361,0.3026,1.124,-1,1
362,0.30373,1.1251,-1,1
363,0.30486,1.1265,-1,1
364,0.306,1.1283,-1,1
365,0.30713,1.1303,-1,1
366,0.30827,1.1318,-1,1
367,0.30941,1.1333,-1,1
368,0.31055,1.1348,-1,1
369,0.3117,1.1362,-1,1
370,0.31284,1.1375,-1,1
371,0.31398,1.1387,-1,1
372,0.31513,1.1403,-1,1
373,0.31628,1.1419,-1,1
374,0.31743,1.1435,-1,1
375,0.31858,1.1451,-1,1
376,0.31974,1.1467,-1,1
377,0.32089,1.1476,-1,1
378,0.32204,1.1485,-1,1
379,0.32319,1.1495,-1,1
380,0.32435,1.1508,-1,1
381,0.32551,1.1526,-1,1
382,0.32667,1.1541,-1,1
383,0.32783,1.1552,-1,1
384,0.32899,1.1559,-1,1
385,0.33015,1.1566,-1,1
386,0.33131,1.1572,-1,1
387,0.33247,1.1584,-1,1
388,0.33364,1.1599,-1,1
389,0.33481,1.1615,-1,1
390,0.33598,1.1626,-1,1
391,0.33714,1.1633,-1,1
392,0.33831,1.1634,-1,1
393,0.33947,1.1639,-1,1
394,0.34064,1.1647,-1,1
395,0.34181,1.1658,-1,1
396,0.34298,1.1671,-1,1
397,0.34416,1.1681,-1,1
398,0.34532,1.1684,-1,1
399,0.34649,1.1683,-1,1
400,0.34766,1.1685,-1,1
401,0.34884,1.1691,-1,1
402,0.35001,1.1705,-1,1
403,0.35119,1.1715,-1,1
404,0.35236,1.1721,-1,1
405,0.35353,1.1722,-1,1
406,0.3547,1.1721,-1,1
407,0.35588,1.1724,-1,1
408,0.35706,1.1735,-1,1
409,0.35824,1.1748,-1,1
410,0.35942,1.1757,-1,1
411,0.36059,1.1758,-1,1
412,0.36177,1.1753,-1,1
413,0.36294,1.1753,-1,1
414,0.36412,1.176,-1,1
415,0.3653,1.1771,-1,1
416,0.36648,1.178,-1,1
417,0.36766,1.1783,-1,1
418,0.36884,1.1777,-1,1
419,0.37001,1.1769,-1,1
420,0.37119,1.1767,-1,1
421,0.37237,1.1777,-1,1
422,0.37356,1.179,-1,1
423,0.37474,1.1798,-1,1
424,0.37592,1.1796,-1,1
425,0.37709,1.1787,-1,1
426,0.37826,1.178,-1,1
427,0.37944,1.178,-1,1
428,0.38181,1.1792,-1,1
429,0.383,1.1801,-1,1
430,0.38417,1.1799,-1,1
431,0.38534,1.1788,-1,1
432,0.38652,1.1778,-1,1
433,0.3877,1.1776,-1,1
434,0.38888,1.1782,-1,1
435,0.39007,1.1793,-1,1
436,0.39125,1.18,-1,1
437,0.39242,1.1796,-1,1
438,0.3936,1.1783,-1,1
439,0.39477,1.1778,-1,1
440,0.39596,1.1787,-1,1
441,0.39832,1.1797,-1,1
442,0.39832,1.1801,-1,1
443,0.3995,1.1799,-1,1
444,0.40068,1.1791,-1,1
445,0.40185,1.178,-1,1
446,0.40303,1.1777,-1,1
447,0.40422,1.1786,-1,1
448,0.4054,1.1798,-1,1
449,0.40658,1.1803,-1,1
450,0.40776,1.1795,-1,1
451,0.41011,1.1785,-1,1
452,0.41011,1.1785,-1,1
453,0.41129,1.1789,-1,1
454,0.41247,1.1796,-1,1
455,0.41365,1.1806,-1,1
456,0.41483,1.1807,-1,1
457,0.41601,1.18,-1,1
458,0.41718,1.1788,-1,1
459,0.41836,1.1786,-1,1
460,0.41954,1.1793,-1,1
461,0.4219,1.1801,-1,1
462,0.42308,1.1798,-1,1
463,0.42308,1.1787,-1,1
464,0.42425,1.1776,-1,1
465,0.42542,1.1763,-1,1
466,0.4266,1.1758,-1,1
467,0.42777,1.176,-1,1
468,0.42895,1.1768,-1,1
469,0.43013,1.1767,-1,1
470,0.43131,1.1752,-1,1
471,0.43248,1.174,-1,1
472,0.43482,1.1737,-1,1
473,0.436,1.1744,-1,1
474,0.436,1.1749,-1,1
475,0.43717,1.1751,-1,1
476,0.43835,1.175,-1,1
477,0.43951,1.1739,-1,1
478,0.44068,1.1724,-1,1
479,0.44184,1.171,-1,1
480,0.44302,1.1715,-1,1
481,0.44419,1.1717,-1,1
482,0.44536,1.1709,-1,1
483,0.44769,1.1691,-1,1
484,0.44885,1.1674,-1,1
485,0.44885,1.1664,-1,1
486,0.45001,1.1659,-1,1
487,0.45118,1.166,-1,1
488,0.45235,1.1661,-1,1
489,0.45351,1.1658,-1,1
490,0.45466,1.1642,-1,1
491,0.45582,1.1625,-1,1
492,0.45698,1.1619,-1,1
493,0.45813,1.162,-1,1
494,0.46046,1.1618,-1,1
495,0.46161,1.1609,-1,1
496,0.46276,1.1591,-1,1
497,0.46276,1.1569,-1,1
498,0.46391,1.1548,-1,1
499,0.46506,1.1535,-1,1
500,0.46621,1.1531,-1,1
501,0.46736,1.1532,-1,1
502,0.46852,1.1519,-1,1
503,0.46966,1.1497,-1,1
504,0.4708,1.1478,-1,1
505,0.47308,1.1465,-1,1
506,0.47423,1.146,-1,1
507,0.47423,1.146,-1,1
508,0.47537,1.146,-1,1
509,0.47652,1.1453,-1,1
510,0.47765,1.1437,-1,1
511,0.47879,1.1415,-1,1
512,0.47992,1.1401,-1,1
513,0.48105,1.1395,-1,1
514,0.48219,1.139,-1,1
515,0.48332,1.1382,-1,1
516,0.48558,1.1366,-1,1
517,0.48671,1.1345,-1,1
518,0.48671,1.1324,-1,1
519,0.48783,1.1307,-1,1
520,0.48896,1.1295,-1,1
521,0.49008,1.1288,-1,1
522,0.49121,1.128,-1,1
523,0.49233,1.1267,-1,1
524,0.49345,1.1252,-1,1
525,0.49456,1.1235,-1,1
526,0.49568,1.1219,-1,1
527,0.49791,1.1207,-1,1
528,0.49902,1.1195,-1,1
529,0.50013,1.1183,-1,1
530,0.50013,1.1167,-1,1
531,0.50124,1.115,-1,1
532,0.50235,1.1134,-1,1
533,0.50345,1.1119,-1,1
534,0.50456,1.1105,-1,1
535,0.50566,1.1092,-1,1
536,0.50677,1.1082,-1,1
537,0.50787,1.107,-1,1
538,0.51007,1.1055,-1,1
539,0.51116,1.1037,-1,1
540,0.51226,1.1022,-1,1
541,0.51226,1.1009,-1,1
542,0.51335,1.0997,-1,1
543,0.51445,1.0987,-1,1
544,0.51554,1.0975,-1,1
545,0.51663,1.0963,-1,1
546,0.51772,1.0947,-1,1
547,0.5188,1.0929,-1,1
548,0.51989,1.0917,-1,1
549,0.52206,1.0911,-1,1
550,0.52315,1.0905,-1,1
551,0.52423,1.089,-1,1
552,0.52423,1.0868,-1,1
553,0.5253,1.0846,-1,1
554,0.52638,1.0826,-1,1
555,0.52745,1.0815,-1,1
556,0.52853,1.081,-1,1
557,0.53069,1.0806,-1,1
558,0.53176,1.079,-1,1
559,0.53283,1.0767,-1,1
560,0.53389,1.0744,-1,1
561,0.53496,1.073,-1,1
562,0.53603,1.0729,-1,1
563,0.53711,1.0729,-1,1
564,0.53818,1.0726,-1,1
565,0.53924,1.0708,-1,1
566,0.5403,1.0683,-1,1
567,0.54136,1.0664,-1,1
568,0.54242,1.0656,-1,1
569,0.54455,1.0653,-1,1
570,0.54561,1.065,-1,1
571,0.54667,1.0639,-1,1
572,0.54772,1.0621,-1,1
573,0.54878,1.0601,-1,1
574,0.54983,1.0588,-1,1
575,0.55089,1.0583,-1,1
576,0.55195,1.0584,-1,1
577,0.553,1.0578,-1,1
578,0.55405,1.0569,-1,1
579,0.55511,1.0557,-1,1
580,0.55616,1.0547,-1,1
581,0.55721,1.0542,-1,1
582,0.55826,1.0536,-1,1
583,0.55931,1.0532,-1,1
584,0.56036,1.0527,-1,1
585,0.56141,1.0525,-1,1
586,0.56246,1.0518,-1,1
587,0.56351,1.051,-1,1
588,0.56456,1.0502,-1,1
589,0.5656,1.0496,-1,1
590,0.56665,1.0494,-1,1
591,0.5677,1.0496,-1,1
592,0.56876,1.0499,-1,1
593,0.56981,1.05,-1,1
594,0.57085,1.0495,-1,1
595,0.5719,1.0486,-1,1
596,0.57295,1.0482,-1,1
597,0.574,1.0485,-1,1
598,0.57505,1.0492,-1,1
599,0.57715,1.0498,-1,1
600,0.5782,1.0499,-1,1
601,0.57925,1.0495,-1,1
602,0.5803,1.0493,-1,1
603,0.58135,1.0491,-1,1
604,0.5824,1.0496,-1,1
605,0.58345,1.0502,-1,1
606,0.58451,1.0509,-1,1
607,0.58556,1.0515,-1,1
608,0.58662,1.0518,-1,1
609,0.58767,1.0519,-1,1
610,0.58872,1.0521,-1,1
611,0.58978,1.0526,-1,1
612,0.59189,1.0533,-1,1
613,0.59295,1.0544,-1,1
614,0.59401,1.0555,-1,1
615,0.59507,1.0561,-1,1
616,0.59612,1.0565,-1,1
617,0.59718,1.0566,-1,1
618,0.59824,1.0571,-1,1
619,0.5993,1.0582,-1,1
620,0.60037,1.0596,-1,1
621,0.60144,1.0609,-1,1
622,0.6025,1.0619,-1,1
623,0.60357,1.0625,-1,1
624,0.60464,1.0627,-1,1
625,0.6057,1.0635,-1,1
626,0.60677,1.0647,-1,1
627,0.60785,1.0664,-1,1
628,0.60892,1.0678,-1,1
629,0.60999,1.0689,-1,1
630,0.61107,1.0698,-1,1
631,0.61215,1.0709,-1,1
632,0.61322,1.0719,-1,1
633,0.6143,1.0731,-1,1
634,0.61538,1.0746,-1,1
635,0.61647,1.0765,-1,1
636,0.61755,1.0782,-1,1
637,0.61864,1.0797,-1,1
638,0.61973,1.0811,-1,1
639,0.62082,1.0826,-1,1
640,0.62191,1.084,-1,1
641,0.623,1.0855,-1,1
642,0.6241,1.0874,-1,1
643,0.6252,1.0896,-1,1
644,0.6263,1.0918,-1,1
645,0.6274,1.0936,-1,1
646,0.62851,1.0952,-1,1
647,0.62961,1.0967,-1,1
648,0.63071,1.0986,-1,1
649,0.63183,1.1009,-1,1
650,0.63294,1.1032,-1,1
651,0.63406,1.1055,-1,1
652,0.63517,1.1077,-1,1
653,0.63629,1.1098,-1,1
654,0.63742,1.1119,-1,1
655,0.63854,1.114,-1,1
656,0.63967,1.1163,-1,1
657,0.6408,1.119,-1,1
658,0.64193,1.1216,-1,1
659,0.64307,1.1241,-1,1
660,0.6442,1.1265,-1,1
661,0.64534,1.1286,-1,1
662,0.64648,1.1304,-1,1
663,0.64761,1.1318,-1,1
664,0.64875,1.1335,-1,1
665,0.6499,1.1356,-1,1
666,0.65105,1.138,-1,1
667,0.6522,1.1402,-1,1
668,0.65335,1.142,-1,1
669,0.6545,1.1436,-1,1
670,0.65566,1.1457,-1,1
671,0.65682,1.1483,-1,1
672,0.65799,1.1515,-1,1
673,0.65916,1.1549,-1,1
674,0.66033,1.1582,-1,1
675,0.66151,1.1612,-1,1
676,0.66269,1.164,-1,1
677,0.66387,1.1671,-1,1
678,0.66506,1.1711,-1,1
679,0.66625,1.1751,-1,1
680,0.66745,1.1789,-1,1
681,0.66865,1.1826,-1,1
682,0.66985,1.1862,-1,1
683,0.67106,1.1898,-1,1
684,0.67227,1.1939,-1,1
685,0.67349,1.1982,-1,1
686,0.67471,1.2027,-1,1
687,0.67594,1.2071,-1,1
688,0.67717,1.2108,-1,1
689,0.6784,1.215,-1,1
690,0.67964,1.2192,-1,1
691,0.68089,1.2237,-1,1
692,0.68214,1.2283,-1,1
693,0.6834,1.2336,-1,1
694,0.68465,1.238,-1,1
695,0.68592,1.2424,-1,1
696,0.68718,1.247,-1,1
697,0.68846,1.2517,-1,1
698,0.68974,1.2569,-1,1
699,0.69102,1.2618,-1,1
700,0.69231,1.2672,-1,1
701,0.69361,1.2723,-1,1
702,0.69491,1.2771,-1,1
703,0.69621,1.2816,-1,1
704,0.69752,1.287,-1,1
705,0.69884,1.2928,-1,1
706,0.70016,1.298,-1,1
707,0.70149,1.3031,-1,1
708,0.70282,1.3081,-1,1
709,0.70415,1.3132,-1,1
710,0.7055,1.3184,-1,1
711,0.7082,1.3242,-1,1
712,0.7082,1.3299,-1,1
713,0.70956,1.3357,-1,1
714,0.71092,1.3412,-1,1
715,0.71228,1.3467,-1,1
716,0.71366,1.3521,-1,1
717,0.71643,1.3584,-1,1
718,0.71782,1.3644,-1,1
719,0.71921,1.3701,-1,1
720,0.72061,1.3755,-1,1
721,0.72201,1.3807,-1,1
722,0.72343,1.3868,-1,1
723,0.72485,1.3927,-1,1
724,0.72627,1.3982,-1,1
725,0.7277,1.403,-1,1
726,0.72913,1.4085,-1,1
727,0.73056,1.4136,-1,1
728,0.73201,1.4193,-1,1
729,0.73346,1.4252,-1,1
730,0.73492,1.4309,-1,1
731,0.73637,1.436,-1,1
732,0.73783,1.4405,-1,1
733,0.7393,1.4456,-1,1
734,0.74078,1.4514,-1,1
735,0.74227,1.4574,-1,1
736,0.74375,1.463,-1,1
737,0.74524,1.468,-1,1
738,0.74673,1.4724,-1,1
739,0.74824,1.4775,-1,1
740,0.74974,1.483,-1,1
741,0.75126,1.4885,-1,1
742,0.75277,1.4939,-1,1
743,0.75429,1.4988,-1,1
744,0.75581,1.5032,-1,1
745,0.75734,1.5079,-1,1
746,0.75888,1.5127,-1,1
747,0.76042,1.518,-1,1
748,0.76197,1.5236,-1,1
749,0.76352,1.5284,-1,1
750,0.76507,1.5325,-1,1
751,0.76662,1.5368,-1,1
752,0.76818,1.5416,-1,1
753,0.76975,1.5465,-1,1
754,0.77133,1.5514,-1,1
755,0.7729,1.5561,-1,1
756,0.77448,1.5605,-1,1
757,0.77606,1.5645,-1,1
758,0.77765,1.5685,-1,1
759,0.77925,1.5731,-1,1
760,0.78084,1.5778,-1,1
761,0.78244,1.5823,-1,1
762,0.78404,1.5861,-1,1
763,0.78565,1.5899,-1,1
764,0.78726,1.594,-1,1
765,0.78888,1.598,-1,1
766,0.7905,1.6022,-1,1
767,0.79212,1.6063,-1,1
768,0.79375,1.6101,-1,1
769,0.79538,1.6132,-1,1
770,0.79701,1.6169,-1,1
771,0.79865,1.6208,-1,1
772,0.80029,1.6248,-1,1
773,0.80193,1.6284,-1,1
774,0.80358,1.6314,-1,1
775,0.80523,1.6347,-1,1
776,0.80689,1.6384,-1,1
777,0.80854,1.6419,-1,1
778,0.8102,1.6452,-1,1
779,0.81186,1.6484,-1,1
780,0.81353,1.6515,-1,1
781,0.8152,1.6549,-1,1
782,0.81687,1.6583,-1,1
783,0.81855,1.6612,-1,1
784,0.82022,1.6639,-1,1
785,0.8219,1.6667,-1,1
786,0.82359,1.67,-1,1
787,0.82528,1.6732,-1,1
788,0.82696,1.6759,-1,1
789,0.82864,1.6781,-1,1
790,0.83033,1.6803,-1,1
791,0.83203,1.6828,-1,1
792,0.83373,1.6853,-1,1
793,0.83542,1.6878,-1,1
794,0.83712,1.6901,-1,1
795,0.83882,1.692,-1,1
796,0.84052,1.6935,-1,1
797,0.84223,1.6954,-1,1
798,0.84393,1.6973,-1,1
799,0.84564,1.6995,-1,1
800,0.84734,1.7015,-1,1
801,0.84906,1.703,-1,1
802,0.85077,1.7041,-1,1
803,0.85248,1.7054,-1,1
804,0.85419,1.7072,-1,1
805,0.85591,1.7092,-1,1
806,0.85763,1.7105,-1,1
807,0.85934,1.7113,-1,1
808,0.86106,1.7122,-1,1
809,0.86277,1.7138,-1,1
810,0.8645,1.7152,-1,1
811,0.86622,1.7159,-1,1
812,0.86793,1.7166,-1,1
813,0.86965,1.7174,-1,1
814,0.87137,1.7185,-1,1
815,0.8731,1.7191,-1,1
816,0.87482,1.7194,-1,1
817,0.87654,1.7195,-1,1
818,0.87826,1.7202,-1,1
819,0.87998,1.7206,-1,1
820,0.88171,1.7208,-1,1
821,0.88342,1.7207,-1,1
822,0.88514,1.7206,-1,1
823,0.88686,1.7208,-1,1
824,0.88858,1.7206,-1,1
825,0.8903,1.7202,-1,1
826,0.89202,1.7199,-1,1
827,0.89374,1.72,-1,1
828,0.89546,1.72,-1,1
829,0.89717,1.7194,-1,1
830,0.89889,1.7181,-1,1
831,0.9006,1.7175,-1,1
832,0.90232,1.7176,-1,1
833,0.90403,1.7172,-1,1
834,0.90575,1.7164,-1,1
835,0.90745,1.7149,-1,1
836,0.90916,1.7137,-1,1
837,0.91087,1.713,-1,1
