cnt,pos,speed,Dir,Force,
1,0,1.0135,-1,1
2,0.00100994,1.0123,-1,1
3,0.00201035,1.011,-1,1
4,0.00301027,1.0096,-1,1
5,0.0040102,1.008,-1,1
6,0.00501013,1.0063,-1,1
7,0.00601006,1.0048,-1,1
8,0.00699997,1.003,-1,1
9,0.00799036,1.0012,-1,1
10,0.00898027,0.9994,-1,1
11,0.00997019,0.9973,-1,1
12,0.0109601,0.9952,-1,1
13,0.01193,0.9924,-1,1
14,0.0129099,0.9895,-1,1
15,0.0138803,0.9867,-1,1
16,0.0148501,0.9845,-1,1
17,0.01583,0.9821,-1,1
18,0.0167999,0.9798,-1,1
19,0.0177603,0.9768,-1,1
20,0.0187201,0.9737,-1,1
21,0.01967,0.9704,-1,1
22,0.0206304,0.9672,-1,1
23,0.0215802,0.9644,-1,1
24,0.0225301,0.9618,-1,1
25,0.0234699,0.9591,-1,1
26,0.0244102,0.9559,-1,1
27,0.0253501,0.9528,-1,1
28,0.0262899,0.9493,-1,1
29,0.0272202,0.9461,-1,1
30,0.0281401,0.9426,-1,1
31,0.0290699,0.9393,-1,1
32,0.0299902,0.9358,-1,1
33,0.0309,0.9325,-1,1
34,0.0318203,0.9291,-1,1
35,0.0327301,0.926,-1,1
36,0.0336399,0.9227,-1,1
37,0.0345402,0.919,-1,1
38,0.03544,0.9155,-1,1
39,0.0363402,0.9118,-1,1
40,0.03723,0.9085,-1,1
41,0.0381203,0.9052,-1,1
42,0.03901,0.9022,-1,1
43,0.0398903,0.8992,-1,1
44,0.0407801,0.896,-1,1
45,0.0416503,0.8926,-1,1
46,0.0425301,0.8891,-1,1
47,0.0434003,0.8859,-1,1
48,0.04427,0.883,-1,1
49,0.0451403,0.8802,-1,1
50,0.046,0.8774,-1,1
51,0.0468602,0.8746,-1,1
52,0.04772,0.8718,-1,1
53,0.0485802,0.8689,-1,1
54,0.0494399,0.8663,-1,1
55,0.0502901,0.8634,-1,1
56,0.0511303,0.8607,-1,1
57,0.05198,0.8579,-1,1
58,0.0528202,0.8553,-1,1
59,0.0536699,0.8531,-1,1
60,0.0545101,0.851,-1,1
61,0.0553503,0.8489,-1,1
62,0.05619,0.8467,-1,1
63,0.0570302,0.8446,-1,1
64,0.0578599,0.8424,-1,1
65,0.0586901,0.8406,-1,1
66,0.0595202,0.8388,-1,1
67,0.0603499,0.8372,-1,1
68,0.0611801,0.8355,-1,1
69,0.0620103,0.834,-1,1
70,0.06284,0.8327,-1,1
71,0.0636702,0.8316,-1,1
72,0.0645003,0.8304,-1,1
73,0.06532,0.8293,-1,1
74,0.0661502,0.8283,-1,1
75,0.0669703,0.8277,-1,1
76,0.0686202,0.8272,-1,1
77,0.0694399,0.8267,-1,1
78,0.0702701,0.8265,-1,1
79,0.0711002,0.8265,-1,1
80,0.0719299,0.8266,-1,1
81,0.0727601,0.8266,-1,1
82,0.0735903,0.8267,-1,1
83,0.07441,0.8268,-1,1
84,0.0752401,0.8272,-1,1
85,0.0760703,0.8276,-1,1
86,0.07691,0.8284,-1,1
87,0.0777402,0.8295,-1,1
88,0.0785799,0.8305,-1,1
89,0.0794101,0.8313,-1,1
90,0.0802503,0.8324,-1,1
91,0.0811,0.8338,-1,1
92,0.0819402,0.8355,-1,1
93,0.0827899,0.8371,-1,1
94,0.0836301,0.8385,-1,1
95,0.0844703,0.8407,-1,1
96,0.0861802,0.8431,-1,1
97,0.0870399,0.8456,-1,1
98,0.0879002,0.8482,-1,1
99,0.0887699,0.8508,-1,1
100,0.0896301,0.8533,-1,1
101,0.0905004,0.8559,-1,1
102,0.0913701,0.8586,-1,1
103,0.0922503,0.8616,-1,1
104,0.0931201,0.865,-1,1
105,0.0940003,0.8679,-1,1
106,0.0957899,0.8716,-1,1
107,0.0966802,0.8754,-1,1
108,0.09758,0.8791,-1,1
109,0.0984802,0.8829,-1,1
110,0.09939,0.8865,-1,1
111,0.10029,0.8905,-1,1
112,0.10121,0.8949,-1,1
113,0.10213,0.8997,-1,1
114,0.10306,0.9047,-1,1
115,0.10399,0.9098,-1,1
116,0.10493,0.9142,-1,1
117,0.10587,0.9185,-1,1
118,0.10681,0.9228,-1,1
119,0.10775,0.9271,-1,1
120,0.10871,0.9322,-1,1
121,0.10967,0.9374,-1,1
122,0.11064,0.9428,-1,1
123,0.11161,0.948,-1,1
124,0.11259,0.9533,-1,1
125,0.11357,0.9581,-1,1
126,0.11456,0.963,-1,1
127,0.11555,0.9681,-1,1
128,0.11655,0.9735,-1,1
129,0.11755,0.9796,-1,1
130,0.11856,0.9855,-1,1
131,0.11958,0.9915,-1,1
132,0.12061,0.9971,-1,1
133,0.12164,1.0025,-1,1
134,0.12267,1.0074,-1,1
135,0.1237,1.013,-1,1
136,0.12475,1.0189,-1,1
137,0.1258,1.0249,-1,1
138,0.12686,1.0313,-1,1
139,0.12792,1.0374,-1,1
140,0.12899,1.0429,-1,1
141,0.13006,1.0478,-1,1
142,0.13113,1.0522,-1,1
143,0.13221,1.0573,-1,1
144,0.1333,1.0632,-1,1
145,0.13439,1.0692,-1,1
146,0.13549,1.0747,-1,1
147,0.1366,1.0798,-1,1
148,0.1377,1.0841,-1,1
149,0.1388,1.0879,-1,1
150,0.13991,1.092,-1,1
151,0.14103,1.0965,-1,1
152,0.14215,1.1018,-1,1
153,0.14328,1.107,-1,1
154,0.14441,1.1115,-1,1
155,0.14554,1.1149,-1,1
156,0.14667,1.1177,-1,1
157,0.14781,1.1209,-1,1
158,0.14895,1.1247,-1,1
159,0.1501,1.1293,-1,1
160,0.15125,1.1342,-1,1
161,0.15241,1.1383,-1,1
162,0.15356,1.1412,-1,1
163,0.15471,1.143,-1,1
164,0.15586,1.145,-1,1
165,0.15703,1.1485,-1,1
166,0.1582,1.1533,-1,1
167,0.15938,1.1577,-1,1
168,0.16056,1.1611,-1,1
169,0.16173,1.163,-1,1
170,0.16289,1.1638,-1,1
171,0.16407,1.1655,-1,1
172,0.16525,1.1689,-1,1
173,0.16645,1.1738,-1,1
174,0.16765,1.1783,-1,1
175,0.16884,1.1811,-1,1
176,0.17002,1.182,-1,1
177,0.17121,1.1823,-1,1
178,0.1724,1.184,-1,1
179,0.17361,1.1879,-1,1
180,0.17482,1.1928,-1,1
181,0.17604,1.1972,-1,1
182,0.17725,1.1993,-1,1
183,0.17844,1.1996,-1,1
184,0.17964,1.1997,-1,1
185,0.18085,1.2014,-1,1
186,0.18208,1.2053,-1,1
187,0.18331,1.2104,-1,1
188,0.18454,1.2141,-1,1
189,0.18576,1.2156,-1,1
190,0.18697,1.2151,-1,1
191,0.18819,1.2148,-1,1
192,0.18941,1.2166,-1,1
193,0.19065,1.2206,-1,1
194,0.19189,1.2249,-1,1
195,0.19313,1.2273,-1,1
196,0.19435,1.2272,-1,1
197,0.19557,1.2258,-1,1
198,0.19679,1.2252,-1,1
199,0.19803,1.2265,-1,1
200,0.19927,1.2301,-1,1
201,0.20051,1.2329,-1,1
202,0.20175,1.2335,-1,1
203,0.20296,1.2314,-1,1
204,0.20418,1.2292,-1,1
205,0.20542,1.2289,-1,1
206,0.20666,1.2309,-1,1
207,0.2079,1.2335,-1,1
208,0.20914,1.2348,-1,1
209,0.21036,1.2335,-1,1
210,0.21158,1.2305,-1,1
211,0.2128,1.2286,-1,1
212,0.21404,1.2292,-1,1
213,0.21528,1.2318,-1,1
214,0.21652,1.2334,-1,1
215,0.21774,1.2327,-1,1
216,0.21896,1.2299,-1,1
217,0.22017,1.227,-1,1
218,0.2214,1.2265,-1,1
219,0.22264,1.2283,-1,1
220,0.22388,1.2305,-1,1
221,0.22511,1.2305,-1,1
222,0.22632,1.228,-1,1
223,0.22753,1.2245,-1,1
224,0.22875,1.2231,-1,1
225,0.22998,1.2241,-1,1
226,0.23122,1.226,-1,1
227,0.23244,1.2271,-1,1
228,0.23365,1.2253,-1,1
229,0.23486,1.2218,-1,1
230,0.23607,1.2192,-1,1
231,0.2373,1.2194,-1,1
232,0.23853,1.2214,-1,1
233,0.23976,1.2231,-1,1
234,0.24097,1.2224,-1,1
235,0.24218,1.2195,-1,1
236,0.24338,1.2166,-1,1
237,0.24459,1.2153,-1,1
238,0.24581,1.2161,-1,1
239,0.24704,1.2179,-1,1
240,0.24825,1.2182,-1,1
241,0.24946,1.2165,-1,1
242,0.25066,1.2134,-1,1
243,0.25186,1.2108,-1,1
244,0.25307,1.2103,-1,1
245,0.25429,1.2112,-1,1
246,0.2555,1.2119,-1,1
247,0.25671,1.2113,-1,1
248,0.2579,1.2089,-1,1
249,0.2591,1.2057,-1,1
250,0.26029,1.2039,-1,1
251,0.2615,1.2034,-1,1
252,0.2627,1.2036,-1,1
253,0.2639,1.2033,-1,1
254,0.26509,1.2012,-1,1
255,0.26627,1.1984,-1,1
256,0.26746,1.1956,-1,1
257,0.26865,1.1937,-1,1
258,0.26984,1.1932,-1,1
259,0.27103,1.1929,-1,1
260,0.27221,1.1915,-1,1
261,0.27338,1.1885,-1,1
262,0.27455,1.1854,-1,1
263,0.27573,1.183,-1,1
264,0.27691,1.1819,-1,1
265,0.27808,1.181,-1,1
266,0.27926,1.18,-1,1
267,0.28042,1.1777,-1,1
268,0.28158,1.1745,-1,1
269,0.28274,1.1713,-1,1
270,0.2839,1.1691,-1,1
271,0.28506,1.1682,-1,1
272,0.28623,1.1672,-1,1
273,0.28738,1.1654,-1,1
274,0.28853,1.1624,-1,1
275,0.28968,1.1592,-1,1
276,0.29082,1.1565,-1,1
277,0.29197,1.155,-1,1
278,0.29312,1.1539,-1,1
279,0.29427,1.1529,-1,1
280,0.29541,1.1505,-1,1
281,0.29654,1.1474,-1,1
282,0.29767,1.1444,-1,1
283,0.29881,1.1424,-1,1
284,0.29994,1.1413,-1,1
285,0.30108,1.1401,-1,1
286,0.3022,1.1381,-1,1
287,0.30333,1.1353,-1,1
288,0.30444,1.1323,-1,1
289,0.30557,1.1296,-1,1
290,0.30669,1.128,-1,1
291,0.30781,1.1267,-1,1
292,0.30892,1.1249,-1,1
293,0.31003,1.122,-1,1
294,0.31223,1.1187,-1,1
295,0.31334,1.1159,-1,1
296,0.31444,1.1135,-1,1
297,0.31554,1.1112,-1,1
298,0.31663,1.1086,-1,1
299,0.31772,1.1054,-1,1
300,0.31881,1.1019,-1,1
301,0.31989,1.0986,-1,1
302,0.32098,1.0959,-1,1
303,0.32207,1.0937,-1,1
304,0.32315,1.0913,-1,1
305,0.32422,1.0881,-1,1
306,0.32529,1.0848,-1,1
307,0.32636,1.0818,-1,1
308,0.32743,1.0794,-1,1
309,0.3285,1.0776,-1,1
310,0.32956,1.0757,-1,1
311,0.33063,1.0733,-1,1
312,0.33168,1.0704,-1,1
313,0.33274,1.0673,-1,1
314,0.33379,1.0643,-1,1
315,0.33484,1.0621,-1,1
316,0.33589,1.0602,-1,1
317,0.33799,1.0579,-1,1
318,0.33903,1.0552,-1,1
319,0.34007,1.052,-1,1
320,0.3411,1.0489,-1,1
321,0.34214,1.0459,-1,1
322,0.34317,1.0434,-1,1
323,0.3442,1.0412,-1,1
324,0.34523,1.0395,-1,1
325,0.34626,1.0374,-1,1
326,0.34729,1.0349,-1,1
327,0.34831,1.0323,-1,1
328,0.34933,1.0301,-1,1
329,0.35035,1.028,-1,1
330,0.35238,1.0261,-1,1
331,0.35238,1.0242,-1,1
332,0.35441,1.0222,-1,1
333,0.35542,1.0199,-1,1
334,0.35643,1.0173,-1,1
335,0.35743,1.0147,-1,1
336,0.35843,1.0124,-1,1
337,0.35944,1.011,-1,1
338,0.36044,1.0093,-1,1
339,0.36144,1.0078,-1,1
340,0.36244,1.0059,-1,1
341,0.36344,1.0039,-1,1
342,0.36443,1.002,-1,1
343,0.36542,1.0005,-1,1
344,0.36642,0.999,-1,1
345,0.36741,0.9979,-1,1
346,0.3684,0.9968,-1,1
347,0.36939,0.9953,-1,1
348,0.37038,0.9936,-1,1
349,0.37136,0.9918,-1,1
350,0.37234,0.9902,-1,1
351,0.37332,0.9889,-1,1
352,0.37431,0.9878,-1,1
353,0.37529,0.9865,-1,1
354,0.37627,0.9853,-1,1
355,0.37725,0.9837,-1,1
356,0.37822,0.9822,-1,1
357,0.3792,0.9805,-1,1
358,0.38017,0.979,-1,1
359,0.38114,0.9774,-1,1
360,0.38211,0.9761,-1,1
361,0.38308,0.9751,-1,1
362,0.38405,0.9739,-1,1
363,0.38502,0.9727,-1,1
364,0.38598,0.9712,-1,1
365,0.38694,0.9697,-1,1
366,0.3879,0.9681,-1,1
367,0.38886,0.9665,-1,1
368,0.38982,0.9651,-1,1
369,0.39078,0.964,-1,1
370,0.39174,0.9632,-1,1
371,0.39269,0.9618,-1,1
372,0.39365,0.9604,-1,1
373,0.3946,0.9585,-1,1
374,0.39555,0.9569,-1,1
375,0.3965,0.9553,-1,1
376,0.39744,0.954,-1,1
377,0.39839,0.953,-1,1
378,0.39934,0.952,-1,1
379,0.40028,0.9509,-1,1
380,0.40123,0.9492,-1,1
381,0.40217,0.9479,-1,1
382,0.40311,0.9462,-1,1
383,0.40405,0.9451,-1,1
384,0.40499,0.944,-1,1
385,0.40593,0.9429,-1,1
386,0.40687,0.9421,-1,1
387,0.4078,0.9412,-1,1
388,0.40874,0.9402,-1,1
389,0.40968,0.9391,-1,1
390,0.41061,0.938,-1,1
391,0.41154,0.9369,-1,1
392,0.41247,0.9361,-1,1
393,0.4134,0.9351,-1,1
394,0.41433,0.9342,-1,1
395,0.41526,0.9338,-1,1
396,0.4162,0.9331,-1,1
397,0.41713,0.9323,-1,1
398,0.41805,0.9312,-1,1
399,0.41898,0.93,-1,1
400,0.4199,0.9289,-1,1
401,0.42082,0.9276,-1,1
402,0.42174,0.9265,-1,1
403,0.42266,0.9258,-1,1
404,0.42358,0.9248,-1,1
405,0.4245,0.9238,-1,1
406,0.42542,0.9224,-1,1
407,0.42633,0.9206,-1,1
408,0.42725,0.9192,-1,1
409,0.42816,0.9181,-1,1
410,0.42907,0.917,-1,1
411,0.42998,0.9163,-1,1
412,0.4309,0.9157,-1,1
413,0.43181,0.9147,-1,1
414,0.43272,0.9136,-1,1
415,0.43362,0.9121,-1,1
416,0.43453,0.9107,-1,1
417,0.43543,0.9098,-1,1
418,0.43633,0.9089,-1,1
419,0.43724,0.9079,-1,1
420,0.43814,0.9071,-1,1
421,0.43904,0.9058,-1,1
422,0.43994,0.9044,-1,1
423,0.44084,0.903,-1,1
424,0.44173,0.9018,-1,1
425,0.44263,0.9004,-1,1
426,0.44352,0.899,-1,1
427,0.44441,0.8977,-1,1
428,0.4453,0.8965,-1,1
429,0.44619,0.8951,-1,1
430,0.44708,0.8936,-1,1
431,0.44796,0.8923,-1,1
432,0.44885,0.8907,-1,1
433,0.44973,0.8892,-1,1
434,0.45061,0.8875,-1,1
435,0.45149,0.8859,-1,1
436,0.45236,0.8842,-1,1
437,0.45324,0.8827,-1,1
438,0.45411,0.8813,-1,1
439,0.45499,0.8798,-1,1
440,0.45585,0.8779,-1,1
441,0.45672,0.8758,-1,1
442,0.45759,0.8738,-1,1
443,0.45845,0.872,-1,1
444,0.45931,0.8702,-1,1
445,0.46017,0.8684,-1,1
446,0.46103,0.8666,-1,1
447,0.46188,0.8646,-1,1
448,0.46274,0.8625,-1,1
449,0.46359,0.8607,-1,1
450,0.46444,0.8588,-1,1
451,0.46529,0.8567,-1,1
452,0.46613,0.8545,-1,1
453,0.46697,0.8522,-1,1
454,0.46781,0.8503,-1,1
455,0.46866,0.8486,-1,1
456,0.46949,0.8467,-1,1
457,0.47033,0.8446,-1,1
458,0.47116,0.8423,-1,1
459,0.47199,0.8401,-1,1
460,0.47283,0.8382,-1,1
461,0.47365,0.8364,-1,1
462,0.47447,0.8342,-1,1
463,0.47529,0.8319,-1,1
464,0.47611,0.8298,-1,1
465,0.47694,0.8278,-1,1
466,0.47776,0.8261,-1,1
467,0.47857,0.8242,-1,1
468,0.47938,0.822,-1,1
469,0.48019,0.8196,-1,1
470,0.481,0.8173,-1,1
471,0.48181,0.8154,-1,1
472,0.48261,0.8137,-1,1
473,0.48341,0.812,-1,1
474,0.48421,0.8096,-1,1
475,0.485,0.8071,-1,1
476,0.4858,0.8049,-1,1
477,0.4866,0.803,-1,1
478,0.48739,0.8013,-1,1
479,0.48818,0.7992,-1,1
480,0.48897,0.7969,-1,1
481,0.48975,0.7945,-1,1
482,0.49054,0.7925,-1,1
483,0.49132,0.7906,-1,1
484,0.4921,0.7887,-1,1
485,0.49287,0.7867,-1,1
486,0.49365,0.7845,-1,1
487,0.49442,0.7824,-1,1
488,0.4952,0.7803,-1,1
489,0.49597,0.7785,-1,1
490,0.49673,0.7765,-1,1
491,0.49749,0.7744,-1,1
492,0.49826,0.7723,-1,1
493,0.49902,0.7702,-1,1
494,0.49978,0.7683,-1,1
495,0.50053,0.7663,-1,1
496,0.50129,0.764,-1,1
497,0.50204,0.7616,-1,1
498,0.50279,0.7595,-1,1
499,0.50354,0.7573,-1,1
500,0.50428,0.7551,-1,1
501,0.50503,0.7531,-1,1
502,0.50576,0.7508,-1,1
503,0.5065,0.7484,-1,1
504,0.50724,0.746,-1,1
505,0.50797,0.7435,-1,1
506,0.50943,0.7411,-1,1
507,0.51015,0.7386,-1,1
508,0.51088,0.7356,-1,1
509,0.5116,0.7326,-1,1
510,0.51231,0.7297,-1,1
511,0.51302,0.7268,-1,1
512,0.51374,0.7242,-1,1
513,0.51445,0.7213,-1,1
514,0.51515,0.7183,-1,1
515,0.51585,0.7152,-1,1
516,0.51655,0.7122,-1,1
517,0.51725,0.7092,-1,1
518,0.51795,0.7068,-1,1
519,0.51864,0.7043,-1,1
520,0.51933,0.7018,-1,1
521,0.52001,0.6986,-1,1
522,0.52069,0.6952,-1,1
523,0.52137,0.6921,-1,1
524,0.52205,0.6895,-1,1
525,0.52272,0.6869,-1,1
526,0.52339,0.6842,-1,1
527,0.52406,0.6812,-1,1
528,0.52472,0.6777,-1,1
529,0.52539,0.6745,-1,1
530,0.52604,0.6714,-1,1
531,0.5267,0.6687,-1,1
532,0.52735,0.6658,-1,1
533,0.52799,0.6627,-1,1
534,0.52864,0.6592,-1,1
535,0.52928,0.6558,-1,1
536,0.52991,0.6522,-1,1
537,0.53055,0.6489,-1,1
538,0.53118,0.6457,-1,1
539,0.53181,0.6423,-1,1
540,0.53305,0.6386,-1,1
541,0.53367,0.6347,-1,1
542,0.53428,0.6305,-1,1
543,0.53488,0.6263,-1,1
544,0.53548,0.6221,-1,1
545,0.53609,0.6182,-1,1
546,0.53609,0.6144,-1,1
547,0.53728,0.6103,-1,1
548,0.53786,0.6059,-1,1
549,0.53844,0.6014,-1,1
550,0.53902,0.5972,-1,1
551,0.5396,0.5934,-1,1
552,0.54018,0.59,-1,1
553,0.54075,0.5864,-1,1
554,0.54131,0.5826,-1,1
555,0.54187,0.5783,-1,1
556,0.54242,0.5739,-1,1
557,0.54297,0.5697,-1,1
558,0.54352,0.5658,-1,1
559,0.54406,0.562,-1,1
560,0.5446,0.5579,-1,1
561,0.54513,0.5533,-1,1
562,0.54566,0.5487,-1,1
563,0.54619,0.5444,-1,1
564,0.54671,0.5404,-1,1
565,0.54723,0.5367,-1,1
566,0.54775,0.5328,-1,1
567,0.54826,0.5286,-1,1
568,0.54876,0.5241,-1,1
569,0.54975,0.5193,-1,1
570,0.55025,0.5149,-1,1
571,0.55073,0.5105,-1,1
572,0.55122,0.506,-1,1
573,0.5517,0.5013,-1,1
574,0.55217,0.4964,-1,1
575,0.55264,0.4912,-1,1
576,0.55311,0.4863,-1,1
577,0.55357,0.4817,-1,1
578,0.55403,0.4772,-1,1
579,0.55448,0.473,-1,1
580,0.55494,0.4685,-1,1
581,0.55538,0.4642,-1,1
582,0.55627,0.4597,-1,1
583,0.5567,0.4553,-1,1
584,0.55713,0.4509,-1,1
585,0.55756,0.4468,-1,1
586,0.55799,0.4428,-1,1
587,0.55841,0.4385,-1,1
588,0.55882,0.4342,-1,1
589,0.55924,0.43,-1,1
590,0.55965,0.4261,-1,1
591,0.56005,0.4222,-1,1
592,0.56045,0.4186,-1,1
593,0.56085,0.415,-1,1
594,0.56125,0.4114,-1,1
595,0.56164,0.4076,-1,1
596,0.56203,0.4039,-1,1
597,0.56241,0.4005,-1,1
598,0.5628,0.3974,-1,1
599,0.56318,0.3943,-1,1
600,0.56356,0.391,-1,1
601,0.56393,0.3877,-1,1
602,0.5643,0.3844,-1,1
603,0.56467,0.3812,-1,1
604,0.56503,0.3782,-1,1
605,0.56539,0.3755,-1,1
606,0.56575,0.3726,-1,1
607,0.56611,0.3695,-1,1
608,0.56646,0.3664,-1,1
609,0.56682,0.3636,-1,1
610,0.56717,0.3609,-1,1
611,0.56752,0.3586,-1,1
612,0.56786,0.3562,-1,1
613,0.5682,0.3537,-1,1
614,0.56854,0.3513,-1,1
615,0.56888,0.349,-1,1
616,0.56922,0.347,-1,1
617,0.56956,0.3454,-1,1
618,0.5699,0.3435,-1,1
619,0.57023,0.3416,-1,1
620,0.57056,0.3399,-1,1
621,0.5709,0.3382,-1,1
622,0.57123,0.3369,-1,1
623,0.57156,0.3358,-1,1
624,0.57189,0.3346,-1,1
625,0.57222,0.3334,-1,1
626,0.57255,0.3322,-1,1
627,0.57288,0.3313,-1,1
628,0.5732,0.3307,-1,1
629,0.57353,0.3302,-1,1
630,0.57386,0.3297,-1,1
631,0.57419,0.3291,-1,1
632,0.57452,0.3286,-1,1
633,0.57485,0.3285,-1,1
634,0.57518,0.3288,-1,1
635,0.57551,0.3291,-1,1
636,0.57584,0.3293,-1,1
637,0.57617,0.3295,-1,1
638,0.5765,0.33,-1,1
639,0.57684,0.3307,-1,1
640,0.57718,0.3316,-1,1
641,0.57751,0.3325,-1,1
642,0.57785,0.3335,-1,1
643,0.57819,0.3343,-1,1
644,0.57853,0.3354,-1,1
645,0.57888,0.3369,-1,1
646,0.57922,0.3386,-1,1
647,0.57957,0.3402,-1,1
648,0.57992,0.3417,-1,1
649,0.58027,0.3433,-1,1
650,0.58063,0.3452,-1,1
651,0.58099,0.3474,-1,1
652,0.58135,0.3497,-1,1
653,0.58171,0.3522,-1,1
654,0.58207,0.3542,-1,1
655,0.58244,0.3563,-1,1
656,0.58282,0.359,-1,1
657,0.58319,0.3619,-1,1
658,0.58357,0.3651,-1,1
659,0.58395,0.3681,-1,1
660,0.58434,0.3709,-1,1
661,0.58473,0.3742,-1,1
662,0.58512,0.3777,-1,1
663,0.58553,0.3815,-1,1
664,0.58593,0.3855,-1,1
665,0.58634,0.3896,-1,1
666,0.58675,0.3935,-1,1
667,0.58717,0.3977,-1,1
668,0.58759,0.4021,-1,1
669,0.58802,0.407,-1,1
670,0.58846,0.412,-1,1
671,0.5889,0.4169,-1,1
672,0.58934,0.4217,-1,1
673,0.58979,0.4267,-1,1
674,0.59025,0.4321,-1,1
675,0.59071,0.4377,-1,1
676,0.59118,0.4435,-1,1
677,0.59166,0.4495,-1,1
678,0.59215,0.4554,-1,1
679,0.59264,0.4615,-1,1
680,0.59314,0.4679,-1,1
681,0.59364,0.4748,-1,1
682,0.59416,0.482,-1,1
683,0.59468,0.4892,-1,1
684,0.59522,0.4967,-1,1
685,0.59576,0.5044,-1,1
686,0.59631,0.5123,-1,1
687,0.59687,0.5202,-1,1
688,0.59743,0.5287,-1,1
689,0.59801,0.5371,-1,1
690,0.59859,0.5459,-1,1
691,0.59919,0.5548,-1,1
692,0.5998,0.5638,-1,1
693,0.60041,0.573,-1,1
694,0.60104,0.5824,-1,1
695,0.60167,0.5918,-1,1
696,0.60232,0.6017,-1,1
697,0.60298,0.612,-1,1
698,0.60365,0.6221,-1,1
699,0.60434,0.6326,-1,1
700,0.60503,0.6431,-1,1
701,0.60573,0.6537,-1,1
702,0.60644,0.6646,-1,1
703,0.60717,0.6758,-1,1
704,0.60791,0.687,-1,1
705,0.60866,0.6982,-1,1
706,0.60942,0.7093,-1,1
707,0.61019,0.7205,-1,1
708,0.61098,0.7322,-1,1
709,0.61177,0.7437,-1,1
710,0.61258,0.7554,-1,1
711,0.6134,0.767,-1,1
712,0.61423,0.7787,-1,1
713,0.61507,0.7903,-1,1
714,0.61593,0.802,-1,1
715,0.61679,0.8137,-1,1
716,0.61767,0.8254,-1,1
717,0.61856,0.8372,-1,1
718,0.61946,0.8489,-1,1
719,0.62038,0.8606,-1,1
720,0.6213,0.872,-1,1
721,0.62224,0.8838,-1,1
722,0.62319,0.8954,-1,1
723,0.62414,0.907,-1,1
724,0.62511,0.9181,-1,1
725,0.62609,0.9295,-1,1
726,0.62708,0.9408,-1,1
727,0.62808,0.9521,-1,1
728,0.62909,0.9628,-1,1
729,0.63011,0.9732,-1,1
730,0.63113,0.9836,-1,1
731,0.63217,0.9934,-1,1
732,0.63322,1.0031,-1,1
733,0.63427,1.0123,-1,1
734,0.63533,1.0217,-1,1
735,0.6364,1.0309,-1,1
736,0.63748,1.0399,-1,1
737,0.63856,1.0483,-1,1
738,0.63966,1.0569,-1,1
739,0.64076,1.0652,-1,1
740,0.64187,1.0735,-1,1
741,0.64299,1.0817,-1,1
742,0.64411,1.0898,-1,1
743,0.64525,1.0978,-1,1
744,0.64638,1.1058,-1,1
745,0.64753,1.1136,-1,1
746,0.64869,1.121,-1,1
747,0.64985,1.1282,-1,1
748,0.65101,1.1353,-1,1
749,0.65218,1.1424,-1,1
750,0.65336,1.1493,-1,1
751,0.65455,1.156,-1,1
752,0.65574,1.1628,-1,1
753,0.65694,1.1696,-1,1
754,0.65814,1.1758,-1,1
755,0.65935,1.1814,-1,1
756,0.66056,1.187,-1,1
757,0.66177,1.193,-1,1
758,0.663,1.1987,-1,1
759,0.66423,1.2045,-1,1
760,0.66546,1.2099,-1,1
761,0.6667,1.2152,-1,1
762,0.66794,1.2199,-1,1
763,0.66918,1.2246,-1,1
764,0.67043,1.2294,-1,1
765,0.67169,1.2347,-1,1
766,0.67295,1.2396,-1,1
767,0.67421,1.2439,-1,1
768,0.67548,1.248,-1,1
769,0.67675,1.2522,-1,1
770,0.67802,1.2565,-1,1
771,0.6793,1.2605,-1,1
772,0.68059,1.2648,-1,1
773,0.68187,1.2686,-1,1
774,0.68316,1.2721,-1,1
775,0.68445,1.2755,-1,1
776,0.68574,1.279,-1,1
777,0.68704,1.2824,-1,1
778,0.68834,1.286,-1,1
779,0.68964,1.2892,-1,1
780,0.69095,1.2921,-1,1
781,0.69225,1.2949,-1,1
782,0.69356,1.2975,-1,1
783,0.69488,1.3004,-1,1
784,0.69619,1.3034,-1,1
785,0.69751,1.3059,-1,1
786,0.69883,1.3083,-1,1
787,0.70014,1.3104,-1,1
788,0.70146,1.3123,-1,1
789,0.70279,1.3143,-1,1
790,0.70411,1.3164,-1,1
791,0.70544,1.3184,-1,1
792,0.70676,1.3199,-1,1
793,0.70809,1.3211,-1,1
794,0.70941,1.3224,-1,1
795,0.71208,1.3239,-1,1
796,0.71341,1.3251,-1,1
797,0.71473,1.3261,-1,1
798,0.71606,1.3269,-1,1
799,0.71739,1.3275,-1,1
800,0.71872,1.3282,-1,1
801,0.72005,1.3288,-1,1
802,0.72138,1.3292,-1,1
803,0.72271,1.3295,-1,1
804,0.72404,1.3294,-1,1
805,0.72537,1.3291,-1,1
806,0.7267,1.3291,-1,1
807,0.72803,1.3289,-1,1
808,0.73067,1.3284,-1,1
809,0.732,1.3278,-1,1
810,0.732,1.3267,-1,1
811,0.73332,1.3256,-1,1
812,0.73464,1.3249,-1,1
813,0.73596,1.3243,-1,1
814,0.73728,1.3237,-1,1
815,0.7386,1.3224,-1,1
816,0.74123,1.3206,-1,1
817,0.74254,1.3193,-1,1
818,0.74385,1.3183,-1,1
819,0.74517,1.3173,-1,1
820,0.74647,1.3159,-1,1
821,0.74778,1.3142,-1,1
822,0.74908,1.3122,-1,1
823,0.75038,1.3101,-1,1
824,0.75168,1.3082,-1,1
825,0.75298,1.3068,-1,1
826,0.75428,1.3054,-1,1
827,0.75686,1.3031,-1,1
828,0.75815,1.3005,-1,1
829,0.75944,1.2979,-1,1
830,0.76073,1.2961,-1,1
831,0.76201,1.2942,-1,1
832,0.76329,1.2918,-1,1
833,0.76457,1.2893,-1,1
834,0.76584,1.2865,-1,1
835,0.76711,1.2836,-1,1
