cnt,pos,speed,Dir,Force,
1,0,1.1657,-1,1
2,0.00115013,1.1624,-1,1
3,0.00229025,1.1579,-1,1
4,0.00341988,1.1527,-1,1
5,0.00454998,1.1483,-1,1
6,0.00568008,1.1451,-1,1
7,0.00681019,1.1429,-1,1
8,0.00793982,1.1406,-1,1
9,0.00905991,1.137,-1,1
10,0.01017,1.1322,-1,1
11,0.0112801,1.1272,-1,1
12,0.0123801,1.1233,-1,1
13,0.0134902,1.1209,-1,1
14,0.0146003,1.1182,-1,1
15,0.0167999,1.1144,-1,1
16,0.01789,1.1099,-1,1
17,0.01897,1.1051,-1,1
18,0.0200601,1.1009,-1,1
19,0.0211501,1.0977,-1,1
20,0.0222301,1.0952,-1,1
21,0.0233102,1.0926,-1,1
22,0.0243902,1.0893,-1,1
23,0.0254502,1.0846,-1,1
24,0.0275903,1.081,-1,1
25,0.0286503,1.0782,-1,1
26,0.0297098,1.0757,-1,1
27,0.0297098,1.0731,-1,1
28,0.0307798,1.0705,-1,1
29,0.0318298,1.0674,-1,1
30,0.0328898,1.0644,-1,1
31,0.0339398,1.0615,-1,1
32,0.0349898,1.059,-1,1
33,0.0360298,1.0573,-1,1
34,0.0370803,1.0557,-1,1
35,0.0391803,1.054,-1,1
36,0.0402203,1.052,-1,1
37,0.0402203,1.0502,-1,1
38,0.0412602,1.0484,-1,1
39,0.0423002,1.0469,-1,1
40,0.0433402,1.0453,-1,1
41,0.0443802,1.0441,-1,1
42,0.0454202,1.0432,-1,1
43,0.0464602,1.0424,-1,1
44,0.0475001,1.0414,-1,1
45,0.0485401,1.0399,-1,1
46,0.0506001,1.0388,-1,1
47,0.05164,1.0381,-1,1
48,0.05164,1.0374,-1,1
49,0.05267,1.0371,-1,1
50,0.05371,1.037,-1,1
51,0.05475,1.0367,-1,1
52,0.0557799,1.0362,-1,1
53,0.0568099,1.0352,-1,1
54,0.0578399,1.0343,-1,1
55,0.0599098,1.0344,-1,1
56,0.0609403,1.0347,-1,1
57,0.0619802,1.0347,-1,1
58,0.0630102,1.0343,-1,1
59,0.0640402,1.0335,-1,1
60,0.0640402,1.0325,-1,1
61,0.0650702,1.0317,-1,1
62,0.0660901,1.0311,-1,1
63,0.0671201,1.031,-1,1
64,0.06815,1.0309,-1,1
65,0.06918,1.0305,-1,1
66,0.07021,1.0301,-1,1
67,0.0722699,1.0295,-1,1
68,0.0732999,1.0293,-1,1
69,0.0743299,1.0291,-1,1
70,0.0743299,1.029,-1,1
71,0.0753598,1.0289,-1,1
72,0.0763803,1.0286,-1,1
73,0.0774102,1.0285,-1,1
74,0.0784502,1.0289,-1,1
75,0.0794802,1.0294,-1,1
76,0.0805101,1.0294,-1,1
77,0.0815401,1.0293,-1,1
78,0.0825701,1.0293,-1,1
79,0.08463,1.0298,-1,1
80,0.08567,1.0307,-1,1
81,0.08567,1.0318,-1,1
82,0.08671,1.0329,-1,1
83,0.0877399,1.0338,-1,1
84,0.0887799,1.034,-1,1
85,0.0898099,1.0339,-1,1
86,0.0908499,1.0343,-1,1
87,0.0918899,1.0358,-1,1
88,0.0929298,1.0374,-1,1
89,0.0950198,1.0387,-1,1
90,0.0960603,1.0396,-1,1
91,0.0971103,1.04,-1,1
92,0.0971103,1.0407,-1,1
93,0.0981503,1.0414,-1,1
94,0.0992002,1.0425,-1,1
95,0.10025,1.0441,-1,1
96,0.1013,1.0459,-1,1
97,0.10235,1.0469,-1,1
98,0.10341,1.0477,-1,1
99,0.10446,1.0481,-1,1
100,0.10551,1.0487,-1,1
101,0.10656,1.0502,-1,1
102,0.10762,1.0518,-1,1
103,0.10868,1.0535,-1,1
104,0.10974,1.0549,-1,1
105,0.11186,1.0559,-1,1
106,0.11186,1.0567,-1,1
107,0.11398,1.0574,-1,1
108,0.11504,1.0584,-1,1
109,0.11611,1.06,-1,1
110,0.11718,1.0618,-1,1
111,0.11825,1.0632,-1,1
112,0.11932,1.0639,-1,1
113,0.12038,1.0644,-1,1
114,0.12145,1.0648,-1,1
115,0.12251,1.0659,-1,1
116,0.12358,1.0669,-1,1
117,0.12466,1.0686,-1,1
118,0.12682,1.07,-1,1
119,0.12789,1.0706,-1,1
120,0.12895,1.0705,-1,1
121,0.13002,1.0704,-1,1
122,0.1311,1.0711,-1,1
123,0.13218,1.0728,-1,1
124,0.13327,1.0748,-1,1
125,0.13435,1.0759,-1,1
126,0.13542,1.0764,-1,1
127,0.1365,1.0759,-1,1
128,0.13757,1.0754,-1,1
129,0.13864,1.0757,-1,1
130,0.13973,1.0772,-1,1
131,0.14082,1.0792,-1,1
132,0.14298,1.0798,-1,1
133,0.14406,1.0788,-1,1
134,0.14513,1.0774,-1,1
135,0.1462,1.0768,-1,1
136,0.14729,1.0777,-1,1
137,0.14838,1.0795,-1,1
138,0.14947,1.0814,-1,1
139,0.15055,1.0823,-1,1
140,0.15163,1.0815,-1,1
141,0.1527,1.0796,-1,1
142,0.15378,1.0792,-1,1
143,0.15486,1.0813,-1,1
144,0.15596,1.0836,-1,1
145,0.15705,1.0854,-1,1
146,0.15813,1.0854,-1,1
147,0.15921,1.0841,-1,1
148,0.16029,1.0824,-1,1
149,0.16136,1.0818,-1,1
150,0.16245,1.0831,-1,1
151,0.16355,1.0858,-1,1
152,0.16465,1.088,-1,1
153,0.16574,1.0868,-1,1
154,0.16682,1.085,-1,1
155,0.1679,1.0832,-1,1
156,0.16898,1.0827,-1,1
157,0.17007,1.0839,-1,1
158,0.17116,1.0863,-1,1
159,0.17227,1.0886,-1,1
160,0.17336,1.0895,-1,1
161,0.17445,1.0884,-1,1
162,0.17553,1.0868,-1,1
163,0.17661,1.0866,-1,1
164,0.1777,1.0886,-1,1
165,0.17879,1.0913,-1,1
166,0.1799,1.0934,-1,1
167,0.181,1.0946,-1,1
168,0.18209,1.0942,-1,1
169,0.18318,1.0927,-1,1
170,0.18426,1.0913,-1,1
171,0.18535,1.0912,-1,1
172,0.18644,1.0924,-1,1
173,0.18754,1.0947,-1,1
174,0.18865,1.0956,-1,1
175,0.19083,1.0942,-1,1
176,0.19083,1.0924,-1,1
177,0.19192,1.0908,-1,1
178,0.193,1.0899,-1,1
179,0.19409,1.0906,-1,1
180,0.1952,1.0924,-1,1
181,0.1963,1.0941,-1,1
182,0.1974,1.0946,-1,1
183,0.19849,1.0932,-1,1
184,0.19957,1.0906,-1,1
185,0.20064,1.0904,-1,1
186,0.20283,1.092,-1,1
187,0.20393,1.0937,-1,1
188,0.20393,1.0947,-1,1
189,0.20503,1.0949,-1,1
190,0.20611,1.0932,-1,1
191,0.20719,1.0905,-1,1
192,0.20826,1.0882,-1,1
193,0.20935,1.0876,-1,1
194,0.21154,1.0895,-1,1
195,0.21263,1.0898,-1,1
196,0.21371,1.0878,-1,1
197,0.21478,1.0846,-1,1
198,0.21585,1.0821,-1,1
199,0.21693,1.0804,-1,1
200,0.21801,1.0807,-1,1
201,0.2191,1.0819,-1,1
202,0.22018,1.0824,-1,1
203,0.22125,1.0814,-1,1
204,0.22232,1.0782,-1,1
205,0.22338,1.0756,-1,1
206,0.22445,1.0747,-1,1
207,0.22553,1.0752,-1,1
208,0.22661,1.076,-1,1
209,0.22768,1.0755,-1,1
210,0.22874,1.0733,-1,1
211,0.2298,1.0705,-1,1
212,0.23086,1.0682,-1,1
213,0.23192,1.0672,-1,1
214,0.23299,1.0668,-1,1
215,0.23405,1.0669,-1,1
216,0.23512,1.0662,-1,1
217,0.23617,1.0645,-1,1
218,0.23723,1.0622,-1,1
219,0.23828,1.0601,-1,1
220,0.23933,1.0586,-1,1
221,0.24038,1.0579,-1,1
222,0.24144,1.0573,-1,1
223,0.24249,1.0562,-1,1
224,0.24354,1.0549,-1,1
225,0.24458,1.0531,-1,1
226,0.24563,1.0512,-1,1
227,0.24667,1.0494,-1,1
228,0.24771,1.048,-1,1
229,0.24875,1.0469,-1,1
230,0.24979,1.0459,-1,1
231,0.25083,1.0445,-1,1
232,0.25187,1.0429,-1,1
233,0.2529,1.041,-1,1
234,0.25393,1.0389,-1,1
235,0.25495,1.0367,-1,1
236,0.25598,1.035,-1,1
237,0.25701,1.0338,-1,1
238,0.25804,1.0325,-1,1
239,0.25906,1.031,-1,1
240,0.26008,1.0292,-1,1
241,0.2611,1.0265,-1,1
242,0.2621,1.0238,-1,1
243,0.26311,1.0215,-1,1
244,0.26413,1.0199,-1,1
245,0.26514,1.019,-1,1
246,0.26616,1.0178,-1,1
247,0.26716,1.0157,-1,1
248,0.26817,1.0131,-1,1
249,0.26916,1.0097,-1,1
250,0.27115,1.0069,-1,1
251,0.27215,1.0056,-1,1
252,0.27315,1.0046,-1,1
253,0.27414,1.0033,-1,1
254,0.27513,1.0007,-1,1
255,0.27611,0.9972,-1,1
256,0.27709,0.9935,-1,1
257,0.27807,0.9906,-1,1
258,0.27904,0.9881,-1,1
259,0.28002,0.9867,-1,1
260,0.281,0.9851,-1,1
261,0.28197,0.982,-1,1
262,0.28294,0.9789,-1,1
263,0.2839,0.9753,-1,1
264,0.28486,0.9726,-1,1
265,0.28582,0.9704,-1,1
266,0.28678,0.9687,-1,1
267,0.28774,0.9669,-1,1
268,0.2887,0.9649,-1,1
269,0.28965,0.9623,-1,1
270,0.2906,0.9591,-1,1
271,0.29154,0.9566,-1,1
272,0.29249,0.9541,-1,1
273,0.29343,0.9523,-1,1
274,0.29437,0.9505,-1,1
275,0.29531,0.9485,-1,1
276,0.29625,0.946,-1,1
277,0.29718,0.9429,-1,1
278,0.2981,0.9399,-1,1
279,0.29903,0.9374,-1,1
280,0.29995,0.9353,-1,1
281,0.30088,0.9338,-1,1
282,0.3018,0.9318,-1,1
283,0.30272,0.9292,-1,1
284,0.30364,0.9264,-1,1
285,0.30455,0.9237,-1,1
286,0.30546,0.9211,-1,1
287,0.30637,0.9192,-1,1
288,0.30728,0.9173,-1,1
289,0.30818,0.9148,-1,1
290,0.30908,0.9123,-1,1
291,0.30998,0.9095,-1,1
292,0.31088,0.907,-1,1
293,0.31177,0.9047,-1,1
294,0.31266,0.9023,-1,1
295,0.31355,0.9,-1,1
296,0.31443,0.8976,-1,1
297,0.31532,0.895,-1,1
298,0.3162,0.8924,-1,1
299,0.31708,0.8902,-1,1
300,0.31796,0.888,-1,1
301,0.31883,0.8855,-1,1
302,0.3197,0.8829,-1,1
303,0.32057,0.8803,-1,1
304,0.32144,0.8778,-1,1
305,0.3223,0.8752,-1,1
306,0.32316,0.8726,-1,1
307,0.32402,0.8702,-1,1
308,0.32488,0.8679,-1,1
309,0.32573,0.8655,-1,1
310,0.32659,0.863,-1,1
311,0.32744,0.8605,-1,1
312,0.32829,0.8581,-1,1
313,0.32913,0.8558,-1,1
314,0.32997,0.8537,-1,1
315,0.33081,0.8512,-1,1
316,0.33165,0.849,-1,1
317,0.33248,0.8464,-1,1
318,0.33332,0.8439,-1,1
319,0.33415,0.8415,-1,1
320,0.33498,0.8393,-1,1
321,0.33581,0.8369,-1,1
322,0.33663,0.8345,-1,1
323,0.33745,0.832,-1,1
324,0.33827,0.8297,-1,1
325,0.33909,0.8275,-1,1
326,0.3399,0.8251,-1,1
327,0.34071,0.8228,-1,1
328,0.34152,0.8204,-1,1
329,0.34233,0.8181,-1,1
330,0.34314,0.8157,-1,1
331,0.34394,0.8137,-1,1
332,0.34474,0.8113,-1,1
333,0.34554,0.809,-1,1
334,0.34633,0.8063,-1,1
335,0.34713,0.8041,-1,1
336,0.34792,0.8018,-1,1
337,0.34871,0.7998,-1,1
338,0.3495,0.7975,-1,1
339,0.35028,0.7951,-1,1
340,0.35107,0.7928,-1,1
341,0.35185,0.7904,-1,1
342,0.35263,0.7884,-1,1
343,0.35341,0.7864,-1,1
344,0.35418,0.7844,-1,1
345,0.35495,0.782,-1,1
346,0.35572,0.7798,-1,1
347,0.35649,0.7776,-1,1
348,0.35726,0.7758,-1,1
349,0.35879,0.7737,-1,1
350,0.35955,0.7713,-1,1
351,0.36031,0.769,-1,1
352,0.36106,0.7665,-1,1
353,0.36181,0.7641,-1,1
354,0.36257,0.7622,-1,1
355,0.36332,0.7603,-1,1
356,0.36407,0.7582,-1,1
357,0.36482,0.756,-1,1
358,0.36631,0.7537,-1,1
359,0.36705,0.7516,-1,1
360,0.36779,0.7498,-1,1
361,0.36853,0.7475,-1,1
362,0.36926,0.7454,-1,1
363,0.37,0.7436,-1,1
364,0.37073,0.7416,-1,1
365,0.37147,0.7397,-1,1
366,0.3722,0.7381,-1,1
367,0.37292,0.736,-1,1
368,0.37365,0.7341,-1,1
369,0.37438,0.7324,-1,1
370,0.37583,0.7306,-1,1
371,0.37655,0.7289,-1,1
372,0.37726,0.727,-1,1
373,0.37798,0.7251,-1,1
374,0.37869,0.7231,-1,1
375,0.37941,0.7213,-1,1
376,0.38012,0.7197,-1,1
377,0.38083,0.7184,-1,1
378,0.38155,0.7168,-1,1
379,0.38296,0.715,-1,1
380,0.38296,0.7131,-1,1
381,0.38367,0.7117,-1,1
382,0.38437,0.7107,-1,1
383,0.38507,0.7095,-1,1
384,0.38577,0.7081,-1,1
385,0.38647,0.7063,-1,1
386,0.38717,0.7042,-1,1
387,0.38856,0.7028,-1,1
388,0.38926,0.7014,-1,1
389,0.38995,0.7001,-1,1
390,0.39064,0.6988,-1,1
391,0.39133,0.697,-1,1
392,0.39133,0.6953,-1,1
393,0.39202,0.6937,-1,1
394,0.39271,0.6925,-1,1
395,0.3934,0.6918,-1,1
396,0.39408,0.691,-1,1
397,0.39477,0.6893,-1,1
398,0.39613,0.6878,-1,1
399,0.39682,0.6867,-1,1
400,0.3975,0.6861,-1,1
401,0.39819,0.6858,-1,1
402,0.39887,0.6852,-1,1
403,0.39887,0.6844,-1,1
404,0.39955,0.6836,-1,1
405,0.40023,0.6826,-1,1
406,0.40091,0.682,-1,1
407,0.40159,0.6818,-1,1
408,0.40227,0.6815,-1,1
409,0.40295,0.6811,-1,1
410,0.40431,0.6806,-1,1
411,0.40499,0.6805,-1,1
412,0.40567,0.6806,-1,1
413,0.40567,0.6807,-1,1
414,0.40636,0.6808,-1,1
415,0.40704,0.6808,-1,1
416,0.40772,0.6809,-1,1
417,0.4084,0.6812,-1,1
418,0.40908,0.6816,-1,1
419,0.40977,0.6818,-1,1
420,0.41045,0.6818,-1,1
421,0.41113,0.6818,-1,1
422,0.4125,0.6824,-1,1
423,0.4125,0.6832,-1,1
424,0.41319,0.684,-1,1
425,0.41388,0.6851,-1,1
426,0.41457,0.6856,-1,1
427,0.41526,0.6862,-1,1
428,0.41595,0.6869,-1,1
429,0.41664,0.6881,-1,1
430,0.41734,0.6894,-1,1
431,0.41803,0.6904,-1,1
432,0.41872,0.6908,-1,1
433,0.42012,0.6916,-1,1
434,0.42082,0.6928,-1,1
435,0.42082,0.6943,-1,1
436,0.42152,0.6961,-1,1
437,0.42223,0.6977,-1,1
438,0.42293,0.6992,-1,1
439,0.42364,0.7003,-1,1
440,0.42435,0.7016,-1,1
441,0.42505,0.7035,-1,1
442,0.42577,0.7054,-1,1
443,0.42719,0.7072,-1,1
444,0.42791,0.7088,-1,1
445,0.42863,0.7103,-1,1
446,0.42863,0.7121,-1,1
447,0.42935,0.7139,-1,1
448,0.43008,0.7157,-1,1
449,0.4308,0.7179,-1,1
450,0.43153,0.7202,-1,1
451,0.43226,0.7222,-1,1
452,0.433,0.7242,-1,1
453,0.43373,0.7262,-1,1
454,0.43447,0.728,-1,1
455,0.43595,0.7306,-1,1
456,0.43595,0.7331,-1,1
457,0.4367,0.7359,-1,1
458,0.43745,0.7387,-1,1
459,0.43821,0.7415,-1,1
460,0.43896,0.744,-1,1
461,0.43972,0.7467,-1,1
462,0.44048,0.7496,-1,1
463,0.44125,0.7528,-1,1
464,0.44202,0.7567,-1,1
465,0.44279,0.7598,-1,1
466,0.44435,0.763,-1,1
467,0.44514,0.7665,-1,1
468,0.44514,0.7706,-1,1
469,0.44593,0.7743,-1,1
470,0.44672,0.7782,-1,1
471,0.44752,0.782,-1,1
472,0.44832,0.7858,-1,1
473,0.44912,0.7894,-1,1
474,0.44993,0.7929,-1,1
475,0.45075,0.7973,-1,1
476,0.45157,0.8018,-1,1
477,0.45322,0.8059,-1,1
478,0.45405,0.8097,-1,1
479,0.45488,0.8141,-1,1
480,0.45488,0.8189,-1,1
481,0.45657,0.8239,-1,1
482,0.45742,0.829,-1,1
483,0.45828,0.8341,-1,1
484,0.45914,0.8392,-1,1
485,0.46001,0.8439,-1,1
486,0.46088,0.8488,-1,1
487,0.46176,0.8537,-1,1
488,0.46264,0.8586,-1,1
489,0.46352,0.8634,-1,1
490,0.46441,0.8682,-1,1
491,0.46531,0.8733,-1,1
492,0.46621,0.8787,-1,1
493,0.46712,0.8842,-1,1
494,0.46803,0.8895,-1,1
495,0.46895,0.8945,-1,1
496,0.46988,0.9002,-1,1
497,0.47081,0.9062,-1,1
498,0.47268,0.9122,-1,1
499,0.47363,0.9181,-1,1
500,0.47458,0.9245,-1,1
501,0.47554,0.9308,-1,1
502,0.47651,0.9371,-1,1
503,0.47748,0.9431,-1,1
504,0.47845,0.9491,-1,1
505,0.47943,0.9552,-1,1
506,0.48042,0.9609,-1,1
507,0.48141,0.9664,-1,1
508,0.48241,0.9722,-1,1
509,0.48341,0.9782,-1,1
510,0.48442,0.9839,-1,1
511,0.48544,0.9895,-1,1
512,0.48646,0.995,-1,1
513,0.48748,1.0005,-1,1
514,0.48852,1.0063,-1,1
515,0.48955,1.0123,-1,1
516,0.4906,1.0179,-1,1
517,0.49165,1.0238,-1,1
518,0.4927,1.0298,-1,1
519,0.49377,1.036,-1,1
520,0.49484,1.0417,-1,1
521,0.49591,1.0473,-1,1
522,0.49699,1.0529,-1,1
523,0.49807,1.0588,-1,1
524,0.49916,1.0649,-1,1
525,0.50026,1.0709,-1,1
526,0.50137,1.0769,-1,1
527,0.50248,1.0827,-1,1
528,0.50359,1.0884,-1,1
529,0.50471,1.0939,-1,1
530,0.50584,1.0997,-1,1
531,0.50697,1.1055,-1,1
532,0.50811,1.1117,-1,1
533,0.50925,1.1179,-1,1
534,0.5104,1.1236,-1,1
535,0.51155,1.1292,-1,1
536,0.51272,1.1351,-1,1
537,0.51388,1.1411,-1,1
538,0.51506,1.1469,-1,1
539,0.51624,1.1528,-1,1
540,0.51742,1.1588,-1,1
541,0.51861,1.1646,-1,1
542,0.51981,1.1702,-1,1
543,0.52101,1.176,-1,1
544,0.52222,1.1818,-1,1
545,0.52343,1.1881,-1,1
546,0.52466,1.1939,-1,1
547,0.52588,1.1997,-1,1
548,0.52711,1.2054,-1,1
549,0.52835,1.211,-1,1
550,0.52959,1.2166,-1,1
551,0.53084,1.2228,-1,1
552,0.5321,1.2292,-1,1
553,0.53336,1.2352,-1,1
554,0.53463,1.2408,-1,1
555,0.53589,1.2458,-1,1
556,0.53717,1.2512,-1,1
557,0.53845,1.2573,-1,1
558,0.53975,1.2642,-1,1
559,0.54105,1.2706,-1,1
560,0.54235,1.2762,-1,1
561,0.54365,1.281,-1,1
562,0.54495,1.2857,-1,1
563,0.54628,1.2915,-1,1
564,0.54761,1.2984,-1,1
565,0.54894,1.3051,-1,1
566,0.55028,1.311,-1,1
567,0.55161,1.3155,-1,1
568,0.55295,1.3196,-1,1
569,0.5543,1.3248,-1,1
570,0.55566,1.3315,-1,1
571,0.55703,1.3384,-1,1
572,0.55839,1.3441,-1,1
573,0.55976,1.3483,-1,1
574,0.56113,1.3522,-1,1
575,0.56251,1.3571,-1,1
576,0.56391,1.3631,-1,1
577,0.5653,1.3695,-1,1
578,0.56669,1.3747,-1,1
579,0.56808,1.3785,-1,1
580,0.56948,1.3819,-1,1
581,0.5709,1.3866,-1,1
582,0.57232,1.3924,-1,1
583,0.57374,1.398,-1,1
584,0.57515,1.4022,-1,1
585,0.57656,1.405,-1,1
586,0.57799,1.4082,-1,1
587,0.57943,1.4129,-1,1
588,0.58088,1.4186,-1,1
589,0.58232,1.4237,-1,1
590,0.58375,1.4269,-1,1
591,0.58518,1.4288,-1,1
592,0.58663,1.4315,-1,1
593,0.58956,1.4362,-1,1
594,0.59102,1.4406,-1,1
595,0.59247,1.4444,-1,1
596,0.59393,1.4472,-1,1
597,0.59539,1.4495,-1,1
598,0.59687,1.4528,-1,1
599,0.59835,1.4568,-1,1
600,0.59982,1.4608,-1,1
601,0.60129,1.4639,-1,1
602,0.60276,1.4661,-1,1
603,0.60424,1.4675,-1,1
604,0.60573,1.4709,-1,1
605,0.60722,1.4746,-1,1
606,0.6087,1.4773,-1,1
607,0.61018,1.4785,-1,1
608,0.61166,1.4789,-1,1
609,0.61316,1.4803,-1,1
610,0.61465,1.4828,-1,1
611,0.61614,1.4854,-1,1
612,0.61763,1.4869,-1,1
613,0.61912,1.4884,-1,1
614,0.62061,1.4893,-1,1
615,0.62361,1.4903,-1,1
616,0.6251,1.4914,-1,1
617,0.62659,1.4928,-1,1
618,0.62809,1.494,-1,1
619,0.62959,1.4945,-1,1
620,0.63109,1.4949,-1,1
621,0.63258,1.4954,-1,1
622,0.63408,1.4959,-1,1
623,0.63557,1.4958,-1,1
624,0.63707,1.4957,-1,1
625,0.64006,1.4954,-1,1
626,0.64155,1.4954,-1,1
627,0.64304,1.4953,-1,1
628,0.64454,1.4948,-1,1
629,0.64603,1.4946,-1,1
630,0.64753,1.494,-1,1
631,0.64902,1.4935,-1,1
632,0.6505,1.4931,-1,1
633,0.65199,1.4922,-1,1
634,0.65348,1.4912,-1,1
635,0.65497,1.4907,-1,1
636,0.65646,1.4903,-1,1
637,0.65794,1.4894,-1,1
638,0.65941,1.488,-1,1
639,0.66089,1.4861,-1,1
640,0.66237,1.4847,-1,1
641,0.66385,1.4835,-1,1
642,0.66533,1.4824,-1,1
643,0.6668,1.4811,-1,1
644,0.66827,1.4789,-1,1
645,0.66974,1.4767,-1,1
646,0.6712,1.4746,-1,1
647,0.67267,1.4728,-1,1
648,0.67413,1.4713,-1,1
649,0.67559,1.4693,-1,1
650,0.67704,1.4668,-1,1
651,0.6785,1.4643,-1,1
652,0.67995,1.4618,-1,1
653,0.6814,1.4594,-1,1
654,0.68284,1.4572,-1,1
655,0.68428,1.4548,-1,1
656,0.68572,1.4522,-1,1
657,0.68716,1.4496,-1,1
658,0.68859,1.4466,-1,1
659,0.69003,1.4438,-1,1
660,0.69145,1.4411,-1,1
661,0.69288,1.4384,-1,1
662,0.6943,1.4357,-1,1
663,0.69572,1.4329,-1,1
664,0.69714,1.4298,-1,1
665,0.69855,1.4266,-1,1
666,0.69996,1.4233,-1,1
667,0.70136,1.4201,-1,1
668,0.70277,1.4171,-1,1
669,0.70416,1.4137,-1,1
670,0.70555,1.4102,-1,1
671,0.70694,1.4065,-1,1
672,0.70833,1.403,-1,1
673,0.70972,1.3993,-1,1
674,0.7111,1.3958,-1,1
675,0.71247,1.3921,-1,1
676,0.71384,1.3882,-1,1
677,0.7152,1.3842,-1,1
678,0.71657,1.3804,-1,1
679,0.71793,1.3766,-1,1
680,0.71928,1.3727,-1,1
681,0.72063,1.3684,-1,1
682,0.72197,1.364,-1,1
683,0.72331,1.3598,-1,1
684,0.72465,1.3557,-1,1
685,0.72599,1.3516,-1,1
686,0.72731,1.3474,-1,1
687,0.72863,1.343,-1,1
688,0.72995,1.3382,-1,1
689,0.73127,1.3338,-1,1
690,0.73258,1.3295,-1,1
691,0.73388,1.3254,-1,1
692,0.73518,1.3209,-1,1
693,0.73648,1.316,-1,1
694,0.73776,1.311,-1,1
695,0.73905,1.3061,-1,1
696,0.74033,1.3018,-1,1
697,0.74161,1.2973,-1,1
698,0.74288,1.2927,-1,1
699,0.74415,1.2879,-1,1
700,0.7454,1.2827,-1,1
701,0.74666,1.2775,-1,1
702,0.74791,1.2726,-1,1
703,0.74916,1.2684,-1,1
704,0.75041,1.2641,-1,1
705,0.75164,1.2595,-1,1
706,0.75287,1.2542,-1,1
707,0.7541,1.249,-1,1
708,0.75532,1.2438,-1,1
709,0.75653,1.239,-1,1
710,0.75775,1.2344,-1,1
711,0.75896,1.2302,-1,1
712,0.76016,1.2254,-1,1
713,0.76136,1.22,-1,1
714,0.76255,1.2145,-1,1
715,0.76373,1.2093,-1,1
716,0.76491,1.2042,-1,1
717,0.76609,1.1996,-1,1
718,0.76726,1.195,-1,1
719,0.76843,1.19,-1,1
720,0.76959,1.1846,-1,1
721,0.77075,1.1789,-1,1
722,0.7719,1.1737,-1,1
723,0.77304,1.1688,-1,1
724,0.77418,1.1639,-1,1
725,0.77532,1.1587,-1,1
726,0.77645,1.1536,-1,1
727,0.77757,1.1481,-1,1
728,0.77869,1.1428,-1,1
729,0.77981,1.1374,-1,1
730,0.78092,1.1325,-1,1
731,0.78202,1.1274,-1,1
732,0.78312,1.1222,-1,1
733,0.78421,1.1168,-1,1
734,0.7853,1.1115,-1,1
735,0.78638,1.1063,-1,1
736,0.78746,1.1013,-1,1
737,0.78853,1.0961,-1,1
738,0.7896,1.0909,-1,1
739,0.79066,1.0858,-1,1
740,0.79172,1.0804,-1,1
741,0.79277,1.0752,-1,1
742,0.79382,1.0699,-1,1
743,0.79589,1.0642,-1,1
744,0.79692,1.0585,-1,1
745,0.79795,1.0529,-1,1
746,0.79897,1.047,-1,1
747,0.79999,1.0415,-1,1
748,0.801,1.0358,-1,1
749,0.802,1.0297,-1,1
750,0.803,1.0239,-1,1
751,0.80399,1.018,-1,1
752,0.80498,1.0124,-1,1
753,0.80597,1.0074,-1,1
754,0.80695,1.0021,-1,1
755,0.80792,0.9969,-1,1
756,0.80985,0.9914,-1,1
757,0.81081,0.9855,-1,1
758,0.81176,0.9796,-1,1
759,0.81271,0.9739,-1,1
760,0.81365,0.9685,-1,1
761,0.81459,0.9632,-1,1
762,0.81553,0.9577,-1,1
763,0.81646,0.952,-1,1
764,0.81738,0.9462,-1,1
765,0.81829,0.9405,-1,1
766,0.81921,0.9353,-1,1
767,0.82011,0.9301,-1,1
768,0.82101,0.9252,-1,1
769,0.82191,0.9206,-1,1
770,0.82281,0.9157,-1,1
771,0.8237,0.9105,-1,1
772,0.82458,0.9052,-1,1
773,0.82545,0.9,-1,1
774,0.82632,0.895,-1,1
775,0.82719,0.8899,-1,1
776,0.82805,0.885,-1,1
777,0.82891,0.8802,-1,1
778,0.82977,0.8751,-1,1
779,0.83061,0.8699,-1,1
780,0.83146,0.8647,-1,1
781,0.83229,0.8597,-1,1
782,0.83313,0.8549,-1,1
783,0.83395,0.8498,-1,1
784,0.83477,0.8449,-1,1
785,0.83559,0.8399,-1,1
786,0.83641,0.835,-1,1
787,0.83722,0.8302,-1,1
788,0.83802,0.8256,-1,1
789,0.83882,0.8208,-1,1
790,0.83961,0.8157,-1,1
791,0.8404,0.8106,-1,1
792,0.84118,0.8056,-1,1
793,0.84196,0.8009,-1,1
794,0.84274,0.7964,-1,1
795,0.84351,0.792,-1,1
796,0.84427,0.7868,-1,1
797,0.84503,0.7818,-1,1
798,0.84579,0.7769,-1,1
799,0.84655,0.7725,-1,1
800,0.84729,0.7682,-1,1
801,0.84804,0.7638,-1,1
802,0.84877,0.7591,-1,1
803,0.8495,0.7542,-1,1
804,0.85023,0.7493,-1,1
805,0.85096,0.7447,-1,1
806,0.85168,0.7406,-1,1
807,0.8524,0.7363,-1,1
808,0.85311,0.7316,-1,1
809,0.85381,0.7265,-1,1
810,0.85451,0.7219,-1,1
811,0.85522,0.7177,-1,1
812,0.85591,0.7139,-1,1
813,0.85661,0.7101,-1,1
814,0.85729,0.706,-1,1
815,0.85797,0.7013,-1,1
816,0.85865,0.6969,-1,1
817,0.85933,0.6928,-1,1
818,0.86,0.6892,-1,1
819,0.86067,0.6859,-1,1
820,0.86134,0.6821,-1,1
821,0.862,0.6779,-1,1
822,0.86265,0.6736,-1,1
823,0.86331,0.6698,-1,1
824,0.86396,0.6665,-1,1
825,0.86461,0.6633,-1,1
826,0.86525,0.66,-1,1
827,0.86589,0.6564,-1,1
828,0.86652,0.6523,-1,1
829,0.86716,0.6485,-1,1
830,0.86779,0.6449,-1,1
831,0.86841,0.6415,-1,1
832,0.86904,0.6383,-1,1
833,0.86966,0.6352,-1,1
834,0.87028,0.6317,-1,1
835,0.87089,0.6284,-1,1
836,0.8715,0.6249,-1,1
837,0.87211,0.6217,-1,1
