cnt,pos,speed,Dir,Force,
1,0,1.2375,-1,1
2,0.00126028,1.2416,-1,1
3,0.0025301,1.2462,-1,1
4,0.00380039,1.2514,-1,1
5,0.00508022,1.2565,-1,1
6,0.00635004,1.2603,-1,1
7,0.00763035,1.2634,-1,1
8,0.00891018,1.2663,-1,1
9,0.0102,1.2703,-1,1
10,0.0115004,1.2752,-1,1
11,0.0128002,1.2801,-1,1
12,0.0141001,1.2837,-1,1
13,0.0153904,1.2865,-1,1
14,0.0166903,1.2889,-1,1
15,0.0180001,1.2919,-1,1
16,0.01932,1.2962,-1,1
17,0.0206404,1.301,-1,1
18,0.0219603,1.3043,-1,1
19,0.0232701,1.3068,-1,1
20,0.02459,1.3092,-1,1
21,0.0272503,1.3128,-1,1
22,0.0285902,1.3172,-1,1
23,0.0299201,1.3213,-1,1
24,0.03126,1.3245,-1,1
25,0.0339303,1.3278,-1,1
26,0.0352802,1.331,-1,1
27,0.0352802,1.3346,-1,1
28,0.0366402,1.3391,-1,1
29,0.0379901,1.3429,-1,1
30,0.03934,1.3453,-1,1
31,0.0406799,1.3461,-1,1
32,0.0420303,1.3474,-1,1
33,0.0447702,1.3508,-1,1
34,0.0461302,1.3541,-1,1
35,0.0474901,1.3559,-1,1
36,0.0488501,1.3568,-1,1
37,0.05022,1.3578,-1,1
38,0.0516,1.3601,-1,1
39,0.0529799,1.363,-1,1
40,0.0543604,1.3657,-1,1
41,0.0557303,1.368,-1,1
42,0.0571003,1.3698,-1,1
43,0.0598702,1.3719,-1,1
44,0.0612602,1.3745,-1,1
45,0.0626502,1.3774,-1,1
46,0.0640302,1.3795,-1,1
47,0.0654101,1.3806,-1,1
48,0.0668001,1.3817,-1,1
49,0.0682001,1.3838,-1,1
50,0.0696101,1.3865,-1,1
51,0.0710001,1.3892,-1,1
52,0.0723901,1.3907,-1,1
53,0.0737801,1.3906,-1,1
54,0.0751801,1.3918,-1,1
55,0.0765901,1.3943,-1,1
56,0.0780001,1.3974,-1,1
57,0.0794001,1.3995,-1,1
58,0.0808001,1.3997,-1,1
59,0.0822001,1.3994,-1,1
60,0.0836101,1.4006,-1,1
61,0.0850301,1.4032,-1,1
62,0.0864501,1.4063,-1,1
63,0.0878601,1.4081,-1,1
64,0.0892601,1.408,-1,1
65,0.0906701,1.4076,-1,1
66,0.0920901,1.409,-1,1
67,0.0935202,1.412,-1,1
68,0.0949502,1.4149,-1,1
69,0.0963602,1.4166,-1,1
70,0.0977802,1.4165,-1,1
71,0.0992002,1.4167,-1,1
72,0.10063,1.4183,-1,1
73,0.10207,1.4209,-1,1
74,0.1035,1.4237,-1,1
75,0.10492,1.4253,-1,1
76,0.10635,1.4257,-1,1
77,0.10779,1.4264,-1,1
78,0.10923,1.4284,-1,1
79,0.11067,1.4306,-1,1
80,0.1121,1.4328,-1,1
81,0.11354,1.434,-1,1
82,0.11498,1.435,-1,1
83,0.11643,1.4365,-1,1
84,0.11788,1.4383,-1,1
85,0.11932,1.4403,-1,1
86,0.12077,1.4416,-1,1
87,0.12221,1.4427,-1,1
88,0.12367,1.4441,-1,1
89,0.12513,1.4463,-1,1
90,0.12659,1.4483,-1,1
91,0.12803,1.4495,-1,1
92,0.12948,1.4501,-1,1
93,0.13095,1.4513,-1,1
94,0.13242,1.4534,-1,1
95,0.13388,1.4555,-1,1
96,0.13534,1.4572,-1,1
97,0.1368,1.4581,-1,1
98,0.13826,1.4587,-1,1
99,0.13973,1.4597,-1,1
100,0.1412,1.4615,-1,1
101,0.14267,1.4638,-1,1
102,0.14414,1.4653,-1,1
103,0.1456,1.4659,-1,1
104,0.14708,1.4662,-1,1
105,0.14855,1.4673,-1,1
106,0.15003,1.4689,-1,1
107,0.1515,1.4703,-1,1
108,0.15297,1.4713,-1,1
109,0.15445,1.4721,-1,1
110,0.15593,1.4729,-1,1
111,0.15741,1.4739,-1,1
112,0.15889,1.4748,-1,1
113,0.16036,1.4758,-1,1
114,0.16185,1.4769,-1,1
115,0.16334,1.4784,-1,1
116,0.16482,1.4796,-1,1
117,0.16631,1.481,-1,1
118,0.16779,1.4818,-1,1
119,0.16928,1.4826,-1,1
120,0.17077,1.4839,-1,1
121,0.17227,1.4855,-1,1
122,0.17376,1.4878,-1,1
123,0.17526,1.4894,-1,1
124,0.17675,1.4906,-1,1
125,0.17825,1.4914,-1,1
126,0.17975,1.4929,-1,1
127,0.18126,1.4949,-1,1
128,0.18276,1.4971,-1,1
129,0.18427,1.4992,-1,1
130,0.18578,1.5007,-1,1
131,0.18729,1.502,-1,1
132,0.1888,1.5032,-1,1
133,0.19031,1.5049,-1,1
134,0.19182,1.5067,-1,1
135,0.19334,1.5085,-1,1
136,0.19485,1.5102,-1,1
137,0.19637,1.5114,-1,1
138,0.19788,1.5124,-1,1
139,0.1994,1.5128,-1,1
140,0.20091,1.5138,-1,1
141,0.20244,1.5155,-1,1
142,0.20397,1.517,-1,1
143,0.20548,1.5177,-1,1
144,0.207,1.5184,-1,1
145,0.21004,1.5192,-1,1
146,0.21157,1.52,-1,1
147,0.21309,1.5206,-1,1
148,0.21461,1.521,-1,1
149,0.21612,1.5214,-1,1
150,0.21765,1.5217,-1,1
151,0.21917,1.5218,-1,1
152,0.2207,1.5219,-1,1
153,0.22222,1.5221,-1,1
154,0.22373,1.5218,-1,1
155,0.22678,1.5218,-1,1
156,0.2283,1.5215,-1,1
157,0.22982,1.5212,-1,1
158,0.23134,1.5212,-1,1
159,0.23134,1.5216,-1,1
160,0.23286,1.5214,-1,1
161,0.23438,1.5209,-1,1
162,0.23742,1.5206,-1,1
163,0.23894,1.5208,-1,1
164,0.24046,1.5209,-1,1
165,0.24198,1.5203,-1,1
166,0.24349,1.5196,-1,1
167,0.24501,1.5194,-1,1
168,0.24653,1.5196,-1,1
169,0.24805,1.5197,-1,1
170,0.24957,1.5197,-1,1
171,0.25109,1.5193,-1,1
172,0.25261,1.5186,-1,1
173,0.25412,1.5179,-1,1
174,0.25564,1.5179,-1,1
175,0.25716,1.5181,-1,1
176,0.25868,1.5182,-1,1
177,0.26019,1.5177,-1,1
178,0.2617,1.517,-1,1
179,0.26321,1.5162,-1,1
180,0.26473,1.5159,-1,1
181,0.26625,1.5158,-1,1
182,0.26776,1.5156,-1,1
183,0.26927,1.5154,-1,1
184,0.27079,1.5146,-1,1
185,0.2723,1.5135,-1,1
186,0.27381,1.5127,-1,1
187,0.27532,1.5125,-1,1
188,0.27683,1.5122,-1,1
189,0.27833,1.5115,-1,1
190,0.27984,1.5105,-1,1
191,0.28134,1.5092,-1,1
192,0.28285,1.5084,-1,1
193,0.28435,1.5075,-1,1
194,0.28585,1.5067,-1,1
195,0.28736,1.506,-1,1
196,0.28885,1.505,-1,1
197,0.29035,1.5037,-1,1
198,0.29185,1.5022,-1,1
199,0.29334,1.5013,-1,1
200,0.29484,1.5002,-1,1
201,0.29633,1.4993,-1,1
202,0.29783,1.4981,-1,1
203,0.29932,1.4966,-1,1
204,0.3008,1.4951,-1,1
205,0.30229,1.4935,-1,1
206,0.30378,1.4922,-1,1
207,0.30526,1.491,-1,1
208,0.30674,1.4897,-1,1
209,0.30822,1.488,-1,1
210,0.3097,1.4861,-1,1
211,0.31118,1.4844,-1,1
212,0.31266,1.4828,-1,1
213,0.31413,1.4813,-1,1
214,0.3156,1.4798,-1,1
215,0.31707,1.4783,-1,1
216,0.31854,1.4763,-1,1
217,0.32001,1.4742,-1,1
218,0.32147,1.4726,-1,1
219,0.32293,1.4709,-1,1
220,0.3244,1.4693,-1,1
221,0.32586,1.4675,-1,1
222,0.32731,1.4655,-1,1
223,0.32876,1.4634,-1,1
224,0.33021,1.4611,-1,1
225,0.33166,1.4589,-1,1
226,0.33311,1.457,-1,1
227,0.33456,1.4551,-1,1
228,0.336,1.4531,-1,1
229,0.33744,1.4508,-1,1
230,0.33888,1.4484,-1,1
231,0.34032,1.4462,-1,1
232,0.34175,1.4442,-1,1
233,0.34319,1.4424,-1,1
234,0.34462,1.4406,-1,1
235,0.34605,1.4384,-1,1
236,0.34747,1.4359,-1,1
237,0.34889,1.4337,-1,1
238,0.35032,1.4316,-1,1
239,0.35174,1.4295,-1,1
240,0.35315,1.4276,-1,1
241,0.35457,1.4252,-1,1
242,0.3574,1.4228,-1,1
243,0.35881,1.4206,-1,1
244,0.36022,1.4183,-1,1
245,0.36162,1.4158,-1,1
246,0.36302,1.4138,-1,1
247,0.36442,1.4116,-1,1
248,0.36582,1.4093,-1,1
249,0.36862,1.4068,-1,1
250,0.36862,1.404,-1,1
251,0.3714,1.4015,-1,1
252,0.37279,1.3994,-1,1
253,0.37418,1.3971,-1,1
254,0.37556,1.3945,-1,1
255,0.37694,1.3919,-1,1
256,0.37831,1.3893,-1,1
257,0.37969,1.3871,-1,1
258,0.38107,1.3849,-1,1
259,0.38245,1.383,-1,1
260,0.38381,1.3807,-1,1
261,0.38518,1.3779,-1,1
262,0.38654,1.3749,-1,1
263,0.3879,1.3725,-1,1
264,0.38927,1.371,-1,1
265,0.39063,1.3695,-1,1
266,0.39198,1.3671,-1,1
267,0.39333,1.3639,-1,1
268,0.39468,1.3608,-1,1
269,0.39603,1.3586,-1,1
270,0.39739,1.3574,-1,1
271,0.39873,1.356,-1,1
272,0.40007,1.3537,-1,1
273,0.40141,1.3505,-1,1
274,0.40274,1.3475,-1,1
275,0.40408,1.3452,-1,1
276,0.40542,1.3438,-1,1
277,0.40676,1.3425,-1,1
278,0.40808,1.3402,-1,1
279,0.4094,1.3369,-1,1
280,0.41072,1.3337,-1,1
281,0.41205,1.3316,-1,1
282,0.41338,1.3303,-1,1
283,0.4147,1.3289,-1,1
284,0.41601,1.3265,-1,1
285,0.41732,1.3234,-1,1
286,0.41863,1.3204,-1,1
287,0.41994,1.3181,-1,1
288,0.42125,1.3168,-1,1
289,0.42256,1.3154,-1,1
290,0.42385,1.3128,-1,1
291,0.42515,1.3096,-1,1
292,0.42645,1.3068,-1,1
293,0.42774,1.3048,-1,1
294,0.42904,1.3031,-1,1
295,0.43033,1.3015,-1,1
296,0.43161,1.2986,-1,1
297,0.43289,1.2953,-1,1
298,0.43417,1.2924,-1,1
299,0.43546,1.2904,-1,1
300,0.43674,1.289,-1,1
301,0.43802,1.2871,-1,1
302,0.43928,1.2839,-1,1
303,0.44055,1.2805,-1,1
304,0.44182,1.2776,-1,1
305,0.44309,1.2755,-1,1
306,0.44436,1.2744,-1,1
307,0.44561,1.2724,-1,1
308,0.44687,1.2693,-1,1
309,0.44811,1.2654,-1,1
310,0.44937,1.2623,-1,1
311,0.45062,1.2601,-1,1
312,0.45187,1.2589,-1,1
313,0.45312,1.257,-1,1
314,0.45436,1.2541,-1,1
315,0.45559,1.2501,-1,1
316,0.45682,1.2466,-1,1
317,0.45806,1.2443,-1,1
318,0.4593,1.2429,-1,1
319,0.46053,1.2411,-1,1
320,0.46175,1.2383,-1,1
321,0.46297,1.2348,-1,1
322,0.46419,1.2312,-1,1
323,0.46541,1.2287,-1,1
324,0.46663,1.2269,-1,1
325,0.46784,1.2255,-1,1
326,0.46905,1.223,-1,1
327,0.47025,1.2193,-1,1
328,0.47145,1.2155,-1,1
329,0.47266,1.2131,-1,1
330,0.47386,1.2113,-1,1
331,0.47506,1.2098,-1,1
332,0.47626,1.2071,-1,1
333,0.47744,1.2035,-1,1
334,0.47862,1.1995,-1,1
335,0.47981,1.1963,-1,1
336,0.481,1.1944,-1,1
337,0.48218,1.1932,-1,1
338,0.48336,1.1911,-1,1
339,0.48453,1.1874,-1,1
340,0.48569,1.1832,-1,1
341,0.48686,1.1796,-1,1
342,0.48803,1.1775,-1,1
343,0.4892,1.1758,-1,1
344,0.49036,1.1743,-1,1
345,0.49152,1.1714,-1,1
346,0.49267,1.1673,-1,1
347,0.49382,1.1633,-1,1
348,0.49497,1.1604,-1,1
349,0.49612,1.1586,-1,1
350,0.49726,1.1568,-1,1
351,0.4984,1.1541,-1,1
352,0.49954,1.1506,-1,1
353,0.50067,1.1471,-1,1
354,0.5018,1.1436,-1,1
355,0.50293,1.141,-1,1
356,0.50406,1.1389,-1,1
357,0.50518,1.1367,-1,1
358,0.5063,1.1336,-1,1
359,0.50742,1.1301,-1,1
360,0.50853,1.1268,-1,1
361,0.50964,1.1241,-1,1
362,0.51075,1.1217,-1,1
363,0.51186,1.1192,-1,1
364,0.51297,1.1166,-1,1
365,0.51407,1.1136,-1,1
366,0.51516,1.1105,-1,1
367,0.51626,1.1073,-1,1
368,0.51735,1.1047,-1,1
369,0.51844,1.1023,-1,1
370,0.51953,1.1001,-1,1
371,0.52062,1.0975,-1,1
372,0.5217,1.0946,-1,1
373,0.52278,1.0916,-1,1
374,0.52385,1.0887,-1,1
375,0.52493,1.086,-1,1
376,0.526,1.0833,-1,1
377,0.52707,1.0814,-1,1
378,0.52814,1.0793,-1,1
379,0.52921,1.0771,-1,1
380,0.53027,1.0742,-1,1
381,0.53133,1.071,-1,1
382,0.53238,1.0682,-1,1
383,0.53344,1.066,-1,1
384,0.5345,1.0643,-1,1
385,0.53555,1.0626,-1,1
386,0.53661,1.0607,-1,1
387,0.53765,1.0578,-1,1
388,0.53869,1.0545,-1,1
389,0.54077,1.0517,-1,1
390,0.54181,1.0495,-1,1
391,0.54285,1.0481,-1,1
392,0.54389,1.0463,-1,1
393,0.54492,1.0437,-1,1
394,0.54594,1.0403,-1,1
395,0.54697,1.0371,-1,1
396,0.54799,1.0347,-1,1
397,0.54902,1.0327,-1,1
398,0.55004,1.031,-1,1
399,0.55106,1.0292,-1,1
400,0.55208,1.0271,-1,1
401,0.55309,1.024,-1,1
402,0.55411,1.0213,-1,1
403,0.55612,1.0191,-1,1
404,0.55713,1.0177,-1,1
405,0.55713,1.0163,-1,1
406,0.55814,1.0146,-1,1
407,0.55915,1.0128,-1,1
408,0.56015,1.011,-1,1
409,0.56115,1.0086,-1,1
410,0.56215,1.0061,-1,1
411,0.56314,1.0047,-1,1
412,0.56414,1.0036,-1,1
413,0.56514,1.0025,-1,1
414,0.56713,1.0011,-1,1
415,0.56812,0.9993,-1,1
416,0.56812,0.997,-1,1
417,0.56911,0.995,-1,1
418,0.57009,0.9932,-1,1
419,0.57108,0.9919,-1,1
420,0.57207,0.9913,-1,1
421,0.57306,0.9907,-1,1
422,0.57405,0.9897,-1,1
423,0.57503,0.9886,-1,1
424,0.57602,0.9872,-1,1
425,0.57798,0.986,-1,1
426,0.57896,0.9852,-1,1
427,0.57896,0.9844,-1,1
428,0.57994,0.9841,-1,1
429,0.58093,0.9838,-1,1
430,0.58191,0.9835,-1,1
431,0.58289,0.9828,-1,1
432,0.58388,0.9823,-1,1
433,0.58486,0.9818,-1,1
434,0.58584,0.9816,-1,1
435,0.58682,0.9815,-1,1
436,0.5878,0.9815,-1,1
437,0.58878,0.9818,-1,1
438,0.58976,0.9818,-1,1
439,0.59075,0.982,-1,1
440,0.59173,0.9817,-1,1
441,0.59271,0.9816,-1,1
442,0.59369,0.9815,-1,1
443,0.59468,0.9817,-1,1
444,0.59566,0.9821,-1,1
445,0.59664,0.9824,-1,1
446,0.59763,0.9831,-1,1
447,0.59862,0.9837,-1,1
448,0.59961,0.9845,-1,1
449,0.6006,0.985,-1,1
450,0.60159,0.9856,-1,1
451,0.60257,0.9862,-1,1
452,0.60357,0.987,-1,1
453,0.60456,0.9882,-1,1
454,0.60555,0.9892,-1,1
455,0.60655,0.9908,-1,1
456,0.60755,0.992,-1,1
457,0.60855,0.9933,-1,1
458,0.60955,0.9944,-1,1
459,0.61056,0.9956,-1,1
460,0.61156,0.9969,-1,1
461,0.61256,0.9989,-1,1
462,0.61357,1.0008,-1,1
463,0.61459,1.0027,-1,1
464,0.6156,1.0048,-1,1
465,0.61662,1.0065,-1,1
466,0.61764,1.0085,-1,1
467,0.61866,1.0104,-1,1
468,0.61968,1.0123,-1,1
469,0.6207,1.0144,-1,1
470,0.62173,1.0171,-1,1
471,0.62276,1.0197,-1,1
472,0.6238,1.0223,-1,1
473,0.62483,1.0245,-1,1
474,0.62587,1.0271,-1,1
475,0.62691,1.0299,-1,1
476,0.62796,1.0325,-1,1
477,0.62901,1.0352,-1,1
478,0.63005,1.038,-1,1
479,0.63111,1.0411,-1,1
480,0.63217,1.0443,-1,1
481,0.63323,1.0471,-1,1
482,0.6343,1.0501,-1,1
483,0.63536,1.0532,-1,1
484,0.63643,1.0559,-1,1
485,0.6375,1.0589,-1,1
486,0.63858,1.0622,-1,1
487,0.63966,1.0661,-1,1
488,0.64184,1.0702,-1,1
489,0.64293,1.0739,-1,1
490,0.64402,1.0771,-1,1
491,0.64512,1.0806,-1,1
492,0.64622,1.0842,-1,1
493,0.64732,1.088,-1,1
494,0.64843,1.0921,-1,1
495,0.64955,1.0961,-1,1
496,0.65066,1.1002,-1,1
497,0.65178,1.1036,-1,1
498,0.6529,1.1068,-1,1
499,0.65515,1.1105,-1,1
500,0.65629,1.1146,-1,1
501,0.65742,1.1186,-1,1
502,0.65856,1.1224,-1,1
503,0.6597,1.1259,-1,1
504,0.66085,1.1293,-1,1
505,0.66199,1.1328,-1,1
506,0.66314,1.136,-1,1
507,0.6643,1.1395,-1,1
508,0.66546,1.1432,-1,1
509,0.66662,1.1464,-1,1
510,0.66778,1.1493,-1,1
511,0.66894,1.1519,-1,1
512,0.67011,1.1547,-1,1
513,0.67128,1.158,-1,1
514,0.67246,1.1613,-1,1
515,0.67364,1.1643,-1,1
516,0.676,1.1674,-1,1
517,0.67718,1.1703,-1,1
518,0.67837,1.1729,-1,1
519,0.67956,1.1762,-1,1
520,0.68075,1.1796,-1,1
521,0.68195,1.183,-1,1
522,0.68315,1.186,-1,1
523,0.68435,1.1888,-1,1
524,0.68555,1.1913,-1,1
525,0.68676,1.1946,-1,1
526,0.68918,1.1979,-1,1
527,0.6904,1.201,-1,1
528,0.69161,1.2041,-1,1
529,0.69283,1.2064,-1,1
530,0.69405,1.2088,-1,1
531,0.69527,1.2115,-1,1
532,0.6965,1.2147,-1,1
533,0.69773,1.2174,-1,1
534,0.69896,1.2204,-1,1
535,0.70019,1.2222,-1,1
536,0.70142,1.2242,-1,1
537,0.70266,1.2264,-1,1
538,0.7039,1.229,-1,1
539,0.70515,1.2318,-1,1
540,0.70639,1.2344,-1,1
541,0.70764,1.2365,-1,1
542,0.70888,1.2382,-1,1
543,0.71013,1.2403,-1,1
544,0.71139,1.2426,-1,1
545,0.71265,1.2456,-1,1
546,0.71391,1.2483,-1,1
547,0.71517,1.2505,-1,1
548,0.71642,1.2522,-1,1
549,0.71769,1.254,-1,1
550,0.71895,1.256,-1,1
551,0.72022,1.2587,-1,1
552,0.7215,1.2615,-1,1
553,0.72277,1.264,-1,1
554,0.72405,1.2659,-1,1
555,0.72532,1.2673,-1,1
556,0.7266,1.269,-1,1
557,0.72788,1.2713,-1,1
558,0.72916,1.274,-1,1
559,0.73045,1.2765,-1,1
560,0.73174,1.2785,-1,1
561,0.73302,1.2797,-1,1
562,0.73431,1.2811,-1,1
563,0.7356,1.2831,-1,1
564,0.7369,1.2857,-1,1
565,0.7382,1.2884,-1,1
566,0.7395,1.2904,-1,1
567,0.7408,1.2919,-1,1
568,0.7421,1.2933,-1,1
569,0.7434,1.2949,-1,1
570,0.74471,1.2973,-1,1
571,0.74602,1.3002,-1,1
572,0.74734,1.3029,-1,1
573,0.74865,1.3045,-1,1
574,0.74996,1.3058,-1,1
575,0.75127,1.3072,-1,1
576,0.75259,1.3094,-1,1
577,0.75392,1.3123,-1,1
578,0.75525,1.315,-1,1
579,0.75657,1.3172,-1,1
580,0.7579,1.3187,-1,1
581,0.75922,1.3201,-1,1
582,0.76056,1.3218,-1,1
583,0.76189,1.3244,-1,1
584,0.76323,1.3272,-1,1
585,0.76457,1.3297,-1,1
586,0.76591,1.3315,-1,1
587,0.76725,1.3331,-1,1
588,0.7686,1.3349,-1,1
589,0.76994,1.3374,-1,1
590,0.77129,1.3399,-1,1
591,0.77265,1.3424,-1,1
592,0.774,1.3447,-1,1
593,0.77536,1.3467,-1,1
594,0.77672,1.3485,-1,1
595,0.77808,1.3508,-1,1
596,0.77944,1.3535,-1,1
597,0.78081,1.3561,-1,1
598,0.78218,1.3587,-1,1
599,0.78355,1.3609,-1,1
600,0.78493,1.3632,-1,1
601,0.7863,1.3656,-1,1
602,0.78768,1.3683,-1,1
603,0.78907,1.3713,-1,1
604,0.79046,1.3743,-1,1
605,0.79184,1.3767,-1,1
606,0.79323,1.3792,-1,1
607,0.79463,1.3818,-1,1
608,0.79603,1.3848,-1,1
609,0.79743,1.388,-1,1
610,0.79884,1.391,-1,1
611,0.80024,1.3936,-1,1
612,0.80165,1.396,-1,1
613,0.80306,1.3986,-1,1
614,0.80448,1.4016,-1,1
615,0.80589,1.4047,-1,1
616,0.80731,1.4074,-1,1
617,0.80873,1.4097,-1,1
618,0.81015,1.4122,-1,1
619,0.81159,1.4153,-1,1
620,0.81303,1.4187,-1,1
621,0.81446,1.4218,-1,1
622,0.81589,1.4246,-1,1
623,0.81733,1.4274,-1,1
624,0.81878,1.4305,-1,1
625,0.82024,1.4343,-1,1
626,0.82169,1.4384,-1,1
627,0.82315,1.4423,-1,1
628,0.8246,1.4452,-1,1
629,0.82606,1.4475,-1,1
630,0.82753,1.4506,-1,1
631,0.82901,1.4551,-1,1
632,0.83049,1.4597,-1,1
633,0.83196,1.4632,-1,1
634,0.83343,1.4654,-1,1
635,0.83491,1.4675,-1,1
636,0.8364,1.4705,-1,1
637,0.83789,1.4747,-1,1
638,0.83939,1.4787,-1,1
639,0.84088,1.4821,-1,1
640,0.84237,1.4842,-1,1
641,0.84387,1.4861,-1,1
642,0.84538,1.4889,-1,1
643,0.84689,1.4927,-1,1
644,0.8484,1.4965,-1,1
645,0.8499,1.4995,-1,1
646,0.85141,1.5016,-1,1
647,0.85293,1.5035,-1,1
648,0.85446,1.5066,-1,1
649,0.85598,1.5097,-1,1
650,0.8575,1.5129,-1,1
651,0.85902,1.5154,-1,1
652,0.86055,1.5174,-1,1
653,0.86208,1.5194,-1,1
654,0.86362,1.5222,-1,1
655,0.86516,1.5251,-1,1
656,0.86669,1.5275,-1,1
657,0.86823,1.5296,-1,1
658,0.86977,1.5315,-1,1
659,0.87132,1.5339,-1,1
660,0.87286,1.5362,-1,1
661,0.87441,1.5382,-1,1
662,0.87595,1.5402,-1,1
663,0.87751,1.5422,-1,1
664,0.87906,1.5442,-1,1
665,0.88062,1.546,-1,1
666,0.88217,1.5478,-1,1
667,0.88372,1.5495,-1,1
668,0.88528,1.5509,-1,1
669,0.88685,1.5525,-1,1
670,0.88841,1.5545,-1,1
671,0.88997,1.5561,-1,1
672,0.89153,1.5572,-1,1
673,0.89309,1.5583,-1,1
674,0.89466,1.5594,-1,1
675,0.89623,1.5609,-1,1
676,0.89936,1.5625,-1,1
677,0.90093,1.5639,-1,1
678,0.9025,1.5654,-1,1
679,0.90407,1.5661,-1,1
680,0.90564,1.5667,-1,1
681,0.90722,1.5682,-1,1
682,0.90879,1.57,-1,1
683,0.91037,1.5713,-1,1
684,0.91195,1.5719,-1,1
685,0.91352,1.5722,-1,1
686,0.91509,1.5729,-1,1
687,0.91667,1.5739,-1,1
688,0.91825,1.5749,-1,1
689,0.91983,1.5758,-1,1
690,0.92141,1.5762,-1,1
691,0.92298,1.5763,-1,1
692,0.92456,1.5766,-1,1
693,0.92614,1.5773,-1,1
694,0.92773,1.5782,-1,1
695,0.92931,1.5788,-1,1
696,0.93088,1.5794,-1,1
697,0.93405,1.5801,-1,1
698,0.93564,1.5803,-1,1
699,0.93722,1.5804,-1,1
700,0.93879,1.5809,-1,1
701,0.94038,1.5818,-1,1
702,0.94196,1.5822,-1,1
703,0.94355,1.5822,-1,1
704,0.94513,1.5821,-1,1
705,0.94671,1.5826,-1,1
706,0.94829,1.583,-1,1
707,0.94988,1.5828,-1,1
708,0.95146,1.5823,-1,1
709,0.95304,1.5824,-1,1
710,0.95462,1.5826,-1,1
711,0.95621,1.5827,-1,1
712,0.95779,1.5829,-1,1
713,0.95937,1.5827,-1,1
714,0.96095,1.5822,-1,1
715,0.96253,1.5818,-1,1
716,0.96411,1.5819,-1,1
717,0.9657,1.5819,-1,1
718,0.96728,1.5818,-1,1
719,0.96885,1.5811,-1,1
720,0.97043,1.5807,-1,1
721,0.97201,1.5805,-1,1
722,0.97359,1.5801,-1,1
723,0.97517,1.5796,-1,1
724,0.97674,1.579,-1,1
725,0.97831,1.5784,-1,1
726,0.97989,1.5775,-1,1
727,0.98147,1.577,-1,1
728,0.98304,1.5762,-1,1
729,0.98461,1.5755,-1,1
730,0.98618,1.5746,-1,1
731,0.98775,1.5733,-1,1
732,0.98931,1.5719,-1,1
733,0.99088,1.5709,-1,1
734,0.99244,1.5699,-1,1
735,0.994,1.5689,-1,1
736,0.99557,1.5678,-1,1
737,0.99713,1.5659,-1,1
738,0.99868,1.564,-1,1
739,1.00023,1.5625,-1,1
740,1.00179,1.5611,-1,1
741,1.00334,1.5599,-1,1
742,1.0049,1.5585,-1,1
743,1.00644,1.5562,-1,1
744,1.00798,1.5541,-1,1
745,1.00952,1.5519,-1,1
746,1.01107,1.5499,-1,1
747,1.01261,1.5483,-1,1
748,1.01415,1.5467,-1,1
749,1.01568,1.5446,-1,1
750,1.0172,1.5418,-1,1
751,1.01874,1.5391,-1,1
752,1.02027,1.5368,-1,1
753,1.02179,1.5349,-1,1
754,1.02331,1.5327,-1,1
755,1.02482,1.5302,-1,1
756,1.02634,1.5271,-1,1
757,1.02785,1.5242,-1,1
758,1.02936,1.5215,-1,1
759,1.03087,1.519,-1,1
760,1.03237,1.5165,-1,1
761,1.03387,1.5138,-1,1
762,1.03537,1.5106,-1,1
763,1.03687,1.5076,-1,1
764,1.03836,1.5051,-1,1
765,1.03985,1.5022,-1,1
766,1.04133,1.4996,-1,1
767,1.04282,1.4966,-1,1
768,1.0443,1.4937,-1,1
769,1.04577,1.4905,-1,1
770,1.04724,1.4875,-1,1
771,1.04871,1.4842,-1,1
772,1.05018,1.4812,-1,1
773,1.05165,1.4785,-1,1
774,1.05311,1.4751,-1,1
775,1.05456,1.4716,-1,1
776,1.05601,1.4678,-1,1
777,1.05746,1.4644,-1,1
778,1.05891,1.4615,-1,1
779,1.06036,1.4588,-1,1
780,1.0618,1.4553,-1,1
781,1.06323,1.4512,-1,1
782,1.06466,1.4471,-1,1
783,1.06609,1.4435,-1,1
784,1.06752,1.4407,-1,1
785,1.06894,1.438,-1,1
786,1.07036,1.4345,-1,1
787,1.07177,1.4303,-1,1
788,1.07317,1.4259,-1,1
789,1.07458,1.4222,-1,1
790,1.07599,1.4193,-1,1
791,1.07739,1.4167,-1,1
792,1.07879,1.4134,-1,1
793,1.08018,1.4092,-1,1
794,1.08157,1.4048,-1,1
795,1.08295,1.401,-1,1
796,1.08434,1.398,-1,1
797,1.08572,1.3952,-1,1
798,1.08709,1.3919,-1,1
799,1.08846,1.3879,-1,1
800,1.08983,1.3839,-1,1
801,1.09119,1.3798,-1,1
802,1.09255,1.3761,-1,1
803,1.09391,1.3727,-1,1
804,1.09526,1.3696,-1,1
805,1.09662,1.3663,-1,1
806,1.09796,1.3626,-1,1
807,1.0993,1.3585,-1,1
808,1.10064,1.3545,-1,1
809,1.10197,1.3506,-1,1
810,1.1033,1.3472,-1,1
811,1.10463,1.3443,-1,1
812,1.10596,1.3413,-1,1
813,1.10728,1.3375,-1,1
814,1.10859,1.3332,-1,1
815,1.1099,1.3287,-1,1
816,1.11121,1.3247,-1,1
817,1.11252,1.3216,-1,1
818,1.11383,1.3187,-1,1
819,1.11513,1.3156,-1,1
820,1.11642,1.3113,-1,1
821,1.1177,1.3065,-1,1
822,1.11899,1.3024,-1,1
823,1.12027,1.2989,-1,1
824,1.12155,1.2957,-1,1
825,1.12283,1.2928,-1,1
826,1.1241,1.2889,-1,1
827,1.12536,1.2843,-1,1
828,1.12662,1.2798,-1,1
829,1.12788,1.2758,-1,1
830,1.12914,1.2725,-1,1
831,1.13039,1.2691,-1,1
832,1.13164,1.2652,-1,1
833,1.13288,1.2611,-1,1
834,1.13412,1.257,-1,1
835,1.13536,1.2526,-1,1
836,1.13659,1.2492,-1,1
837,1.13782,1.2458,-1,1
838,1.13904,1.2419,-1,1
