cnt,pos,speed,Dir,Force,
1,0,1.0019,-1,1
2,0.00102997,1.0069,-1,1
3,0.00206995,1.0127,-1,1
4,0.00311995,1.0188,-1,1
5,0.00416994,1.0245,-1,1
6,0.00522995,1.0296,-1,1
7,0.00627995,1.034,-1,1
8,0.00733995,1.0384,-1,1
9,0.00839996,1.0433,-1,1
10,0.00948,1.049,-1,1
11,0.01056,1.0559,-1,1
12,0.0116601,1.0627,-1,1
13,0.0127597,1.0687,-1,1
14,0.0138497,1.0734,-1,1
15,0.0149498,1.0778,-1,1
16,0.0160499,1.0827,-1,1
17,0.01717,1.0888,-1,1
18,0.0183001,1.0958,-1,1
19,0.0194297,1.103,-1,1
20,0.0205698,1.1091,-1,1
21,0.0216999,1.1141,-1,1
22,0.02284,1.1185,-1,1
23,0.0239897,1.1236,-1,1
24,0.0251498,1.13,-1,1
25,0.02632,1.1373,-1,1
26,0.0274901,1.1441,-1,1
27,0.0286698,1.15,-1,1
28,0.02985,1.155,-1,1
29,0.0310297,1.16,-1,1
30,0.0322199,1.1657,-1,1
31,0.0334201,1.172,-1,1
32,0.0346298,1.1788,-1,1
33,0.03584,1.1852,-1,1
34,0.0370598,1.191,-1,1
35,0.03828,1.1957,-1,1
36,0.0395098,1.2012,-1,1
37,0.04074,1.207,-1,1
38,0.0419798,1.2132,-1,1
39,0.0432301,1.2194,-1,1
40,0.0444798,1.2255,-1,1
41,0.0457301,1.2311,-1,1
42,0.0469999,1.2366,-1,1
43,0.0482597,1.2418,-1,1
44,0.04953,1.2471,-1,1
45,0.0508099,1.2532,-1,1
46,0.0520997,1.2591,-1,1
47,0.05339,1.265,-1,1
48,0.0546899,1.2708,-1,1
49,0.0572901,1.2765,-1,1
50,0.0585999,1.2824,-1,1
51,0.0599198,1.2887,-1,1
52,0.0612397,1.2951,-1,1
53,0.0625701,1.3014,-1,1
54,0.0639,1.3074,-1,1
55,0.0652399,1.3131,-1,1
56,0.0665798,1.3188,-1,1
57,0.0679297,1.3248,-1,1
58,0.0692897,1.331,-1,1
59,0.0706501,1.3366,-1,1
60,0.07201,1.342,-1,1
61,0.07338,1.3477,-1,1
62,0.0747499,1.3535,-1,1
63,0.0761399,1.3591,-1,1
64,0.0775299,1.365,-1,1
65,0.0789199,1.3704,-1,1
66,0.0803099,1.3751,-1,1
67,0.0816998,1.3795,-1,1
68,0.0831099,1.384,-1,1
69,0.0845199,1.3896,-1,1
70,0.0859299,1.3948,-1,1
71,0.0887699,1.3993,-1,1
72,0.0901999,1.4033,-1,1
73,0.0901999,1.4081,-1,1
74,0.09163,1.4123,-1,1
75,0.09307,1.4172,-1,1
76,0.0945101,1.4223,-1,1
77,0.0959501,1.4269,-1,1
78,0.0973997,1.4312,-1,1
79,0.0988498,1.4354,-1,1
80,0.10177,1.4396,-1,1
81,0.10323,1.4437,-1,1
82,0.1047,1.448,-1,1
83,0.10617,1.4519,-1,1
84,0.10764,1.4562,-1,1
85,0.10912,1.4599,-1,1
86,0.1106,1.4639,-1,1
87,0.11208,1.4679,-1,1
88,0.11357,1.4719,-1,1
89,0.11506,1.475,-1,1
90,0.11655,1.4782,-1,1
91,0.11804,1.4811,-1,1
92,0.11954,1.4839,-1,1
93,0.12104,1.4868,-1,1
94,0.12254,1.4892,-1,1
95,0.12404,1.4917,-1,1
96,0.12554,1.4939,-1,1
97,0.12705,1.4965,-1,1
98,0.12856,1.4986,-1,1
99,0.13007,1.5012,-1,1
100,0.13159,1.5034,-1,1
101,0.1331,1.5056,-1,1
102,0.13461,1.5075,-1,1
103,0.13613,1.5093,-1,1
104,0.13765,1.5115,-1,1
105,0.13918,1.5137,-1,1
106,0.1407,1.5156,-1,1
107,0.14222,1.517,-1,1
108,0.14374,1.5185,-1,1
109,0.14527,1.5199,-1,1
110,0.1468,1.5213,-1,1
111,0.14833,1.5231,-1,1
112,0.14986,1.5245,-1,1
113,0.15139,1.5258,-1,1
114,0.15292,1.527,-1,1
115,0.15446,1.5283,-1,1
116,0.156,1.5299,-1,1
117,0.15753,1.5314,-1,1
118,0.15907,1.5329,-1,1
119,0.16061,1.5341,-1,1
120,0.16216,1.5358,-1,1
121,0.1637,1.5371,-1,1
122,0.16525,1.5389,-1,1
123,0.1668,1.5407,-1,1
124,0.16835,1.5426,-1,1
125,0.1699,1.5445,-1,1
126,0.17146,1.5462,-1,1
127,0.17301,1.548,-1,1
128,0.17457,1.5499,-1,1
129,0.17613,1.552,-1,1
130,0.1777,1.554,-1,1
131,0.17926,1.5562,-1,1
132,0.18083,1.5581,-1,1
133,0.1824,1.5599,-1,1
134,0.18397,1.5624,-1,1
135,0.18712,1.5647,-1,1
136,0.1887,1.5666,-1,1
137,0.19027,1.5686,-1,1
138,0.19185,1.5708,-1,1
139,0.19344,1.5733,-1,1
140,0.19502,1.5755,-1,1
141,0.19661,1.5772,-1,1
142,0.19819,1.579,-1,1
143,0.19978,1.5817,-1,1
144,0.20137,1.5834,-1,1
145,0.20456,1.5849,-1,1
146,0.20615,1.5866,-1,1
147,0.20775,1.5887,-1,1
148,0.20775,1.5906,-1,1
149,0.20935,1.5919,-1,1
150,0.21095,1.5934,-1,1
151,0.21255,1.5949,-1,1
152,0.21415,1.5965,-1,1
153,0.21575,1.5977,-1,1
154,0.21896,1.5989,-1,1
155,0.22057,1.6001,-1,1
156,0.22217,1.6014,-1,1
157,0.22378,1.6026,-1,1
158,0.22539,1.6036,-1,1
159,0.22539,1.6045,-1,1
160,0.227,1.6051,-1,1
161,0.2286,1.606,-1,1
162,0.23021,1.6067,-1,1
163,0.23182,1.607,-1,1
164,0.23343,1.6074,-1,1
165,0.23504,1.6075,-1,1
166,0.23825,1.6078,-1,1
167,0.23986,1.6077,-1,1
168,0.24147,1.6078,-1,1
169,0.24308,1.6078,-1,1
170,0.24308,1.6074,-1,1
171,0.24468,1.6071,-1,1
172,0.24628,1.6069,-1,1
173,0.24789,1.6066,-1,1
174,0.2495,1.6062,-1,1
175,0.2511,1.6058,-1,1
176,0.25431,1.6054,-1,1
177,0.25591,1.605,-1,1
178,0.25751,1.6044,-1,1
179,0.25911,1.6037,-1,1
180,0.26071,1.6032,-1,1
181,0.26231,1.6028,-1,1
182,0.26392,1.6025,-1,1
183,0.26552,1.602,-1,1
184,0.26711,1.6013,-1,1
185,0.26871,1.6008,-1,1
186,0.27031,1.6003,-1,1
187,0.27191,1.6002,-1,1
188,0.27351,1.5999,-1,1
189,0.27511,1.5993,-1,1
190,0.2767,1.5986,-1,1
191,0.2783,1.5985,-1,1
192,0.2799,1.5986,-1,1
193,0.2815,1.5985,-1,1
194,0.28309,1.5978,-1,1
195,0.28468,1.5972,-1,1
196,0.28628,1.597,-1,1
197,0.28788,1.5968,-1,1
198,0.28948,1.5965,-1,1
199,0.29107,1.596,-1,1
200,0.29265,1.5955,-1,1
201,0.29424,1.5946,-1,1
202,0.29584,1.5941,-1,1
203,0.29744,1.5935,-1,1
204,0.29902,1.5927,-1,1
205,0.3006,1.5918,-1,1
206,0.30219,1.5907,-1,1
207,0.30378,1.5897,-1,1
208,0.30536,1.5886,-1,1
209,0.30694,1.5875,-1,1
210,0.30852,1.5866,-1,1
211,0.3101,1.5853,-1,1
212,0.31168,1.5837,-1,1
213,0.31326,1.5825,-1,1
214,0.31484,1.5816,-1,1
215,0.31641,1.5803,-1,1
216,0.31797,1.5787,-1,1
217,0.31955,1.577,-1,1
218,0.32112,1.5753,-1,1
219,0.32268,1.5741,-1,1
220,0.32425,1.5731,-1,1
221,0.32582,1.5717,-1,1
222,0.32738,1.5697,-1,1
223,0.32894,1.5674,-1,1
224,0.33049,1.5654,-1,1
225,0.33205,1.5642,-1,1
226,0.33361,1.5632,-1,1
227,0.33516,1.5613,-1,1
228,0.33671,1.5592,-1,1
229,0.33825,1.5569,-1,1
230,0.3398,1.5546,-1,1
231,0.34135,1.553,-1,1
232,0.34289,1.5515,-1,1
233,0.34443,1.5494,-1,1
234,0.34596,1.5471,-1,1
235,0.3475,1.5448,-1,1
236,0.34903,1.5425,-1,1
237,0.35057,1.5406,-1,1
238,0.3521,1.5387,-1,1
239,0.35362,1.5365,-1,1
240,0.35514,1.5342,-1,1
241,0.35666,1.5315,-1,1
242,0.35818,1.5291,-1,1
243,0.3597,1.527,-1,1
244,0.36121,1.5251,-1,1
245,0.36272,1.5225,-1,1
246,0.36423,1.5199,-1,1
247,0.36574,1.5172,-1,1
248,0.36724,1.5145,-1,1
249,0.36874,1.512,-1,1
250,0.37023,1.5093,-1,1
251,0.37173,1.5069,-1,1
252,0.37322,1.504,-1,1
253,0.37471,1.5004,-1,1
254,0.37767,1.4967,-1,1
255,0.37915,1.4936,-1,1
256,0.38063,1.4909,-1,1
257,0.38211,1.488,-1,1
258,0.38358,1.4847,-1,1
259,0.38504,1.481,-1,1
260,0.3865,1.477,-1,1
261,0.38796,1.4734,-1,1
262,0.38942,1.4705,-1,1
263,0.39088,1.4673,-1,1
264,0.39377,1.4636,-1,1
265,0.3952,1.4596,-1,1
266,0.39664,1.4554,-1,1
267,0.39809,1.4517,-1,1
268,0.39953,1.4486,-1,1
269,0.40095,1.4451,-1,1
270,0.40237,1.4414,-1,1
271,0.40378,1.4369,-1,1
272,0.4052,1.4324,-1,1
273,0.40662,1.4293,-1,1
274,0.40804,1.4269,-1,1
275,0.40944,1.4236,-1,1
276,0.41084,1.4193,-1,1
277,0.41224,1.4148,-1,1
278,0.41363,1.4107,-1,1
279,0.41503,1.4077,-1,1
280,0.41642,1.4047,-1,1
281,0.4178,1.4009,-1,1
282,0.42055,1.3965,-1,1
283,0.42193,1.3923,-1,1
284,0.4233,1.388,-1,1
285,0.42466,1.3841,-1,1
286,0.42602,1.38,-1,1
287,0.42737,1.3757,-1,1
288,0.42873,1.3713,-1,1
289,0.43008,1.3671,-1,1
290,0.43143,1.3632,-1,1
291,0.43277,1.3594,-1,1
292,0.4341,1.355,-1,1
293,0.43677,1.3507,-1,1
294,0.43677,1.3465,-1,1
295,0.4381,1.3424,-1,1
296,0.43942,1.3391,-1,1
297,0.44073,1.3353,-1,1
298,0.44204,1.3308,-1,1
299,0.44335,1.326,-1,1
300,0.44466,1.322,-1,1
301,0.44597,1.3182,-1,1
302,0.44727,1.3143,-1,1
303,0.44984,1.3096,-1,1
304,0.45113,1.3049,-1,1
305,0.45241,1.3007,-1,1
306,0.45369,1.2965,-1,1
307,0.45497,1.2927,-1,1
308,0.45624,1.2891,-1,1
309,0.4575,1.2847,-1,1
310,0.45876,1.2795,-1,1
311,0.46002,1.275,-1,1
312,0.46127,1.2715,-1,1
313,0.46253,1.2682,-1,1
314,0.46378,1.2646,-1,1
315,0.46502,1.2605,-1,1
316,0.46625,1.2556,-1,1
317,0.46748,1.2509,-1,1
318,0.46871,1.2466,-1,1
319,0.46994,1.2435,-1,1
320,0.47117,1.2403,-1,1
321,0.47238,1.2362,-1,1
322,0.47359,1.2314,-1,1
323,0.4748,1.2267,-1,1
324,0.476,1.2226,-1,1
325,0.47721,1.219,-1,1
326,0.47841,1.2155,-1,1
327,0.4796,1.2118,-1,1
328,0.48079,1.2074,-1,1
329,0.48197,1.2024,-1,1
330,0.48315,1.1979,-1,1
331,0.48433,1.1945,-1,1
332,0.4855,1.1913,-1,1
333,0.48667,1.1876,-1,1
334,0.48784,1.1832,-1,1
335,0.48899,1.1786,-1,1
336,0.49015,1.1744,-1,1
337,0.49131,1.1706,-1,1
338,0.49246,1.1674,-1,1
339,0.49361,1.1643,-1,1
340,0.49475,1.1604,-1,1
341,0.49588,1.1558,-1,1
342,0.49702,1.1514,-1,1
343,0.49815,1.1477,-1,1
344,0.49928,1.1446,-1,1
345,0.50041,1.1413,-1,1
346,0.50153,1.1377,-1,1
347,0.50264,1.1335,-1,1
348,0.50375,1.129,-1,1
349,0.50486,1.1248,-1,1
350,0.50596,1.1214,-1,1
351,0.50707,1.1183,-1,1
352,0.50817,1.115,-1,1
353,0.50926,1.1113,-1,1
354,0.51035,1.107,-1,1
355,0.51143,1.1028,-1,1
356,0.51252,1.099,-1,1
357,0.5136,1.0956,-1,1
358,0.51467,1.0924,-1,1
359,0.51575,1.0892,-1,1
360,0.51682,1.0854,-1,1
361,0.51788,1.0813,-1,1
362,0.51894,1.077,-1,1
363,0.51999,1.0732,-1,1
364,0.52105,1.0699,-1,1
365,0.5221,1.0667,-1,1
366,0.52315,1.0633,-1,1
367,0.52419,1.0598,-1,1
368,0.52523,1.0561,-1,1
369,0.52627,1.052,-1,1
370,0.5273,1.0481,-1,1
371,0.52833,1.0447,-1,1
372,0.52935,1.0417,-1,1
373,0.53038,1.0383,-1,1
374,0.5314,1.0348,-1,1
375,0.53241,1.0313,-1,1
376,0.53342,1.0275,-1,1
377,0.53443,1.0237,-1,1
378,0.53543,1.02,-1,1
379,0.53643,1.0166,-1,1
380,0.53743,1.0133,-1,1
381,0.53843,1.0101,-1,1
382,0.53942,1.0066,-1,1
383,0.54041,1.0034,-1,1
384,0.5414,0.9998,-1,1
385,0.54238,0.9962,-1,1
386,0.54335,0.9927,-1,1
387,0.54432,0.9894,-1,1
388,0.5453,0.9864,-1,1
389,0.54627,0.9834,-1,1
390,0.54723,0.9803,-1,1
391,0.5482,0.977,-1,1
392,0.54916,0.9739,-1,1
393,0.55012,0.9706,-1,1
394,0.55107,0.9674,-1,1
395,0.55202,0.9642,-1,1
396,0.55296,0.9613,-1,1
397,0.55391,0.9582,-1,1
398,0.55579,0.9549,-1,1
399,0.55673,0.9517,-1,1
400,0.55766,0.9483,-1,1
401,0.5586,0.9451,-1,1
402,0.55952,0.9416,-1,1
403,0.56044,0.938,-1,1
404,0.56136,0.9349,-1,1
405,0.56229,0.9321,-1,1
406,0.5632,0.929,-1,1
407,0.56412,0.9258,-1,1
408,0.56593,0.9223,-1,1
409,0.56684,0.919,-1,1
410,0.56684,0.9162,-1,1
411,0.56774,0.9134,-1,1
412,0.56864,0.9108,-1,1
413,0.56954,0.9086,-1,1
414,0.57044,0.9061,-1,1
415,0.57133,0.9034,-1,1
416,0.57222,0.9009,-1,1
417,0.57311,0.8985,-1,1
418,0.574,0.8963,-1,1
419,0.57576,0.894,-1,1
420,0.57664,0.8916,-1,1
421,0.57664,0.889,-1,1
422,0.57752,0.8868,-1,1
423,0.5784,0.8844,-1,1
424,0.57927,0.882,-1,1
425,0.58014,0.8794,-1,1
426,0.581,0.8774,-1,1
427,0.58187,0.8755,-1,1
428,0.58274,0.8734,-1,1
429,0.5836,0.8712,-1,1
430,0.58532,0.8691,-1,1
431,0.58618,0.867,-1,1
432,0.58703,0.8648,-1,1
433,0.58703,0.8627,-1,1
434,0.58789,0.861,-1,1
435,0.58874,0.8594,-1,1
436,0.58959,0.8575,-1,1
437,0.59044,0.8556,-1,1
438,0.59214,0.8543,-1,1
439,0.59298,0.8529,-1,1
440,0.59382,0.8513,-1,1
441,0.59467,0.8498,-1,1
442,0.59551,0.8485,-1,1
443,0.59635,0.8473,-1,1
444,0.59719,0.8459,-1,1
445,0.59803,0.8446,-1,1
446,0.59887,0.8434,-1,1
447,0.59971,0.8427,-1,1
448,0.60056,0.8419,-1,1
449,0.6014,0.8413,-1,1
450,0.60223,0.8408,-1,1
451,0.60307,0.8403,-1,1
452,0.60391,0.8399,-1,1
453,0.60475,0.8396,-1,1
454,0.60559,0.8396,-1,1
455,0.60643,0.8397,-1,1
456,0.60727,0.8397,-1,1
457,0.60811,0.8396,-1,1
458,0.60895,0.8397,-1,1
459,0.6098,0.8402,-1,1
460,0.61064,0.8407,-1,1
461,0.61148,0.8412,-1,1
462,0.61232,0.8416,-1,1
463,0.61317,0.8423,-1,1
464,0.61402,0.8432,-1,1
465,0.61487,0.8442,-1,1
466,0.61572,0.8451,-1,1
467,0.61657,0.8459,-1,1
468,0.61742,0.8468,-1,1
469,0.61828,0.8478,-1,1
470,0.61913,0.8491,-1,1
471,0.61999,0.8504,-1,1
472,0.62084,0.8516,-1,1
473,0.6217,0.8528,-1,1
474,0.62256,0.8541,-1,1
475,0.62343,0.8557,-1,1
476,0.6243,0.8575,-1,1
477,0.62516,0.8592,-1,1
478,0.62603,0.8606,-1,1
479,0.6269,0.8619,-1,1
480,0.62777,0.8634,-1,1
481,0.62864,0.8656,-1,1
482,0.62952,0.8679,-1,1
483,0.6304,0.8698,-1,1
484,0.63128,0.8715,-1,1
485,0.63216,0.8733,-1,1
486,0.63305,0.8754,-1,1
487,0.63394,0.8775,-1,1
488,0.63482,0.8797,-1,1
489,0.63571,0.8818,-1,1
490,0.63661,0.884,-1,1
491,0.63751,0.8865,-1,1
492,0.63931,0.8891,-1,1
493,0.64021,0.8917,-1,1
494,0.64112,0.8944,-1,1
495,0.64203,0.897,-1,1
496,0.64295,0.8997,-1,1
497,0.64386,0.9028,-1,1
498,0.64478,0.9061,-1,1
499,0.6457,0.9093,-1,1
500,0.64663,0.9124,-1,1
501,0.64756,0.9154,-1,1
502,0.6485,0.9185,-1,1
503,0.64943,0.9218,-1,1
504,0.65037,0.9246,-1,1
505,0.65131,0.9276,-1,1
506,0.65225,0.9308,-1,1
507,0.6532,0.934,-1,1
508,0.65416,0.9374,-1,1
509,0.65511,0.941,-1,1
510,0.65608,0.9447,-1,1
511,0.65704,0.9479,-1,1
512,0.65801,0.9513,-1,1
513,0.65898,0.9546,-1,1
514,0.65995,0.9584,-1,1
515,0.66093,0.962,-1,1
516,0.66191,0.966,-1,1
517,0.6629,0.97,-1,1
518,0.6639,0.974,-1,1
519,0.66489,0.9778,-1,1
520,0.66589,0.9814,-1,1
521,0.66689,0.9854,-1,1
522,0.6679,0.9891,-1,1
523,0.66891,0.9933,-1,1
524,0.66993,0.9977,-1,1
525,0.67095,1.0022,-1,1
526,0.67198,1.0063,-1,1
527,0.67301,1.0105,-1,1
528,0.67404,1.0144,-1,1
529,0.67508,1.0183,-1,1
530,0.67611,1.0225,-1,1
531,0.67716,1.0268,-1,1
532,0.67821,1.0315,-1,1
533,0.67927,1.0359,-1,1
534,0.68033,1.0404,-1,1
535,0.6814,1.0447,-1,1
536,0.68246,1.0485,-1,1
537,0.68353,1.0523,-1,1
538,0.68461,1.0565,-1,1
539,0.68569,1.0613,-1,1
540,0.68678,1.0663,-1,1
541,0.68787,1.0709,-1,1
542,0.68897,1.0752,-1,1
543,0.69006,1.0794,-1,1
544,0.69116,1.0833,-1,1
545,0.69227,1.0875,-1,1
546,0.69338,1.0921,-1,1
547,0.6945,1.097,-1,1
548,0.69562,1.102,-1,1
549,0.69675,1.1065,-1,1
550,0.69788,1.1104,-1,1
551,0.69901,1.1141,-1,1
552,0.70014,1.118,-1,1
553,0.70129,1.1225,-1,1
554,0.70244,1.1274,-1,1
555,0.70359,1.1324,-1,1
556,0.70475,1.1369,-1,1
557,0.70591,1.1407,-1,1
558,0.70706,1.1439,-1,1
559,0.70823,1.1477,-1,1
560,0.7094,1.1525,-1,1
561,0.71059,1.1577,-1,1
562,0.71177,1.1626,-1,1
563,0.71295,1.1666,-1,1
564,0.71414,1.1701,-1,1
565,0.71533,1.1733,-1,1
566,0.71652,1.1774,-1,1
567,0.71773,1.1821,-1,1
568,0.71894,1.1876,-1,1
569,0.72015,1.1924,-1,1
570,0.72137,1.1962,-1,1
571,0.72258,1.1993,-1,1
572,0.7238,1.2027,-1,1
573,0.72502,1.2069,-1,1
574,0.72626,1.212,-1,1
575,0.7275,1.2173,-1,1
576,0.72874,1.2221,-1,1
577,0.72998,1.2257,-1,1
578,0.73122,1.2287,-1,1
579,0.73247,1.232,-1,1
580,0.73373,1.2365,-1,1
581,0.735,1.2418,-1,1
582,0.73627,1.2473,-1,1
583,0.73754,1.252,-1,1
584,0.73881,1.2552,-1,1
585,0.74008,1.2583,-1,1
586,0.74136,1.2616,-1,1
587,0.74265,1.2667,-1,1
588,0.74395,1.2726,-1,1
589,0.74525,1.2779,-1,1
590,0.74655,1.2816,-1,1
591,0.74784,1.2847,-1,1
592,0.74915,1.2877,-1,1
593,0.75046,1.2922,-1,1
594,0.75179,1.2981,-1,1
595,0.75312,1.3037,-1,1
596,0.75444,1.3082,-1,1
597,0.75576,1.311,-1,1
598,0.75709,1.3137,-1,1
599,0.75843,1.3181,-1,1
600,0.75978,1.3238,-1,1
601,0.76114,1.3293,-1,1
602,0.76248,1.3336,-1,1
603,0.76383,1.3363,-1,1
604,0.76518,1.3389,-1,1
605,0.76655,1.3433,-1,1
606,0.76793,1.3489,-1,1
607,0.76931,1.3546,-1,1
608,0.77068,1.3587,-1,1
609,0.77205,1.3612,-1,1
610,0.77342,1.3638,-1,1
611,0.77482,1.3684,-1,1
612,0.77623,1.3745,-1,1
613,0.77763,1.3804,-1,1
614,0.77903,1.3844,-1,1
615,0.78042,1.3865,-1,1
616,0.78183,1.3892,-1,1
617,0.78325,1.3937,-1,1
618,0.78468,1.4,-1,1
619,0.78611,1.406,-1,1
620,0.78752,1.41,-1,1
621,0.78894,1.4122,-1,1
622,0.79038,1.4149,-1,1
623,0.79183,1.4192,-1,1
624,0.79328,1.4252,-1,1
625,0.79473,1.4306,-1,1
626,0.79617,1.4343,-1,1
627,0.79762,1.437,-1,1
628,0.79908,1.4401,-1,1
629,0.80055,1.4444,-1,1
630,0.80202,1.4494,-1,1
631,0.80349,1.4541,-1,1
632,0.80496,1.4577,-1,1
633,0.80643,1.4607,-1,1
634,0.80792,1.4641,-1,1
635,0.80941,1.4682,-1,1
636,0.81089,1.4725,-1,1
637,0.81238,1.4767,-1,1
638,0.81388,1.4799,-1,1
639,0.81689,1.4833,-1,1
640,0.81839,1.4868,-1,1
641,0.81989,1.4905,-1,1
642,0.8214,1.4946,-1,1
643,0.82292,1.4988,-1,1
644,0.82444,1.5021,-1,1
645,0.82596,1.5052,-1,1
646,0.82748,1.5085,-1,1
647,0.82901,1.5119,-1,1
648,0.83053,1.5153,-1,1
649,0.83207,1.5182,-1,1
650,0.83361,1.5215,-1,1
651,0.83668,1.525,-1,1
652,0.83822,1.5281,-1,1
653,0.83977,1.531,-1,1
654,0.84131,1.5337,-1,1
655,0.84286,1.5366,-1,1
656,0.84441,1.5398,-1,1
657,0.84597,1.543,-1,1
658,0.84753,1.546,-1,1
659,0.84909,1.5483,-1,1
660,0.85064,1.5499,-1,1
661,0.8522,1.5519,-1,1
662,0.85376,1.5542,-1,1
663,0.85533,1.5564,-1,1
664,0.8569,1.5585,-1,1
665,0.85846,1.5598,-1,1
666,0.86002,1.5609,-1,1
667,0.8616,1.5624,-1,1
668,0.86317,1.564,-1,1
669,0.86474,1.5656,-1,1
670,0.86631,1.5671,-1,1
671,0.86788,1.5677,-1,1
672,0.86945,1.5683,-1,1
673,0.87102,1.569,-1,1
674,0.8726,1.5697,-1,1
675,0.87417,1.5704,-1,1
676,0.87573,1.5709,-1,1
677,0.87731,1.571,-1,1
678,0.87888,1.5709,-1,1
679,0.88045,1.571,-1,1
680,0.88202,1.5712,-1,1
681,0.88359,1.5712,-1,1
682,0.88516,1.5707,-1,1
683,0.88673,1.5701,-1,1
684,0.8883,1.5696,-1,1
685,0.88986,1.5694,-1,1
686,0.89143,1.5691,-1,1
687,0.89299,1.5681,-1,1
688,0.89455,1.5669,-1,1
689,0.89611,1.5657,-1,1
690,0.89767,1.5647,-1,1
691,0.89923,1.564,-1,1
692,0.90079,1.5633,-1,1
693,0.90235,1.562,-1,1
694,0.9039,1.5604,-1,1
695,0.90545,1.559,-1,1
696,0.907,1.5576,-1,1
697,0.90855,1.5565,-1,1
698,0.9101,1.5552,-1,1
699,0.91165,1.5536,-1,1
700,0.91319,1.5519,-1,1
701,0.91473,1.5501,-1,1
702,0.91627,1.5484,-1,1
703,0.91782,1.5469,-1,1
704,0.91935,1.5452,-1,1
705,0.92089,1.5434,-1,1
706,0.92242,1.5414,-1,1
707,0.92395,1.5395,-1,1
708,0.92548,1.5374,-1,1
709,0.927,1.5356,-1,1
710,0.92853,1.5335,-1,1
711,0.93005,1.5315,-1,1
712,0.93156,1.5291,-1,1
713,0.93308,1.5266,-1,1
714,0.93459,1.5242,-1,1
715,0.9361,1.5219,-1,1
716,0.93761,1.5197,-1,1
717,0.93912,1.5173,-1,1
718,0.94063,1.515,-1,1
719,0.94213,1.5123,-1,1
720,0.94362,1.5097,-1,1
721,0.94512,1.5072,-1,1
722,0.94662,1.5052,-1,1
723,0.94811,1.5027,-1,1
724,0.9496,1.5004,-1,1
725,0.95108,1.4978,-1,1
726,0.95256,1.4952,-1,1
727,0.95405,1.4925,-1,1
728,0.95553,1.49,-1,1
729,0.957,1.4874,-1,1
730,0.95847,1.4851,-1,1
731,0.95994,1.4826,-1,1
732,0.96141,1.4795,-1,1
733,0.96288,1.477,-1,1
734,0.96434,1.474,-1,1
735,0.96726,1.4712,-1,1
736,0.96871,1.4686,-1,1
737,0.97017,1.4657,-1,1
738,0.97162,1.4627,-1,1
739,0.97162,1.4598,-1,1
740,0.97306,1.4571,-1,1
741,0.97451,1.4545,-1,1
742,0.97595,1.4518,-1,1
743,0.97738,1.4485,-1,1
744,0.98025,1.4454,-1,1
745,0.98167,1.4422,-1,1
746,0.98309,1.4388,-1,1
747,0.98451,1.4357,-1,1
748,0.98593,1.4326,-1,1
749,0.98735,1.4297,-1,1
750,0.98876,1.4263,-1,1
751,0.99017,1.4225,-1,1
752,0.99157,1.4188,-1,1
753,0.99298,1.4159,-1,1
754,0.99438,1.4131,-1,1
755,0.99577,1.4101,-1,1
756,0.99716,1.4067,-1,1
757,0.99854,1.403,-1,1
758,0.99993,1.3994,-1,1
759,1.00131,1.3961,-1,1
760,1.00269,1.3929,-1,1
761,1.00407,1.3898,-1,1
762,1.00543,1.3863,-1,1
763,1.0068,1.3824,-1,1
764,1.00816,1.3786,-1,1
765,1.00953,1.3755,-1,1
766,1.01088,1.3726,-1,1
767,1.01224,1.3696,-1,1
768,1.01359,1.366,-1,1
769,1.01493,1.3621,-1,1
770,1.01628,1.3586,-1,1
771,1.01762,1.3555,-1,1
772,1.01896,1.3526,-1,1
773,1.02029,1.3491,-1,1
774,1.02162,1.3454,-1,1
775,1.02294,1.3414,-1,1
776,1.02426,1.338,-1,1
777,1.02559,1.335,-1,1
778,1.0269,1.3319,-1,1
779,1.02821,1.3282,-1,1
780,1.02952,1.3241,-1,1
781,1.03082,1.3202,-1,1
782,1.03213,1.3168,-1,1
783,1.03343,1.3139,-1,1
784,1.03472,1.3109,-1,1
785,1.03601,1.3072,-1,1
786,1.03729,1.3026,-1,1
787,1.03857,1.2983,-1,1
788,1.03985,1.295,-1,1
789,1.04114,1.2923,-1,1
790,1.04241,1.2895,-1,1
791,1.04368,1.2855,-1,1
792,1.04493,1.2808,-1,1
793,1.04619,1.2762,-1,1
794,1.04745,1.2725,-1,1
795,1.04871,1.2699,-1,1
796,1.04997,1.2675,-1,1
797,1.05121,1.2641,-1,1
798,1.05245,1.2594,-1,1
799,1.05368,1.2547,-1,1
800,1.05492,1.2506,-1,1
801,1.05616,1.2478,-1,1
802,1.05739,1.2456,-1,1
803,1.05862,1.2429,-1,1
804,1.05984,1.2388,-1,1
805,1.06105,1.2338,-1,1
806,1.06226,1.2294,-1,1
807,1.06348,1.2263,-1,1
808,1.06469,1.2243,-1,1
809,1.0659,1.2219,-1,1
810,1.0671,1.2182,-1,1
811,1.06829,1.2138,-1,1
812,1.06948,1.2091,-1,1
813,1.07067,1.2053,-1,1
814,1.07187,1.2031,-1,1
815,1.07306,1.2013,-1,1
816,1.07424,1.1982,-1,1
817,1.07541,1.1937,-1,1
818,1.07658,1.1893,-1,1
819,1.07775,1.1855,-1,1
820,1.07892,1.1829,-1,1
821,1.0801,1.1807,-1,1
822,1.08126,1.1782,-1,1
823,1.08241,1.1745,-1,1
824,1.08356,1.1697,-1,1
825,1.08471,1.1649,-1,1
826,1.08586,1.1619,-1,1
827,1.08701,1.1599,-1,1
828,1.08816,1.1575,-1,1
829,1.08929,1.1533,-1,1
830,1.09042,1.1486,-1,1
831,1.09155,1.144,-1,1
832,1.09267,1.1401,-1,1
833,1.0938,1.1374,-1,1
834,1.09493,1.1355,-1,1
835,1.09605,1.1335,-1,1
836,1.09717,1.13,-1,1
837,1.09828,1.125,-1,1
838,1.09938,1.1206,-1,1
839,1.10159,1.1184,-1,1
840,1.10269,1.1165,-1,1
