cnt,pos,speed,Dir,Force,
1,0,1.3989,-1,1
2,0.00141001,1.4013,-1,1
3,0.00283003,1.404,-1,1
4,0.00426006,1.4071,-1,1
5,0.00568008,1.4102,-1,1
6,0.00710011,1.4126,-1,1
7,0.00851011,1.4142,-1,1
8,0.00992966,1.4154,-1,1
9,0.0113597,1.4168,-1,1
10,0.0127897,1.4191,-1,1
11,0.0142198,1.4212,-1,1
12,0.0156298,1.4219,-1,1
13,0.0170498,1.4217,-1,1
14,0.0184698,1.4214,-1,1
15,0.0198998,1.4223,-1,1
16,0.0213399,1.424,-1,1
17,0.0227599,1.4253,-1,1
18,0.0241799,1.4253,-1,1
19,0.0255899,1.424,-1,1
20,0.02702,1.423,-1,1
21,0.02845,1.4234,-1,1
22,0.02988,1.4248,-1,1
23,0.0313001,1.4253,-1,1
24,0.0327101,1.4246,-1,1
25,0.0341301,1.4228,-1,1
26,0.0355501,1.4216,-1,1
27,0.0369797,1.4213,-1,1
28,0.0383997,1.421,-1,1
29,0.0398097,1.421,-1,1
30,0.0412197,1.4196,-1,1
31,0.0426297,1.4174,-1,1
32,0.0440497,1.4158,-1,1
33,0.0468698,1.4147,-1,1
34,0.0482798,1.4137,-1,1
35,0.0496798,1.4125,-1,1
36,0.0510798,1.4109,-1,1
37,0.0524898,1.4093,-1,1
38,0.0538998,1.4083,-1,1
39,0.0552998,1.4066,-1,1
40,0.0566897,1.405,-1,1
41,0.0580797,1.4033,-1,1
42,0.0594797,1.4016,-1,1
43,0.0608797,1.4001,-1,1
44,0.0622697,1.3979,-1,1
45,0.0650301,1.3957,-1,1
46,0.0664101,1.3935,-1,1
47,0.0678,1.3914,-1,1
48,0.06918,1.3892,-1,1
49,0.07056,1.387,-1,1
50,0.0719299,1.3845,-1,1
51,0.0732899,1.3816,-1,1
52,0.0746598,1.3787,-1,1
53,0.0760298,1.3765,-1,1
54,0.0787597,1.3742,-1,1
55,0.0801101,1.3712,-1,1
56,0.08146,1.3675,-1,1
57,0.0828099,1.3641,-1,1
58,0.0841599,1.3615,-1,1
59,0.0855198,1.3592,-1,1
60,0.0868597,1.3565,-1,1
61,0.0881901,1.3532,-1,1
62,0.08952,1.3491,-1,1
63,0.0908499,1.3447,-1,1
64,0.0921798,1.3422,-1,1
65,0.0935097,1.3403,-1,1
66,0.09483,1.3379,-1,1
67,0.0961499,1.3338,-1,1
68,0.0974498,1.3287,-1,1
69,0.0987601,1.3243,-1,1
70,0.10007,1.3213,-1,1
71,0.10138,1.3188,-1,1
72,0.10267,1.3148,-1,1
73,0.10524,1.3103,-1,1
74,0.10653,1.3052,-1,1
75,0.10781,1.3005,-1,1
76,0.10909,1.2963,-1,1
77,0.11036,1.292,-1,1
78,0.11162,1.2877,-1,1
79,0.11288,1.2827,-1,1
80,0.11414,1.2774,-1,1
81,0.1154,1.2725,-1,1
82,0.11665,1.2688,-1,1
83,0.11789,1.2645,-1,1
84,0.11912,1.2589,-1,1
85,0.12158,1.2536,-1,1
86,0.12158,1.2487,-1,1
87,0.12281,1.2445,-1,1
88,0.12404,1.2408,-1,1
89,0.12525,1.2361,-1,1
90,0.12645,1.2307,-1,1
91,0.12765,1.2248,-1,1
92,0.12885,1.2196,-1,1
93,0.13005,1.2152,-1,1
94,0.13125,1.2111,-1,1
95,0.13361,1.2057,-1,1
96,0.13478,1.1992,-1,1
97,0.13478,1.1931,-1,1
98,0.13594,1.187,-1,1
99,0.13711,1.1826,-1,1
100,0.13828,1.1792,-1,1
101,0.13944,1.1756,-1,1
102,0.14059,1.1708,-1,1
103,0.14286,1.1642,-1,1
104,0.144,1.1592,-1,1
105,0.14514,1.1557,-1,1
106,0.14628,1.1528,-1,1
107,0.1474,1.1487,-1,1
108,0.14851,1.1432,-1,1
109,0.14961,1.1366,-1,1
110,0.15072,1.13,-1,1
111,0.15183,1.1248,-1,1
112,0.15294,1.1209,-1,1
113,0.15404,1.1164,-1,1
114,0.1562,1.11,-1,1
115,0.15727,1.1026,-1,1
116,0.15834,1.0959,-1,1
117,0.15942,1.0914,-1,1
118,0.1605,1.0883,-1,1
119,0.16157,1.0848,-1,1
120,0.16262,1.0795,-1,1
121,0.16365,1.0722,-1,1
122,0.16469,1.0643,-1,1
123,0.16572,1.0592,-1,1
124,0.16676,1.056,-1,1
125,0.16781,1.0537,-1,1
126,0.16884,1.0504,-1,1
127,0.16987,1.0448,-1,1
128,0.17087,1.0376,-1,1
129,0.17187,1.0306,-1,1
130,0.17287,1.0252,-1,1
131,0.17387,1.0216,-1,1
132,0.17488,1.0191,-1,1
133,0.17588,1.016,-1,1
134,0.17688,1.0114,-1,1
135,0.17786,1.0053,-1,1
136,0.17979,0.998,-1,1
137,0.18075,0.9917,-1,1
138,0.18172,0.9875,-1,1
139,0.18269,0.9847,-1,1
140,0.18366,0.9819,-1,1
141,0.18462,0.9778,-1,1
142,0.18557,0.9721,-1,1
143,0.1865,0.9653,-1,1
144,0.18743,0.9584,-1,1
145,0.18929,0.953,-1,1
146,0.19022,0.9499,-1,1
147,0.19115,0.9473,-1,1
148,0.19208,0.9432,-1,1
149,0.193,0.938,-1,1
150,0.1939,0.9316,-1,1
151,0.1948,0.9252,-1,1
152,0.19569,0.9195,-1,1
153,0.19659,0.9156,-1,1
154,0.19749,0.9132,-1,1
155,0.19839,0.9101,-1,1
156,0.19928,0.906,-1,1
157,0.20016,0.9006,-1,1
158,0.20103,0.8952,-1,1
159,0.2019,0.8903,-1,1
160,0.20276,0.8864,-1,1
161,0.20363,0.8835,-1,1
162,0.2045,0.8806,-1,1
163,0.20535,0.8768,-1,1
164,0.20621,0.8722,-1,1
165,0.20706,0.867,-1,1
166,0.20875,0.8621,-1,1
167,0.20959,0.8579,-1,1
168,0.21042,0.8543,-1,1
169,0.21126,0.8506,-1,1
170,0.21208,0.8469,-1,1
171,0.21291,0.8429,-1,1
172,0.21374,0.839,-1,1
173,0.21456,0.8354,-1,1
174,0.21538,0.832,-1,1
175,0.2162,0.8291,-1,1
176,0.21701,0.8256,-1,1
177,0.21782,0.8224,-1,1
178,0.21943,0.8196,-1,1
179,0.22024,0.8172,-1,1
180,0.22024,0.8151,-1,1
181,0.22105,0.8132,-1,1
182,0.22185,0.8113,-1,1
183,0.22265,0.809,-1,1
184,0.22345,0.8067,-1,1
185,0.22425,0.8044,-1,1
186,0.22584,0.8031,-1,1
187,0.22663,0.8018,-1,1
188,0.22742,0.8003,-1,1
189,0.22821,0.7985,-1,1
190,0.229,0.7966,-1,1
191,0.22979,0.7948,-1,1
192,0.23058,0.7933,-1,1
193,0.23137,0.7921,-1,1
194,0.23215,0.7908,-1,1
195,0.23294,0.7896,-1,1
196,0.23372,0.7884,-1,1
197,0.2345,0.7875,-1,1
198,0.23529,0.7868,-1,1
199,0.23686,0.7864,-1,1
200,0.23764,0.7859,-1,1
201,0.23843,0.7853,-1,1
202,0.23921,0.7845,-1,1
203,0.23999,0.7839,-1,1
204,0.24078,0.7836,-1,1
205,0.24156,0.7835,-1,1
206,0.24234,0.7834,-1,1
207,0.24312,0.7833,-1,1
208,0.24391,0.7834,-1,1
209,0.24469,0.7835,-1,1
210,0.24548,0.7838,-1,1
211,0.24627,0.7841,-1,1
212,0.24705,0.7844,-1,1
213,0.24784,0.7847,-1,1
214,0.24863,0.7851,-1,1
215,0.24942,0.7859,-1,1
216,0.25021,0.7866,-1,1
217,0.25099,0.7872,-1,1
218,0.25179,0.7877,-1,1
219,0.25258,0.7884,-1,1
220,0.25337,0.7895,-1,1
221,0.25417,0.7906,-1,1
222,0.25576,0.7915,-1,1
223,0.25576,0.7923,-1,1
224,0.25656,0.7933,-1,1
225,0.25735,0.7944,-1,1
226,0.25896,0.796,-1,1
227,0.25977,0.7978,-1,1
228,0.26058,0.7995,-1,1
229,0.26138,0.8009,-1,1
230,0.26219,0.802,-1,1
231,0.263,0.8032,-1,1
232,0.26382,0.8052,-1,1
233,0.26463,0.8074,-1,1
234,0.26545,0.8094,-1,1
235,0.26627,0.8112,-1,1
236,0.26709,0.813,-1,1
237,0.26792,0.8149,-1,1
238,0.26875,0.8171,-1,1
239,0.26958,0.8194,-1,1
240,0.27124,0.8216,-1,1
241,0.27207,0.8241,-1,1
242,0.27207,0.8263,-1,1
243,0.27291,0.8288,-1,1
244,0.27375,0.8312,-1,1
245,0.27459,0.8336,-1,1
246,0.27544,0.8357,-1,1
247,0.27628,0.8377,-1,1
248,0.27799,0.84,-1,1
249,0.27884,0.8424,-1,1
250,0.27969,0.8447,-1,1
251,0.28055,0.847,-1,1
252,0.28141,0.8495,-1,1
253,0.28228,0.8519,-1,1
254,0.28315,0.8545,-1,1
255,0.28401,0.8569,-1,1
256,0.28488,0.8594,-1,1
257,0.28575,0.862,-1,1
258,0.28751,0.8647,-1,1
259,0.28839,0.8673,-1,1
260,0.28927,0.8701,-1,1
261,0.29016,0.8728,-1,1
262,0.29104,0.8755,-1,1
263,0.29194,0.8782,-1,1
264,0.29283,0.8808,-1,1
265,0.29372,0.8835,-1,1
266,0.29462,0.8862,-1,1
267,0.29552,0.8889,-1,1
268,0.29642,0.8914,-1,1
269,0.29733,0.8941,-1,1
270,0.29824,0.8966,-1,1
271,0.29914,0.8989,-1,1
272,0.30006,0.9012,-1,1
273,0.30097,0.9037,-1,1
274,0.30189,0.9063,-1,1
275,0.30281,0.9088,-1,1
276,0.30373,0.9114,-1,1
277,0.30466,0.9139,-1,1
278,0.30559,0.9164,-1,1
279,0.30652,0.919,-1,1
280,0.30745,0.9218,-1,1
281,0.30933,0.9248,-1,1
282,0.31027,0.9276,-1,1
283,0.31121,0.9304,-1,1
284,0.31216,0.9332,-1,1
285,0.31311,0.9362,-1,1
286,0.31406,0.9394,-1,1
287,0.31502,0.9426,-1,1
288,0.31598,0.9455,-1,1
289,0.31693,0.9481,-1,1
290,0.3179,0.9507,-1,1
291,0.31886,0.9532,-1,1
292,0.3208,0.9564,-1,1
293,0.32177,0.9594,-1,1
294,0.32275,0.9624,-1,1
295,0.32373,0.9653,-1,1
296,0.32471,0.9679,-1,1
297,0.32569,0.9706,-1,1
298,0.32668,0.9733,-1,1
299,0.32766,0.976,-1,1
300,0.32865,0.979,-1,1
301,0.32965,0.9821,-1,1
302,0.33065,0.9847,-1,1
303,0.33164,0.9871,-1,1
304,0.33264,0.9894,-1,1
305,0.33364,0.9916,-1,1
306,0.33465,0.9939,-1,1
307,0.33565,0.9959,-1,1
308,0.33666,0.9981,-1,1
309,0.33766,1.0003,-1,1
310,0.33868,1.0031,-1,1
311,0.34071,1.0054,-1,1
312,0.34173,1.0071,-1,1
313,0.34275,1.0091,-1,1
314,0.34377,1.011,-1,1
315,0.34479,1.0133,-1,1
316,0.34582,1.0156,-1,1
317,0.34685,1.0183,-1,1
318,0.34788,1.0207,-1,1
319,0.34891,1.023,-1,1
320,0.34994,1.0243,-1,1
321,0.35097,1.0258,-1,1
322,0.35201,1.0277,-1,1
323,0.35304,1.0301,-1,1
324,0.35409,1.0327,-1,1
325,0.35513,1.0347,-1,1
326,0.35617,1.0364,-1,1
327,0.35722,1.0377,-1,1
328,0.35826,1.0391,-1,1
329,0.35931,1.0407,-1,1
330,0.36036,1.0428,-1,1
331,0.36141,1.0452,-1,1
332,0.36247,1.0475,-1,1
333,0.36458,1.0486,-1,1
334,0.36563,1.0495,-1,1
335,0.36669,1.0506,-1,1
336,0.36774,1.0521,-1,1
337,0.36881,1.0539,-1,1
338,0.36987,1.0559,-1,1
339,0.37094,1.0577,-1,1
340,0.372,1.059,-1,1
341,0.37306,1.0595,-1,1
342,0.37412,1.0599,-1,1
343,0.37519,1.0611,-1,1
344,0.37733,1.063,-1,1
345,0.3784,1.0649,-1,1
346,0.37947,1.0662,-1,1
347,0.38054,1.0667,-1,1
348,0.3816,1.0665,-1,1
349,0.38266,1.066,-1,1
350,0.38372,1.0654,-1,1
351,0.38478,1.0661,-1,1
352,0.38586,1.0672,-1,1
353,0.38693,1.0679,-1,1
354,0.388,1.0676,-1,1
355,0.38907,1.0668,-1,1
356,0.39013,1.0661,-1,1
357,0.3912,1.0662,-1,1
358,0.39227,1.067,-1,1
359,0.39335,1.0688,-1,1
360,0.39443,1.0707,-1,1
361,0.3955,1.0716,-1,1
362,0.39658,1.0719,-1,1
363,0.39765,1.0716,-1,1
364,0.39872,1.0723,-1,1
365,0.3998,1.0739,-1,1
366,0.40196,1.0757,-1,1
367,0.40304,1.077,-1,1
368,0.40304,1.0777,-1,1
369,0.40519,1.0776,-1,1
370,0.40519,1.0773,-1,1
371,0.40735,1.0774,-1,1
372,0.40843,1.0778,-1,1
373,0.40951,1.0791,-1,1
374,0.41059,1.0797,-1,1
375,0.41167,1.0796,-1,1
376,0.41275,1.079,-1,1
377,0.41382,1.0785,-1,1
378,0.4149,1.0784,-1,1
379,0.41598,1.0785,-1,1
380,0.41706,1.0789,-1,1
381,0.41814,1.0793,-1,1
382,0.4203,1.079,-1,1
383,0.42137,1.078,-1,1
384,0.42245,1.077,-1,1
385,0.42352,1.0766,-1,1
386,0.4246,1.0769,-1,1
387,0.42568,1.0775,-1,1
388,0.42676,1.0776,-1,1
389,0.42784,1.0773,-1,1
390,0.42891,1.0766,-1,1
391,0.42998,1.0756,-1,1
392,0.43105,1.0753,-1,1
393,0.43213,1.0757,-1,1
394,0.43321,1.0763,-1,1
395,0.43429,1.0764,-1,1
396,0.43536,1.0757,-1,1
397,0.43643,1.0747,-1,1
398,0.4375,1.0739,-1,1
399,0.43857,1.0736,-1,1
400,0.43965,1.0738,-1,1
401,0.44072,1.074,-1,1
402,0.44179,1.0739,-1,1
403,0.44393,1.073,-1,1
404,0.445,1.0717,-1,1
405,0.44607,1.0707,-1,1
406,0.44714,1.0705,-1,1
407,0.44821,1.0707,-1,1
408,0.44928,1.0706,-1,1
409,0.45035,1.0701,-1,1
410,0.45141,1.0691,-1,1
411,0.45247,1.068,-1,1
412,0.45354,1.0672,-1,1
413,0.45567,1.0672,-1,1
414,0.45674,1.0672,-1,1
415,0.4578,1.0671,-1,1
416,0.45886,1.0663,-1,1
417,0.45992,1.0649,-1,1
418,0.46098,1.0641,-1,1
419,0.46204,1.0635,-1,1
420,0.46311,1.0635,-1,1
421,0.46417,1.0636,-1,1
422,0.46524,1.0635,-1,1
423,0.4663,1.0628,-1,1
424,0.46735,1.0619,-1,1
425,0.46841,1.0609,-1,1
426,0.46947,1.0605,-1,1
427,0.47053,1.0604,-1,1
428,0.47159,1.0605,-1,1
429,0.47265,1.0601,-1,1
430,0.47371,1.0591,-1,1
431,0.47476,1.0582,-1,1
432,0.47687,1.0573,-1,1
433,0.47793,1.0567,-1,1
434,0.47898,1.0565,-1,1
435,0.48004,1.0567,-1,1
436,0.48109,1.0564,-1,1
437,0.48215,1.0561,-1,1
438,0.4832,1.0549,-1,1
439,0.48425,1.0544,-1,1
440,0.4853,1.0539,-1,1
441,0.48635,1.0534,-1,1
442,0.4874,1.0532,-1,1
443,0.48951,1.0528,-1,1
444,0.49055,1.0521,-1,1
445,0.4916,1.0511,-1,1
446,0.49265,1.0504,-1,1
447,0.4937,1.0496,-1,1
448,0.49475,1.0495,-1,1
449,0.49579,1.0492,-1,1
450,0.49684,1.049,-1,1
451,0.49789,1.0486,-1,1
452,0.49893,1.0478,-1,1
453,0.49998,1.0474,-1,1
454,0.50103,1.0472,-1,1
455,0.50207,1.0469,-1,1
456,0.50312,1.0467,-1,1
457,0.50416,1.0465,-1,1
458,0.50521,1.0461,-1,1
459,0.5073,1.0456,-1,1
460,0.5073,1.0453,-1,1
461,0.50939,1.0453,-1,1
462,0.50939,1.0455,-1,1
463,0.51148,1.0455,-1,1
464,0.51253,1.0456,-1,1
465,0.51358,1.0456,-1,1
466,0.51462,1.0454,-1,1
467,0.51566,1.0453,-1,1
468,0.51671,1.0455,-1,1
469,0.51776,1.0462,-1,1
470,0.51882,1.0469,-1,1
471,0.51987,1.0475,-1,1
472,0.52091,1.0476,-1,1
473,0.52196,1.0477,-1,1
474,0.52301,1.048,-1,1
475,0.52406,1.0491,-1,1
476,0.52512,1.0505,-1,1
477,0.52724,1.0521,-1,1
478,0.5283,1.0532,-1,1
479,0.5283,1.0535,-1,1
480,0.52935,1.0537,-1,1
481,0.5304,1.0539,-1,1
482,0.53146,1.0551,-1,1
483,0.53253,1.0566,-1,1
484,0.53359,1.0584,-1,1
485,0.53573,1.0595,-1,1
486,0.53679,1.0599,-1,1
487,0.53786,1.0603,-1,1
488,0.53892,1.0613,-1,1
489,0.53999,1.063,-1,1
490,0.54107,1.0653,-1,1
491,0.54215,1.0678,-1,1
492,0.54323,1.0697,-1,1
493,0.5443,1.071,-1,1
494,0.54538,1.0717,-1,1
495,0.54646,1.073,-1,1
496,0.54863,1.0755,-1,1
497,0.54972,1.0779,-1,1
498,0.55081,1.0801,-1,1
499,0.5519,1.0822,-1,1
500,0.55299,1.0837,-1,1
501,0.55409,1.0851,-1,1
502,0.55518,1.087,-1,1
503,0.55628,1.0894,-1,1
504,0.55739,1.0924,-1,1
505,0.55849,1.0951,-1,1
506,0.5596,1.0973,-1,1
507,0.56071,1.0994,-1,1
508,0.56182,1.1014,-1,1
509,0.56294,1.1035,-1,1
510,0.56405,1.106,-1,1
511,0.56518,1.1091,-1,1
512,0.5663,1.1123,-1,1
513,0.56743,1.1152,-1,1
514,0.56856,1.1176,-1,1
515,0.57082,1.1201,-1,1
516,0.57196,1.1231,-1,1
517,0.57311,1.1268,-1,1
518,0.57426,1.131,-1,1
519,0.57541,1.1351,-1,1
520,0.57656,1.1385,-1,1
521,0.57772,1.1414,-1,1
522,0.57887,1.1442,-1,1
523,0.58004,1.1479,-1,1
524,0.58121,1.1523,-1,1
525,0.58239,1.1568,-1,1
526,0.58357,1.1606,-1,1
527,0.58475,1.1642,-1,1
528,0.58593,1.1678,-1,1
529,0.58831,1.1719,-1,1
530,0.58951,1.177,-1,1
531,0.59072,1.182,-1,1
532,0.59072,1.1869,-1,1
533,0.59192,1.1909,-1,1
534,0.59313,1.1946,-1,1
535,0.59435,1.1988,-1,1
536,0.59679,1.2037,-1,1
537,0.59802,1.2086,-1,1
538,0.59926,1.2134,-1,1
539,0.6005,1.2179,-1,1
540,0.60175,1.2223,-1,1
541,0.603,1.2269,-1,1
542,0.60425,1.2318,-1,1
543,0.60551,1.2373,-1,1
544,0.60678,1.2431,-1,1
545,0.60805,1.2485,-1,1
546,0.60933,1.254,-1,1
547,0.6119,1.2596,-1,1
548,0.61319,1.2654,-1,1
549,0.61449,1.2716,-1,1
550,0.6158,1.2778,-1,1
551,0.61712,1.2841,-1,1
552,0.61843,1.2902,-1,1
553,0.61975,1.2961,-1,1
554,0.62108,1.3022,-1,1
555,0.62242,1.3087,-1,1
556,0.62376,1.315,-1,1
557,0.62511,1.3213,-1,1
558,0.62646,1.3271,-1,1
559,0.62782,1.3325,-1,1
560,0.62918,1.338,-1,1
561,0.63056,1.3442,-1,1
562,0.63194,1.351,-1,1
563,0.63333,1.3578,-1,1
564,0.63472,1.3639,-1,1
565,0.63611,1.3694,-1,1
566,0.63751,1.3751,-1,1
567,0.63892,1.3813,-1,1
568,0.64035,1.3889,-1,1
569,0.6432,1.3962,-1,1
570,0.64463,1.403,-1,1
571,0.64607,1.4097,-1,1
572,0.64752,1.4163,-1,1
573,0.64898,1.4234,-1,1
574,0.65045,1.4309,-1,1
575,0.65192,1.4385,-1,1
576,0.65339,1.4454,-1,1
577,0.65486,1.4518,-1,1
578,0.65635,1.4578,-1,1
579,0.65784,1.4643,-1,1
580,0.65934,1.4712,-1,1
581,0.66236,1.4778,-1,1
582,0.66236,1.4843,-1,1
583,0.66387,1.4905,-1,1
584,0.66539,1.4961,-1,1
585,0.66692,1.502,-1,1
586,0.66845,1.5082,-1,1
587,0.66999,1.5142,-1,1
588,0.67153,1.5197,-1,1
589,0.67308,1.526,-1,1
590,0.67463,1.5318,-1,1
591,0.67776,1.5374,-1,1
592,0.67933,1.5429,-1,1
593,0.6809,1.5482,-1,1
594,0.68248,1.554,-1,1
595,0.68406,1.5598,-1,1
596,0.68565,1.5655,-1,1
597,0.68725,1.5713,-1,1
598,0.68885,1.577,-1,1
599,0.69045,1.5818,-1,1
600,0.69206,1.5869,-1,1
601,0.69529,1.5922,-1,1
602,0.69691,1.5974,-1,1
603,0.69854,1.6027,-1,1
604,0.70016,1.6076,-1,1
605,0.7018,1.6123,-1,1
606,0.70343,1.6171,-1,1
607,0.70508,1.6219,-1,1
608,0.70672,1.6264,-1,1
609,0.70837,1.6308,-1,1
610,0.71002,1.6349,-1,1
611,0.71168,1.6388,-1,1
612,0.71333,1.6424,-1,1
613,0.715,1.6458,-1,1
614,0.71666,1.6493,-1,1
615,0.71833,1.6527,-1,1
616,0.72,1.6561,-1,1
617,0.72167,1.6594,-1,1
618,0.72335,1.6624,-1,1
619,0.72502,1.6653,-1,1
620,0.7267,1.6682,-1,1
621,0.72839,1.6711,-1,1
622,0.73007,1.674,-1,1
623,0.73176,1.6767,-1,1
624,0.73345,1.6794,-1,1
625,0.73514,1.6822,-1,1
626,0.73684,1.6846,-1,1
627,0.73854,1.6868,-1,1
628,0.74024,1.6893,-1,1
629,0.74194,1.6916,-1,1
630,0.74364,1.6942,-1,1
631,0.74705,1.6967,-1,1
632,0.74876,1.6988,-1,1
633,0.75047,1.701,-1,1
634,0.75218,1.7029,-1,1
635,0.75389,1.7047,-1,1
636,0.75561,1.7068,-1,1
637,0.75732,1.7088,-1,1
638,0.75904,1.7107,-1,1
639,0.76076,1.7125,-1,1
640,0.76248,1.7139,-1,1
641,0.7642,1.7151,-1,1
642,0.76592,1.7164,-1,1
643,0.76765,1.718,-1,1
644,0.76937,1.7195,-1,1
645,0.7711,1.7206,-1,1
646,0.77282,1.7215,-1,1
647,0.77455,1.7225,-1,1
648,0.77628,1.7234,-1,1
649,0.77801,1.7245,-1,1
650,0.77974,1.7254,-1,1
651,0.78146,1.7261,-1,1
652,0.78319,1.7269,-1,1
653,0.78492,1.7275,-1,1
654,0.78839,1.7283,-1,1
655,0.79012,1.729,-1,1
656,0.79185,1.7296,-1,1
657,0.79358,1.7304,-1,1
658,0.79532,1.7309,-1,1
659,0.79705,1.7314,-1,1
660,0.79879,1.7319,-1,1
661,0.80052,1.7326,-1,1
662,0.80225,1.7332,-1,1
663,0.80399,1.7335,-1,1
664,0.80746,1.7338,-1,1
665,0.8092,1.7341,-1,1
666,0.81093,1.7346,-1,1
667,0.81267,1.7349,-1,1
668,0.81441,1.7353,-1,1
669,0.81614,1.7354,-1,1
670,0.81788,1.7357,-1,1
671,0.81961,1.7356,-1,1
672,0.82135,1.736,-1,1
673,0.82309,1.7364,-1,1
674,0.82483,1.7365,-1,1
675,0.82656,1.7362,-1,1
676,0.82829,1.7359,-1,1
677,0.83003,1.7361,-1,1
678,0.83176,1.7358,-1,1
679,0.8335,1.7353,-1,1
680,0.83523,1.7347,-1,1
681,0.83696,1.7347,-1,1
682,0.83869,1.7341,-1,1
683,0.84042,1.7332,-1,1
684,0.84215,1.7323,-1,1
685,0.8456,1.7319,-1,1
686,0.84733,1.7311,-1,1
687,0.84905,1.7295,-1,1
688,0.85077,1.7283,-1,1
689,0.8525,1.7274,-1,1
690,0.85422,1.7265,-1,1
691,0.85593,1.7247,-1,1
692,0.85765,1.7228,-1,1
693,0.85936,1.7213,-1,1
694,0.86279,1.7199,-1,1
695,0.8645,1.7179,-1,1
696,0.8662,1.7158,-1,1
697,0.8679,1.7138,-1,1
698,0.86961,1.7121,-1,1
699,0.87131,1.7101,-1,1
700,0.87301,1.7077,-1,1
701,0.8747,1.7053,-1,1
702,0.87639,1.7034,-1,1
703,0.87809,1.7013,-1,1
704,0.87978,1.699,-1,1
705,0.88146,1.6966,-1,1
706,0.88314,1.6944,-1,1
707,0.88482,1.6921,-1,1
708,0.8865,1.6895,-1,1
709,0.88818,1.6868,-1,1
710,0.88985,1.6843,-1,1
711,0.89152,1.682,-1,1
712,0.89319,1.6789,-1,1
713,0.89651,1.6754,-1,1
714,0.89817,1.6723,-1,1
715,0.89983,1.6699,-1,1
716,0.90148,1.6673,-1,1
717,0.90313,1.6641,-1,1
718,0.90478,1.6607,-1,1
719,0.90642,1.6576,-1,1
720,0.90806,1.6547,-1,1
721,0.9097,1.652,-1,1
722,0.91134,1.6494,-1,1
723,0.91297,1.6463,-1,1
724,0.9146,1.6434,-1,1
725,0.91786,1.6405,-1,1
726,0.91948,1.6372,-1,1
727,0.9211,1.6338,-1,1
728,0.9211,1.6306,-1,1
729,0.92271,1.628,-1,1
730,0.92433,1.6255,-1,1
731,0.92595,1.6231,-1,1
732,0.92756,1.6205,-1,1
733,0.92916,1.6181,-1,1
734,0.93077,1.6154,-1,1
735,0.93237,1.6131,-1,1
736,0.93558,1.6109,-1,1
737,0.93717,1.6087,-1,1
738,0.93877,1.6066,-1,1
739,0.94036,1.6041,-1,1
740,0.94195,1.6018,-1,1
741,0.94355,1.5991,-1,1
742,0.94513,1.5965,-1,1
743,0.94672,1.5945,-1,1
744,0.9483,1.5928,-1,1
745,0.94988,1.5903,-1,1
746,0.95146,1.5881,-1,1
747,0.95304,1.5865,-1,1
748,0.95462,1.5851,-1,1
749,0.95777,1.5833,-1,1
750,0.95934,1.5807,-1,1
751,0.96091,1.5785,-1,1
752,0.96248,1.577,-1,1
753,0.96406,1.576,-1,1
754,0.96563,1.5744,-1,1
755,0.96719,1.5726,-1,1
756,0.96875,1.5706,-1,1
757,0.97032,1.5695,-1,1
758,0.97188,1.5685,-1,1
759,0.97345,1.5674,-1,1
760,0.97501,1.5664,-1,1
761,0.97656,1.565,-1,1
762,0.97812,1.5637,-1,1
763,0.97968,1.5625,-1,1
764,0.98124,1.5615,-1,1
765,0.9828,1.5607,-1,1
766,0.98435,1.5598,-1,1
767,0.9859,1.5585,-1,1
768,0.98746,1.5575,-1,1
769,0.98901,1.5565,-1,1
770,0.99056,1.5555,-1,1
771,0.99211,1.5547,-1,1
772,0.99366,1.5539,-1,1
773,0.99521,1.5531,-1,1
774,0.99676,1.5513,-1,1
775,0.9983,1.5499,-1,1
776,0.99985,1.5495,-1,1
777,1.00294,1.5492,-1,1
778,1.00448,1.5478,-1,1
779,1.00602,1.5461,-1,1
780,1.00756,1.5447,-1,1
781,1.0091,1.544,-1,1
782,1.01064,1.5433,-1,1
783,1.01218,1.5418,-1,1
784,1.01371,1.5411,-1,1
785,1.01524,1.5397,-1,1
786,1.01677,1.5381,-1,1
787,1.0183,1.5364,-1,1
788,1.01984,1.5353,-1,1
789,1.02289,1.5339,-1,1
790,1.02441,1.5327,-1,1
791,1.02593,1.5311,-1,1
792,1.02746,1.5292,-1,1
793,1.02898,1.5273,-1,1
794,1.03049,1.5255,-1,1
795,1.03201,1.5243,-1,1
796,1.03353,1.5229,-1,1
797,1.03504,1.521,-1,1
798,1.03655,1.5189,-1,1
799,1.03806,1.5174,-1,1
800,1.03956,1.5156,-1,1
801,1.04107,1.514,-1,1
802,1.04408,1.512,-1,1
803,1.04558,1.5098,-1,1
804,1.04558,1.5079,-1,1
805,1.04708,1.5063,-1,1
806,1.04858,1.5047,-1,1
807,1.05157,1.5028,-1,1
808,1.05306,1.5006,-1,1
809,1.05455,1.4987,-1,1
810,1.05604,1.4973,-1,1
811,1.05754,1.4959,-1,1
812,1.05902,1.4942,-1,1
813,1.06051,1.4926,-1,1
814,1.06198,1.4904,-1,1
815,1.06346,1.4883,-1,1
816,1.06494,1.4867,-1,1
817,1.06643,1.4857,-1,1
818,1.0679,1.4842,-1,1
819,1.06937,1.4821,-1,1
820,1.07084,1.4797,-1,1
821,1.07231,1.4774,-1,1
822,1.07378,1.4761,-1,1
823,1.07526,1.4755,-1,1
824,1.07673,1.4746,-1,1
825,1.07819,1.4726,-1,1
826,1.07964,1.4699,-1,1
827,1.0811,1.4677,-1,1
828,1.08256,1.4665,-1,1
829,1.08549,1.4657,-1,1
830,1.08694,1.4643,-1,1
831,1.08839,1.4623,-1,1
832,1.08984,1.4598,-1,1
833,1.09129,1.4572,-1,1
834,1.09274,1.4555,-1,1
835,1.09419,1.4545,-1,1
836,1.09564,1.4537,-1,1
837,1.09709,1.452,-1,1
838,1.09853,1.4497,-1,1
839,1.09996,1.4474,-1,1
