cnt,pos,speed,Dir,Force,
1,0,1.26,-1,1
2,0.00128984,1.2661,-1,1
3,0.00259972,1.2722,-1,1
4,0.00391006,1.2789,-1,1
5,0.00522995,1.2861,-1,1
6,0.00655985,1.2936,-1,1
7,0.00788975,1.3009,-1,1
8,0.00921965,1.3076,-1,1
9,0.01056,1.3135,-1,1
10,0.01191,1.3199,-1,1
11,0.0132799,1.3273,-1,1
12,0.0146499,1.3354,-1,1
13,0.0160198,1.3428,-1,1
14,0.0173998,1.3489,-1,1
15,0.0187798,1.355,-1,1
16,0.0201797,1.3622,-1,1
17,0.0215898,1.3707,-1,1
18,0.0230098,1.3795,-1,1
19,0.0244398,1.3876,-1,1
20,0.0258598,1.3946,-1,1
21,0.0272899,1.401,-1,1
22,0.0287299,1.4083,-1,1
23,0.03019,1.4168,-1,1
24,0.0316596,1.4262,-1,1
25,0.0331297,1.4347,-1,1
26,0.0345998,1.4416,-1,1
27,0.0360699,1.4477,-1,1
28,0.03757,1.4553,-1,1
29,0.0390797,1.4638,-1,1
30,0.0405898,1.4728,-1,1
31,0.0421,1.4807,-1,1
32,0.0436096,1.4876,-1,1
33,0.0451398,1.4946,-1,1
34,0.04669,1.5027,-1,1
35,0.0482397,1.5112,-1,1
36,0.0497899,1.5196,-1,1
37,0.0513496,1.5275,-1,1
38,0.0529099,1.5343,-1,1
39,0.0544896,1.5416,-1,1
40,0.0560799,1.5496,-1,1
41,0.0576696,1.5578,-1,1
42,0.0592599,1.5653,-1,1
43,0.0608597,1.5717,-1,1
44,0.06247,1.5776,-1,1
45,0.0640898,1.5841,-1,1
46,0.0657001,1.5911,-1,1
47,0.0673199,1.5975,-1,1
48,0.0689497,1.6033,-1,1
49,0.07058,1.6085,-1,1
50,0.0722198,1.6134,-1,1
51,0.0738597,1.6186,-1,1
52,0.0755,1.6238,-1,1
53,0.0771499,1.629,-1,1
54,0.0787997,1.6335,-1,1
55,0.0804601,1.6377,-1,1
56,0.0821199,1.6417,-1,1
57,0.0837798,1.6461,-1,1
58,0.0854497,1.6505,-1,1
59,0.0871301,1.6547,-1,1
60,0.0888,1.6585,-1,1
61,0.0904799,1.6622,-1,1
62,0.0921597,1.6663,-1,1
63,0.0938497,1.6706,-1,1
64,0.0955501,1.6744,-1,1
65,0.09724,1.6775,-1,1
66,0.0989299,1.6809,-1,1
67,0.10063,1.6846,-1,1
68,0.10234,1.6886,-1,1
69,0.10404,1.692,-1,1
70,0.10575,1.6947,-1,1
71,0.10746,1.6974,-1,1
72,0.10917,1.7007,-1,1
73,0.11089,1.7039,-1,1
74,0.11261,1.7068,-1,1
75,0.11433,1.7094,-1,1
76,0.11605,1.7123,-1,1
77,0.11779,1.7156,-1,1
78,0.11952,1.7184,-1,1
79,0.12125,1.7205,-1,1
80,0.12298,1.7231,-1,1
81,0.12472,1.7263,-1,1
82,0.12647,1.7294,-1,1
83,0.12821,1.7318,-1,1
84,0.12995,1.7338,-1,1
85,0.1317,1.7368,-1,1
86,0.13345,1.7397,-1,1
87,0.1352,1.7418,-1,1
88,0.13696,1.7436,-1,1
89,0.13871,1.7458,-1,1
90,0.14046,1.7485,-1,1
91,0.14222,1.7508,-1,1
92,0.14398,1.7517,-1,1
93,0.14574,1.7529,-1,1
94,0.1475,1.7545,-1,1
95,0.14926,1.7563,-1,1
96,0.15103,1.7577,-1,1
97,0.15278,1.7583,-1,1
98,0.15454,1.7587,-1,1
99,0.1563,1.7598,-1,1
100,0.15807,1.7604,-1,1
101,0.15983,1.7607,-1,1
102,0.16159,1.7609,-1,1
103,0.16335,1.761,-1,1
104,0.16511,1.7615,-1,1
105,0.16687,1.7609,-1,1
106,0.16862,1.7599,-1,1
107,0.17213,1.7593,-1,1
108,0.17389,1.7591,-1,1
109,0.17564,1.7581,-1,1
110,0.17739,1.7566,-1,1
111,0.17914,1.7553,-1,1
112,0.18089,1.7543,-1,1
113,0.18263,1.753,-1,1
114,0.18437,1.7511,-1,1
115,0.18612,1.7494,-1,1
116,0.18786,1.7479,-1,1
117,0.1896,1.7465,-1,1
118,0.19133,1.7444,-1,1
119,0.19306,1.7425,-1,1
120,0.19479,1.7409,-1,1
121,0.19653,1.7387,-1,1
122,0.19998,1.736,-1,1
123,0.20169,1.7331,-1,1
124,0.20341,1.7307,-1,1
125,0.20513,1.7285,-1,1
126,0.20685,1.7259,-1,1
127,0.20856,1.723,-1,1
128,0.21026,1.7202,-1,1
129,0.21197,1.7174,-1,1
130,0.21537,1.7141,-1,1
131,0.21707,1.7108,-1,1
132,0.21876,1.7082,-1,1
133,0.22046,1.7058,-1,1
134,0.22215,1.7029,-1,1
135,0.22383,1.6994,-1,1
136,0.22551,1.6959,-1,1
137,0.22719,1.6926,-1,1
138,0.22887,1.6898,-1,1
139,0.23054,1.6867,-1,1
140,0.23221,1.6838,-1,1
141,0.23388,1.6808,-1,1
142,0.23554,1.6777,-1,1
143,0.2372,1.6744,-1,1
144,0.23886,1.671,-1,1
145,0.24051,1.6679,-1,1
146,0.24216,1.6651,-1,1
147,0.24381,1.6623,-1,1
148,0.24545,1.6589,-1,1
149,0.24709,1.6554,-1,1
150,0.24873,1.6521,-1,1
151,0.25037,1.6491,-1,1
152,0.252,1.6461,-1,1
153,0.25363,1.643,-1,1
154,0.25525,1.6397,-1,1
155,0.25687,1.6366,-1,1
156,0.2585,1.6335,-1,1
157,0.26011,1.6304,-1,1
158,0.26173,1.6272,-1,1
159,0.26334,1.6243,-1,1
160,0.26494,1.6211,-1,1
161,0.26654,1.6179,-1,1
162,0.26815,1.6146,-1,1
163,0.26974,1.6115,-1,1
164,0.27134,1.6085,-1,1
165,0.27293,1.6053,-1,1
166,0.27452,1.6021,-1,1
167,0.2761,1.5988,-1,1
168,0.27768,1.5956,-1,1
169,0.27926,1.5923,-1,1
170,0.28083,1.5893,-1,1
171,0.2824,1.5861,-1,1
172,0.28397,1.5827,-1,1
173,0.28554,1.5795,-1,1
174,0.2871,1.5762,-1,1
175,0.28865,1.5729,-1,1
176,0.29021,1.5696,-1,1
177,0.29176,1.5661,-1,1
178,0.29331,1.5628,-1,1
179,0.29485,1.5595,-1,1
180,0.29639,1.556,-1,1
181,0.29793,1.5526,-1,1
182,0.29946,1.5493,-1,1
183,0.30099,1.546,-1,1
184,0.30252,1.5425,-1,1
185,0.30404,1.5389,-1,1
186,0.30556,1.5354,-1,1
187,0.30708,1.532,-1,1
188,0.30859,1.5284,-1,1
189,0.3101,1.5248,-1,1
190,0.3116,1.5209,-1,1
191,0.3131,1.5168,-1,1
192,0.31459,1.5127,-1,1
193,0.31608,1.5084,-1,1
194,0.31756,1.5045,-1,1
195,0.31905,1.5004,-1,1
196,0.32052,1.4962,-1,1
197,0.322,1.4917,-1,1
198,0.32346,1.4872,-1,1
199,0.32493,1.4828,-1,1
200,0.32639,1.4787,-1,1
201,0.32784,1.4745,-1,1
202,0.32929,1.4704,-1,1
203,0.33074,1.466,-1,1
204,0.33218,1.4613,-1,1
205,0.33361,1.4568,-1,1
206,0.33505,1.4522,-1,1
207,0.33648,1.4482,-1,1
208,0.3379,1.444,-1,1
209,0.33932,1.4391,-1,1
210,0.34073,1.4341,-1,1
211,0.34214,1.4295,-1,1
212,0.34355,1.4252,-1,1
213,0.34495,1.421,-1,1
214,0.34634,1.4165,-1,1
215,0.34773,1.4116,-1,1
216,0.34911,1.4067,-1,1
217,0.3505,1.4019,-1,1
218,0.35188,1.3977,-1,1
219,0.35325,1.3937,-1,1
220,0.35462,1.3893,-1,1
221,0.35598,1.3846,-1,1
222,0.35734,1.3797,-1,1
223,0.3587,1.3754,-1,1
224,0.36006,1.3714,-1,1
225,0.3614,1.3672,-1,1
226,0.36274,1.3628,-1,1
227,0.36408,1.3581,-1,1
228,0.36541,1.3533,-1,1
229,0.36675,1.3492,-1,1
230,0.36808,1.3455,-1,1
231,0.3694,1.3413,-1,1
232,0.37071,1.3364,-1,1
233,0.37333,1.3318,-1,1
234,0.37464,1.3275,-1,1
235,0.37595,1.3237,-1,1
236,0.37725,1.3195,-1,1
237,0.37854,1.3148,-1,1
238,0.37982,1.31,-1,1
239,0.38111,1.3055,-1,1
240,0.3824,1.3016,-1,1
241,0.38369,1.2983,-1,1
242,0.38497,1.295,-1,1
243,0.38624,1.2906,-1,1
244,0.3875,1.2859,-1,1
245,0.38877,1.2823,-1,1
246,0.39004,1.2794,-1,1
247,0.39131,1.2767,-1,1
248,0.39257,1.2743,-1,1
249,0.39383,1.2706,-1,1
250,0.39507,1.2662,-1,1
251,0.39632,1.2622,-1,1
252,0.39757,1.2596,-1,1
253,0.39882,1.2577,-1,1
254,0.40007,1.2563,-1,1
255,0.40131,1.2524,-1,1
256,0.40377,1.2485,-1,1
257,0.40501,1.2457,-1,1
258,0.40501,1.2431,-1,1
259,0.40624,1.2415,-1,1
260,0.40748,1.2402,-1,1
261,0.40871,1.2382,-1,1
262,0.40992,1.2349,-1,1
263,0.41114,1.2315,-1,1
264,0.41236,1.2282,-1,1
265,0.41358,1.2273,-1,1
266,0.4148,1.2256,-1,1
267,0.41723,1.2229,-1,1
268,0.41843,1.2194,-1,1
269,0.41843,1.2165,-1,1
270,0.41963,1.2138,-1,1
271,0.42084,1.2119,-1,1
272,0.42205,1.211,-1,1
273,0.42325,1.2096,-1,1
274,0.42445,1.2074,-1,1
275,0.42564,1.2041,-1,1
276,0.42683,1.2025,-1,1
277,0.42923,1.2018,-1,1
278,0.43042,1.2011,-1,1
279,0.43161,1.199,-1,1
280,0.43279,1.1963,-1,1
281,0.43396,1.1934,-1,1
282,0.43515,1.1909,-1,1
283,0.43634,1.1894,-1,1
284,0.43753,1.1886,-1,1
285,0.43871,1.1877,-1,1
286,0.43988,1.1852,-1,1
287,0.44104,1.1819,-1,1
288,0.44222,1.1797,-1,1
289,0.4434,1.1789,-1,1
290,0.44457,1.1788,-1,1
291,0.44575,1.1782,-1,1
292,0.44691,1.1764,-1,1
293,0.44807,1.1736,-1,1
294,0.44924,1.171,-1,1
295,0.4504,1.1694,-1,1
296,0.45157,1.1694,-1,1
297,0.45274,1.1696,-1,1
298,0.4539,1.1685,-1,1
299,0.45506,1.1661,-1,1
300,0.45621,1.1633,-1,1
301,0.45736,1.1617,-1,1
302,0.45853,1.1612,-1,1
303,0.45969,1.1614,-1,1
304,0.46085,1.1611,-1,1
305,0.46199,1.1594,-1,1
306,0.46314,1.1565,-1,1
307,0.46428,1.1541,-1,1
308,0.46543,1.1531,-1,1
309,0.46659,1.1531,-1,1
310,0.46774,1.1531,-1,1
311,0.46888,1.1516,-1,1
312,0.47002,1.1491,-1,1
313,0.47115,1.1465,-1,1
314,0.47229,1.1444,-1,1
315,0.47343,1.1436,-1,1
316,0.4757,1.1427,-1,1
317,0.47683,1.141,-1,1
318,0.47795,1.1384,-1,1
319,0.47908,1.1354,-1,1
320,0.4802,1.1326,-1,1
321,0.48132,1.1306,-1,1
322,0.48244,1.1288,-1,1
323,0.48356,1.1269,-1,1
324,0.48467,1.1246,-1,1
325,0.48578,1.1215,-1,1
326,0.48689,1.1186,-1,1
327,0.48799,1.116,-1,1
328,0.48909,1.1137,-1,1
329,0.49129,1.111,-1,1
330,0.49239,1.108,-1,1
331,0.49239,1.1046,-1,1
332,0.49347,1.1015,-1,1
333,0.49456,1.0983,-1,1
334,0.49564,1.0952,-1,1
335,0.49672,1.0923,-1,1
336,0.4978,1.0897,-1,1
337,0.49888,1.0872,-1,1
338,0.49995,1.0841,-1,1
339,0.50101,1.0808,-1,1
340,0.50208,1.0774,-1,1
341,0.50313,1.0745,-1,1
342,0.50419,1.0716,-1,1
343,0.50525,1.0686,-1,1
344,0.5063,1.0656,-1,1
345,0.50735,1.0623,-1,1
346,0.50839,1.0586,-1,1
347,0.50943,1.0546,-1,1
348,0.51046,1.0506,-1,1
349,0.51149,1.0474,-1,1
350,0.51252,1.0445,-1,1
351,0.51457,1.0409,-1,1
352,0.51559,1.0365,-1,1
353,0.51559,1.0319,-1,1
354,0.5166,1.0275,-1,1
355,0.5176,1.0231,-1,1
356,0.5186,1.0192,-1,1
357,0.51961,1.0157,-1,1
358,0.52061,1.0128,-1,1
359,0.52161,1.0086,-1,1
360,0.5226,1.0036,-1,1
361,0.52455,0.9987,-1,1
362,0.52552,0.9944,-1,1
363,0.5265,0.9908,-1,1
364,0.5265,0.9871,-1,1
365,0.52747,0.984,-1,1
366,0.52844,0.9806,-1,1
367,0.5294,0.9764,-1,1
368,0.53035,0.9715,-1,1
369,0.5313,0.9668,-1,1
370,0.53318,0.963,-1,1
371,0.53412,0.9593,-1,1
372,0.53506,0.9557,-1,1
373,0.53599,0.9514,-1,1
374,0.53691,0.9469,-1,1
375,0.53783,0.9417,-1,1
376,0.53875,0.9362,-1,1
377,0.53966,0.9312,-1,1
378,0.54056,0.9266,-1,1
379,0.54147,0.9227,-1,1
380,0.54237,0.9184,-1,1
381,0.54326,0.914,-1,1
382,0.54415,0.9095,-1,1
383,0.54504,0.9053,-1,1
384,0.54592,0.9009,-1,1
385,0.5468,0.8967,-1,1
386,0.54767,0.8923,-1,1
387,0.54854,0.8879,-1,1
388,0.5494,0.8835,-1,1
389,0.55026,0.8792,-1,1
390,0.55112,0.875,-1,1
391,0.55197,0.8708,-1,1
392,0.55282,0.8665,-1,1
393,0.55366,0.8618,-1,1
394,0.55449,0.8573,-1,1
395,0.55533,0.8528,-1,1
396,0.55616,0.8488,-1,1
397,0.55698,0.8447,-1,1
398,0.5578,0.8406,-1,1
399,0.55862,0.8363,-1,1
400,0.55944,0.8323,-1,1
401,0.56025,0.8286,-1,1
402,0.56106,0.8248,-1,1
403,0.56187,0.8206,-1,1
404,0.56346,0.8163,-1,1
405,0.56426,0.8123,-1,1
406,0.56505,0.8084,-1,1
407,0.56583,0.8047,-1,1
408,0.56662,0.8009,-1,1
409,0.5674,0.797,-1,1
410,0.56818,0.793,-1,1
411,0.56895,0.7891,-1,1
412,0.56972,0.7852,-1,1
413,0.57049,0.782,-1,1
414,0.57125,0.7784,-1,1
415,0.572,0.7747,-1,1
416,0.57276,0.771,-1,1
417,0.57351,0.7675,-1,1
418,0.57426,0.7639,-1,1
419,0.575,0.7603,-1,1
420,0.57574,0.7566,-1,1
421,0.57648,0.7527,-1,1
422,0.57721,0.749,-1,1
423,0.57794,0.7454,-1,1
424,0.57867,0.7414,-1,1
425,0.57939,0.7377,-1,1
426,0.5801,0.7338,-1,1
427,0.58081,0.7297,-1,1
428,0.58152,0.726,-1,1
429,0.58223,0.7223,-1,1
430,0.58293,0.7186,-1,1
431,0.58363,0.7147,-1,1
432,0.58432,0.7106,-1,1
433,0.58501,0.7064,-1,1
434,0.5857,0.7027,-1,1
435,0.58638,0.6986,-1,1
436,0.58706,0.6949,-1,1
437,0.58773,0.6909,-1,1
438,0.5884,0.6866,-1,1
439,0.58906,0.6822,-1,1
440,0.58972,0.6778,-1,1
441,0.59037,0.6737,-1,1
442,0.59103,0.6697,-1,1
443,0.59168,0.6657,-1,1
444,0.59232,0.6618,-1,1
445,0.59359,0.6575,-1,1
446,0.59359,0.6528,-1,1
447,0.59422,0.6487,-1,1
448,0.59485,0.6445,-1,1
449,0.59547,0.6406,-1,1
450,0.59609,0.6365,-1,1
451,0.5967,0.6322,-1,1
452,0.59731,0.6277,-1,1
453,0.59792,0.6233,-1,1
454,0.59852,0.6193,-1,1
455,0.59912,0.6151,-1,1
456,0.59971,0.6109,-1,1
457,0.6003,0.6063,-1,1
458,0.60089,0.6022,-1,1
459,0.60147,0.5981,-1,1
460,0.60205,0.5941,-1,1
461,0.60262,0.5903,-1,1
462,0.60319,0.5864,-1,1
463,0.60375,0.5824,-1,1
464,0.60431,0.5778,-1,1
465,0.60487,0.5739,-1,1
466,0.60597,0.5701,-1,1
467,0.60652,0.5663,-1,1
468,0.60652,0.5619,-1,1
469,0.60706,0.5578,-1,1
470,0.6076,0.5538,-1,1
471,0.60813,0.5496,-1,1
472,0.60867,0.5459,-1,1
473,0.6092,0.5424,-1,1
474,0.60972,0.5392,-1,1
475,0.61024,0.5356,-1,1
476,0.61076,0.5319,-1,1
477,0.61179,0.5283,-1,1
478,0.61229,0.5249,-1,1
479,0.61229,0.521,-1,1
480,0.61279,0.5174,-1,1
481,0.6133,0.5142,-1,1
482,0.61379,0.5109,-1,1
483,0.61429,0.5075,-1,1
484,0.61478,0.504,-1,1
485,0.61576,0.5009,-1,1
486,0.61624,0.4979,-1,1
487,0.61673,0.4951,-1,1
488,0.61721,0.4924,-1,1
489,0.61769,0.4901,-1,1
490,0.61816,0.4875,-1,1
491,0.61864,0.4848,-1,1
492,0.61911,0.4822,-1,1
493,0.61958,0.4797,-1,1
494,0.62005,0.4775,-1,1
495,0.62052,0.4754,-1,1
496,0.62098,0.4737,-1,1
497,0.62145,0.4719,-1,1
498,0.62238,0.4704,-1,1
499,0.62284,0.4689,-1,1
500,0.6233,0.4677,-1,1
501,0.62377,0.4667,-1,1
502,0.62423,0.4658,-1,1
503,0.6247,0.4652,-1,1
504,0.62516,0.4651,-1,1
505,0.62563,0.4652,-1,1
506,0.6261,0.4654,-1,1
507,0.62657,0.4659,-1,1
508,0.62704,0.4666,-1,1
509,0.62752,0.4677,-1,1
510,0.62799,0.4688,-1,1
511,0.62895,0.4705,-1,1
512,0.62895,0.4724,-1,1
513,0.62992,0.4745,-1,1
514,0.63041,0.4769,-1,1
515,0.63091,0.4796,-1,1
516,0.63141,0.4825,-1,1
517,0.63191,0.4856,-1,1
518,0.63241,0.4891,-1,1
519,0.63345,0.4934,-1,1
520,0.63397,0.4982,-1,1
521,0.63397,0.5028,-1,1
522,0.63503,0.5077,-1,1
523,0.63503,0.5128,-1,1
524,0.63611,0.5179,-1,1
525,0.63666,0.5233,-1,1
526,0.63721,0.5289,-1,1
527,0.63777,0.5348,-1,1
528,0.63834,0.5408,-1,1
529,0.63891,0.5463,-1,1
530,0.63949,0.5519,-1,1
531,0.64008,0.5577,-1,1
532,0.64067,0.5637,-1,1
533,0.64127,0.5699,-1,1
534,0.64188,0.5766,-1,1
535,0.64249,0.5834,-1,1
536,0.64311,0.5902,-1,1
537,0.64374,0.5971,-1,1
538,0.64438,0.6043,-1,1
539,0.64503,0.6117,-1,1
540,0.64568,0.6191,-1,1
541,0.64635,0.6269,-1,1
542,0.64702,0.635,-1,1
543,0.6477,0.6435,-1,1
544,0.6484,0.6519,-1,1
545,0.6491,0.6604,-1,1
546,0.64981,0.6692,-1,1
547,0.65053,0.6785,-1,1
548,0.65126,0.6877,-1,1
549,0.652,0.6972,-1,1
550,0.65275,0.7073,-1,1
551,0.65352,0.7173,-1,1
552,0.65429,0.7274,-1,1
553,0.65508,0.7375,-1,1
554,0.65587,0.7478,-1,1
555,0.65668,0.7585,-1,1
556,0.6575,0.7695,-1,1
557,0.65833,0.7805,-1,1
558,0.65917,0.7917,-1,1
559,0.66003,0.8028,-1,1
560,0.66089,0.8138,-1,1
561,0.66177,0.8252,-1,1
562,0.66266,0.8367,-1,1
563,0.66356,0.8482,-1,1
564,0.66447,0.8599,-1,1
565,0.66539,0.8715,-1,1
566,0.66633,0.883,-1,1
567,0.66728,0.8946,-1,1
568,0.66824,0.9064,-1,1
569,0.66921,0.9183,-1,1
570,0.67019,0.93,-1,1
571,0.67118,0.9415,-1,1
572,0.67219,0.9531,-1,1
573,0.67321,0.9652,-1,1
574,0.67424,0.9769,-1,1
575,0.67528,0.9885,-1,1
576,0.67633,0.9998,-1,1
577,0.67739,1.0114,-1,1
578,0.67847,1.0227,-1,1
579,0.67955,1.0341,-1,1
580,0.68065,1.0457,-1,1
581,0.68176,1.0573,-1,1
582,0.68288,1.0688,-1,1
583,0.68401,1.0798,-1,1
584,0.68515,1.0907,-1,1
585,0.6863,1.1017,-1,1
586,0.68746,1.1133,-1,1
587,0.68864,1.1243,-1,1
588,0.68982,1.1352,-1,1
589,0.69101,1.1459,-1,1
590,0.69221,1.1565,-1,1
591,0.69342,1.1667,-1,1
592,0.69465,1.1769,-1,1
593,0.69588,1.1868,-1,1
594,0.69712,1.1969,-1,1
595,0.69836,1.2067,-1,1
596,0.69962,1.2159,-1,1
597,0.70088,1.2249,-1,1
598,0.70216,1.2339,-1,1
599,0.70344,1.2425,-1,1
600,0.70472,1.2509,-1,1
601,0.70602,1.2594,-1,1
602,0.70732,1.2675,-1,1
603,0.70863,1.2754,-1,1
604,0.70995,1.2829,-1,1
605,0.71127,1.2903,-1,1
606,0.71259,1.2973,-1,1
607,0.71393,1.3044,-1,1
608,0.71527,1.3114,-1,1
609,0.71662,1.3183,-1,1
610,0.71933,1.3251,-1,1
611,0.72069,1.3318,-1,1
612,0.72206,1.3383,-1,1
613,0.72343,1.3449,-1,1
614,0.72481,1.3514,-1,1
615,0.72619,1.3575,-1,1
616,0.72758,1.3638,-1,1
617,0.72897,1.3692,-1,1
618,0.73036,1.3745,-1,1
619,0.73177,1.3799,-1,1
620,0.73317,1.3849,-1,1
621,0.73458,1.3892,-1,1
622,0.73599,1.3936,-1,1
623,0.7374,1.3981,-1,1
624,0.74024,1.4025,-1,1
625,0.74167,1.407,-1,1
626,0.74309,1.4107,-1,1
627,0.74309,1.4144,-1,1
628,0.74452,1.4174,-1,1
629,0.74595,1.4205,-1,1
630,0.74739,1.4239,-1,1
631,0.74883,1.4277,-1,1
632,0.75027,1.4307,-1,1
633,0.75316,1.4333,-1,1
634,0.75461,1.4357,-1,1
635,0.75606,1.438,-1,1
636,0.75752,1.4408,-1,1
637,0.75897,1.4438,-1,1
638,0.75897,1.447,-1,1
639,0.76043,1.4495,-1,1
640,0.76189,1.4514,-1,1
641,0.76335,1.4532,-1,1
642,0.76481,1.4551,-1,1
643,0.76627,1.4571,-1,1
644,0.76921,1.4592,-1,1
645,0.77068,1.4609,-1,1
646,0.77214,1.4625,-1,1
647,0.77362,1.464,-1,1
648,0.77362,1.4653,-1,1
649,0.77509,1.4667,-1,1
650,0.77656,1.4681,-1,1
651,0.77804,1.4696,-1,1
652,0.77951,1.471,-1,1
653,0.78098,1.4718,-1,1
654,0.78246,1.4726,-1,1
655,0.78394,1.4736,-1,1
656,0.7869,1.4746,-1,1
657,0.78837,1.4753,-1,1
658,0.78985,1.476,-1,1
659,0.79133,1.4766,-1,1
660,0.79133,1.4772,-1,1
661,0.79281,1.4774,-1,1
662,0.79429,1.4779,-1,1
663,0.79577,1.4784,-1,1
664,0.79724,1.4785,-1,1
665,0.79872,1.4786,-1,1
666,0.80168,1.4781,-1,1
667,0.80315,1.478,-1,1
668,0.80463,1.4779,-1,1
669,0.8061,1.4776,-1,1
670,0.80758,1.4775,-1,1
671,0.80758,1.4771,-1,1
672,0.80906,1.4765,-1,1
673,0.81053,1.4756,-1,1
674,0.812,1.4749,-1,1
675,0.81347,1.4741,-1,1
676,0.81494,1.474,-1,1
677,0.81788,1.4732,-1,1
678,0.81935,1.4717,-1,1
679,0.82081,1.4705,-1,1
680,0.82228,1.4697,-1,1
681,0.82228,1.4693,-1,1
682,0.82375,1.4683,-1,1
683,0.82521,1.4677,-1,1
684,0.82667,1.4663,-1,1
685,0.82812,1.4645,-1,1
686,0.82958,1.4627,-1,1
687,0.83104,1.4621,-1,1
688,0.8325,1.4612,-1,1
689,0.8354,1.4593,-1,1
690,0.83684,1.4566,-1,1
691,0.83829,1.4545,-1,1
692,0.83974,1.4533,-1,1
693,0.84119,1.4517,-1,1
694,0.84263,1.4499,-1,1
695,0.84406,1.4478,-1,1
696,0.84549,1.4455,-1,1
697,0.84693,1.4429,-1,1
698,0.84837,1.4415,-1,1
699,0.8498,1.4395,-1,1
700,0.85265,1.4373,-1,1
701,0.85407,1.4345,-1,1
702,0.85549,1.4318,-1,1
703,0.85691,1.4292,-1,1
704,0.85833,1.4272,-1,1
705,0.85974,1.425,-1,1
706,0.86115,1.4223,-1,1
707,0.86256,1.4194,-1,1
708,0.86397,1.4166,-1,1
709,0.86537,1.4148,-1,1
710,0.86677,1.4127,-1,1
711,0.86816,1.4098,-1,1
712,0.86956,1.4063,-1,1
713,0.87095,1.4036,-1,1
714,0.87234,1.4011,-1,1
715,0.87373,1.399,-1,1
716,0.87511,1.3965,-1,1
717,0.87649,1.3932,-1,1
718,0.87786,1.3896,-1,1
719,0.87924,1.3868,-1,1
720,0.88062,1.3847,-1,1
721,0.88199,1.3827,-1,1
722,0.88335,1.3798,-1,1
723,0.88471,1.3761,-1,1
724,0.88607,1.3727,-1,1
725,0.88743,1.3698,-1,1
726,0.88879,1.3673,-1,1
727,0.89014,1.3647,-1,1
728,0.89148,1.3617,-1,1
729,0.89282,1.358,-1,1
730,0.89417,1.3545,-1,1
731,0.89551,1.3516,-1,1
732,0.89684,1.3491,-1,1
733,0.89817,1.3459,-1,1
734,0.89949,1.3422,-1,1
735,0.90082,1.3387,-1,1
736,0.90215,1.3357,-1,1
737,0.90347,1.3334,-1,1
738,0.90479,1.3304,-1,1
739,0.90609,1.3269,-1,1
740,0.90739,1.3227,-1,1
741,0.9087,1.3189,-1,1
742,0.91,1.3161,-1,1
743,0.91131,1.3141,-1,1
744,0.91261,1.3114,-1,1
745,0.91389,1.3075,-1,1
746,0.91517,1.3025,-1,1
747,0.91645,1.298,-1,1
748,0.91774,1.2952,-1,1
749,0.91902,1.2934,-1,1
750,0.9203,1.2912,-1,1
751,0.92157,1.2871,-1,1
752,0.92282,1.2818,-1,1
753,0.92408,1.2766,-1,1
754,0.92534,1.2731,-1,1
755,0.9266,1.2711,-1,1
756,0.92786,1.2695,-1,1
757,0.92911,1.2664,-1,1
758,0.93035,1.2611,-1,1
759,0.93158,1.2552,-1,1
760,0.93281,1.2505,-1,1
761,0.93405,1.248,-1,1
762,0.93529,1.2464,-1,1
763,0.93652,1.244,-1,1
764,0.93773,1.2396,-1,1
765,0.93894,1.2335,-1,1
766,0.94014,1.228,-1,1
767,0.94135,1.2242,-1,1
768,0.94257,1.2223,-1,1
769,0.94378,1.2202,-1,1
770,0.94497,1.2163,-1,1
771,0.94615,1.2107,-1,1
772,0.94733,1.2048,-1,1
773,0.94852,1.2004,-1,1
774,0.94971,1.1977,-1,1
775,0.95089,1.1957,-1,1
776,0.95323,1.1911,-1,1
777,0.95438,1.1853,-1,1
778,0.95554,1.1796,-1,1
779,0.9567,1.1753,-1,1
780,0.95787,1.1724,-1,1
781,0.95902,1.1693,-1,1
782,0.96016,1.1654,-1,1
783,0.96129,1.1597,-1,1
784,0.96242,1.1536,-1,1
785,0.9647,1.1494,-1,1
786,0.96584,1.1473,-1,1
787,0.96696,1.1444,-1,1
788,0.96807,1.1397,-1,1
789,0.96807,1.1336,-1,1
790,0.96918,1.1276,-1,1
791,0.97028,1.1229,-1,1
792,0.97139,1.1201,-1,1
793,0.97251,1.1188,-1,1
794,0.97362,1.1161,-1,1
795,0.97472,1.1108,-1,1
796,0.97581,1.1049,-1,1
797,0.97797,1.1003,-1,1
798,0.97906,1.0981,-1,1
799,0.97906,1.0973,-1,1
800,0.98016,1.0959,-1,1
801,0.98125,1.0944,-1,1
802,0.98232,1.0908,-1,1
803,0.98339,1.0856,-1,1
804,0.98445,1.0813,-1,1
805,0.98551,1.0783,-1,1
806,0.98658,1.078,-1,1
807,0.98765,1.0771,-1,1
808,0.98978,1.074,-1,1
809,0.99082,1.0687,-1,1
810,0.99186,1.0636,-1,1
811,0.99186,1.0589,-1,1
812,0.99291,1.0555,-1,1
813,0.99396,1.0545,-1,1
814,0.99502,1.0546,-1,1
815,0.99608,1.054,-1,1
816,0.99712,1.0506,-1,1
817,0.99815,1.0459,-1,1
818,1.0002,1.0427,-1,1
819,1.00124,1.0422,-1,1
820,1.00228,1.043,-1,1
821,1.00333,1.043,-1,1
822,1.00333,1.042,-1,1
823,1.00436,1.0399,-1,1
824,1.00538,1.0361,-1,1
825,1.00639,1.032,-1,1
826,1.00741,1.0291,-1,1
827,1.00843,1.03,-1,1
828,1.01049,1.0307,-1,1
829,1.01152,1.0297,-1,1
830,1.01254,1.027,-1,1
831,1.01355,1.0237,-1,1
832,1.01355,1.0207,-1,1
833,1.01456,1.0177,-1,1
834,1.01556,1.0164,-1,1
835,1.01658,1.0167,-1,1
836,1.0176,1.0178,-1,1
837,1.01863,1.0173,-1,1
838,1.01965,1.0161,-1,1
