cnt,pos,speed,Dir,Force,
1,0,1.0008,-1,1
2,0.00103998,1.0078,-1,1
3,0.00207996,1.0149,-1,1
4,0.00312996,1.0215,-1,1
5,0.00417995,1.0281,-1,1
6,0.00524998,1.0349,-1,1
7,0.00632,1.0418,-1,1
8,0.00739002,1.0477,-1,1
9,0.00846958,1.0528,-1,1
10,0.0095396,1.057,-1,1
11,0.0106196,1.0615,-1,1
12,0.0117097,1.0666,-1,1
13,0.0127997,1.0718,-1,1
14,0.0138998,1.0767,-1,1
15,0.0149999,1.0811,-1,1
16,0.0160899,1.0843,-1,1
17,0.01719,1.0867,-1,1
18,0.0182896,1.0893,-1,1
19,0.0193896,1.0924,-1,1
20,0.0204997,1.0963,-1,1
21,0.0216198,1.1002,-1,1
22,0.0227399,1.1031,-1,1
23,0.02385,1.1049,-1,1
24,0.0249596,1.1061,-1,1
25,0.0260696,1.1075,-1,1
26,0.0271897,1.1096,-1,1
27,0.0283098,1.1122,-1,1
28,0.0294399,1.115,-1,1
29,0.03056,1.1172,-1,1
30,0.0316896,1.1182,-1,1
31,0.0327997,1.1182,-1,1
32,0.0339198,1.1185,-1,1
33,0.0350399,1.1196,-1,1
34,0.03617,1.1216,-1,1
35,0.0373096,1.1237,-1,1
36,0.0384398,1.1252,-1,1
37,0.0395699,1.1256,-1,1
38,0.0406799,1.1249,-1,1
39,0.0418,1.1241,-1,1
40,0.0429296,1.1242,-1,1
41,0.0440598,1.1256,-1,1
42,0.0451899,1.1274,-1,1
43,0.04633,1.1283,-1,1
44,0.0474496,1.1277,-1,1
45,0.0485697,1.126,-1,1
46,0.0496798,1.1245,-1,1
47,0.0508099,1.1242,-1,1
48,0.05194,1.1253,-1,1
49,0.0530696,1.1269,-1,1
50,0.0542097,1.1277,-1,1
51,0.0553298,1.1266,-1,1
52,0.0564399,1.1242,-1,1
53,0.05755,1.1222,-1,1
54,0.0586696,1.1218,-1,1
55,0.0597997,1.1232,-1,1
56,0.0609298,1.1248,-1,1
57,0.0620599,1.1251,-1,1
58,0.06318,1.1236,-1,1
59,0.0642796,1.121,-1,1
60,0.0653896,1.1186,-1,1
61,0.0665097,1.1181,-1,1
62,0.0676298,1.1194,-1,1
63,0.0687599,1.1212,-1,1
64,0.06989,1.1217,-1,1
65,0.0709996,1.12,-1,1
66,0.0720997,1.1171,-1,1
67,0.0732098,1.1146,-1,1
68,0.0743098,1.1138,-1,1
69,0.0754299,1.1146,-1,1
70,0.07655,1.1163,-1,1
71,0.0776796,1.117,-1,1
72,0.0787897,1.1159,-1,1
73,0.0798898,1.1133,-1,1
74,0.0809898,1.1104,-1,1
75,0.0820899,1.1088,-1,1
76,0.0832,1.1093,-1,1
77,0.0843196,1.111,-1,1
78,0.0854297,1.1121,-1,1
79,0.0865498,1.1116,-1,1
80,0.0876498,1.1097,-1,1
81,0.0887499,1.1071,-1,1
82,0.0898399,1.1052,-1,1
83,0.09095,1.105,-1,1
84,0.0920596,1.1068,-1,1
85,0.0931697,1.1086,-1,1
86,0.0942898,1.1087,-1,1
87,0.0953898,1.1069,-1,1
88,0.0964799,1.1044,-1,1
89,0.09758,1.1028,-1,1
90,0.09868,1.1026,-1,1
91,0.0997896,1.1041,-1,1
92,0.1009,1.1058,-1,1
93,0.10201,1.1061,-1,1
94,0.1031,1.1036,-1,1
95,0.10419,1.1009,-1,1
96,0.10639,1.1002,-1,1
97,0.10639,1.1013,-1,1
98,0.10861,1.1028,-1,1
99,0.10861,1.103,-1,1
100,0.11079,1.1015,-1,1
101,0.11188,1.0988,-1,1
102,0.11297,1.0965,-1,1
103,0.11406,1.0959,-1,1
104,0.11517,1.0976,-1,1
105,0.11628,1.0992,-1,1
106,0.11737,1.0984,-1,1
107,0.11845,1.0957,-1,1
108,0.11953,1.0927,-1,1
109,0.12061,1.0911,-1,1
110,0.12171,1.0914,-1,1
111,0.1228,1.0929,-1,1
112,0.125,1.0933,-1,1
113,0.12608,1.0918,-1,1
114,0.12715,1.0888,-1,1
115,0.12823,1.0858,-1,1
116,0.12931,1.0843,-1,1
117,0.1304,1.0847,-1,1
118,0.13149,1.086,-1,1
119,0.13258,1.0866,-1,1
120,0.13366,1.0855,-1,1
121,0.13473,1.0829,-1,1
122,0.1358,1.0805,-1,1
123,0.13687,1.0794,-1,1
124,0.13795,1.0797,-1,1
125,0.13903,1.0804,-1,1
126,0.14012,1.0806,-1,1
127,0.14119,1.0794,-1,1
128,0.14226,1.0769,-1,1
129,0.14332,1.0746,-1,1
130,0.14439,1.0734,-1,1
131,0.14546,1.0731,-1,1
132,0.14653,1.0736,-1,1
133,0.14761,1.0735,-1,1
134,0.14867,1.0724,-1,1
135,0.14974,1.0705,-1,1
136,0.1508,1.0681,-1,1
137,0.15185,1.0663,-1,1
138,0.15291,1.0656,-1,1
139,0.15398,1.0658,-1,1
140,0.15505,1.0655,-1,1
141,0.15611,1.0647,-1,1
142,0.15716,1.0628,-1,1
143,0.15822,1.0608,-1,1
144,0.15927,1.059,-1,1
145,0.16032,1.0579,-1,1
146,0.16137,1.0576,-1,1
147,0.16243,1.0577,-1,1
148,0.16349,1.0573,-1,1
149,0.16454,1.0557,-1,1
150,0.16558,1.0534,-1,1
151,0.16662,1.0513,-1,1
152,0.16766,1.05,-1,1
153,0.16871,1.0494,-1,1
154,0.16976,1.0494,-1,1
155,0.17081,1.0493,-1,1
156,0.17186,1.0483,-1,1
157,0.17289,1.0463,-1,1
158,0.17393,1.044,-1,1
159,0.17496,1.0421,-1,1
160,0.176,1.0415,-1,1
161,0.17704,1.0415,-1,1
162,0.17808,1.0416,-1,1
163,0.17912,1.0409,-1,1
164,0.18015,1.0393,-1,1
165,0.18118,1.0369,-1,1
166,0.1822,1.0349,-1,1
167,0.18323,1.0338,-1,1
168,0.18426,1.0335,-1,1
169,0.18529,1.0335,-1,1
170,0.18633,1.0331,-1,1
171,0.18735,1.0318,-1,1
172,0.18838,1.0297,-1,1
173,0.18939,1.0276,-1,1
174,0.19041,1.0262,-1,1
175,0.19144,1.0259,-1,1
176,0.19246,1.0259,-1,1
177,0.19349,1.0254,-1,1
178,0.19451,1.0246,-1,1
179,0.19552,1.0231,-1,1
180,0.19654,1.0214,-1,1
181,0.19755,1.0201,-1,1
182,0.19857,1.0197,-1,1
183,0.19959,1.0199,-1,1
184,0.20061,1.0198,-1,1
185,0.20163,1.0189,-1,1
186,0.20264,1.0174,-1,1
187,0.20365,1.0162,-1,1
188,0.20466,1.0156,-1,1
189,0.20568,1.0155,-1,1
190,0.20771,1.0151,-1,1
191,0.20871,1.0145,-1,1
192,0.20973,1.0137,-1,1
193,0.20973,1.0126,-1,1
194,0.21174,1.0117,-1,1
195,0.21275,1.0112,-1,1
196,0.21376,1.0112,-1,1
197,0.21477,1.011,-1,1
198,0.21578,1.0102,-1,1
199,0.21679,1.0093,-1,1
200,0.2178,1.0088,-1,1
201,0.2188,1.0085,-1,1
202,0.21981,1.0081,-1,1
203,0.22081,1.0077,-1,1
204,0.22182,1.0075,-1,1
205,0.22283,1.007,-1,1
206,0.22484,1.0065,-1,1
207,0.22584,1.0056,-1,1
208,0.22684,1.0049,-1,1
209,0.22784,1.0044,-1,1
210,0.22884,1.0041,-1,1
211,0.22985,1.0039,-1,1
212,0.23085,1.0037,-1,1
213,0.23185,1.0033,-1,1
214,0.23285,1.0027,-1,1
215,0.23385,1.002,-1,1
216,0.23485,1.0013,-1,1
217,0.23584,1.0009,-1,1
218,0.23684,1.0005,-1,1
219,0.23784,1.0001,-1,1
220,0.23884,0.9997,-1,1
221,0.23984,0.999,-1,1
222,0.24083,0.9982,-1,1
223,0.24183,0.9975,-1,1
224,0.24282,0.9968,-1,1
225,0.24382,0.9965,-1,1
226,0.24481,0.9962,-1,1
227,0.24581,0.9961,-1,1
228,0.2468,0.996,-1,1
229,0.2478,0.9959,-1,1
230,0.2488,0.9956,-1,1
231,0.24979,0.9952,-1,1
232,0.25078,0.9947,-1,1
233,0.25177,0.9943,-1,1
234,0.25276,0.9941,-1,1
235,0.25375,0.9939,-1,1
236,0.25475,0.9937,-1,1
237,0.25574,0.9937,-1,1
238,0.25674,0.9936,-1,1
239,0.25773,0.9932,-1,1
240,0.25872,0.9926,-1,1
241,0.25971,0.9923,-1,1
242,0.2607,0.9922,-1,1
243,0.26169,0.9926,-1,1
244,0.26269,0.9929,-1,1
245,0.26368,0.993,-1,1
246,0.26468,0.993,-1,1
247,0.26567,0.9925,-1,1
248,0.26666,0.992,-1,1
249,0.26765,0.992,-1,1
250,0.26865,0.9923,-1,1
251,0.26964,0.993,-1,1
252,0.27064,0.9937,-1,1
253,0.27164,0.994,-1,1
254,0.27263,0.9939,-1,1
255,0.27362,0.9937,-1,1
256,0.27462,0.9938,-1,1
257,0.27561,0.9944,-1,1
258,0.27661,0.9952,-1,1
259,0.27761,0.9959,-1,1
260,0.27861,0.9966,-1,1
261,0.27961,0.9969,-1,1
262,0.28061,0.9973,-1,1
263,0.28161,0.9974,-1,1
264,0.28261,0.9977,-1,1
265,0.28361,0.9984,-1,1
266,0.28461,0.9992,-1,1
267,0.28562,1.0004,-1,1
268,0.28662,1.0015,-1,1
269,0.28763,1.0021,-1,1
270,0.28864,1.0029,-1,1
271,0.28964,1.0033,-1,1
272,0.29166,1.0041,-1,1
273,0.29267,1.0054,-1,1
274,0.29368,1.0071,-1,1
275,0.2947,1.0091,-1,1
276,0.29572,1.0105,-1,1
277,0.29673,1.0112,-1,1
278,0.29775,1.0119,-1,1
279,0.29876,1.0129,-1,1
280,0.29978,1.0141,-1,1
281,0.30081,1.0163,-1,1
282,0.30286,1.0182,-1,1
283,0.30389,1.02,-1,1
284,0.30492,1.0215,-1,1
285,0.30595,1.0225,-1,1
286,0.30698,1.0239,-1,1
287,0.30801,1.0258,-1,1
288,0.30905,1.0281,-1,1
289,0.31009,1.0306,-1,1
290,0.31114,1.0329,-1,1
291,0.31218,1.0348,-1,1
292,0.31323,1.0365,-1,1
293,0.31427,1.0383,-1,1
294,0.31532,1.0401,-1,1
295,0.31637,1.0422,-1,1
296,0.31743,1.0452,-1,1
297,0.31849,1.0478,-1,1
298,0.31956,1.05,-1,1
299,0.32168,1.0522,-1,1
300,0.32275,1.0544,-1,1
301,0.32381,1.0567,-1,1
302,0.32489,1.0596,-1,1
303,0.32596,1.0624,-1,1
304,0.32704,1.0655,-1,1
305,0.32812,1.0687,-1,1
306,0.32921,1.0709,-1,1
307,0.33029,1.073,-1,1
308,0.33137,1.0753,-1,1
309,0.33246,1.0779,-1,1
310,0.33465,1.081,-1,1
311,0.33575,1.084,-1,1
312,0.33685,1.0866,-1,1
313,0.33795,1.089,-1,1
314,0.33905,1.0911,-1,1
315,0.34015,1.0932,-1,1
316,0.34126,1.0959,-1,1
317,0.34237,1.0991,-1,1
318,0.34349,1.1023,-1,1
319,0.3446,1.1048,-1,1
320,0.34572,1.1066,-1,1
321,0.34683,1.1083,-1,1
322,0.34795,1.1102,-1,1
323,0.34907,1.1128,-1,1
324,0.3502,1.1156,-1,1
325,0.35133,1.1183,-1,1
326,0.35246,1.1202,-1,1
327,0.35359,1.1215,-1,1
328,0.35471,1.1226,-1,1
329,0.35585,1.1244,-1,1
330,0.35699,1.127,-1,1
331,0.35812,1.1295,-1,1
332,0.35926,1.1315,-1,1
333,0.3604,1.1328,-1,1
334,0.36154,1.1337,-1,1
335,0.36268,1.1346,-1,1
336,0.36382,1.1363,-1,1
337,0.36497,1.1386,-1,1
338,0.36612,1.141,-1,1
339,0.36727,1.1425,-1,1
340,0.36842,1.143,-1,1
341,0.36956,1.1436,-1,1
342,0.37071,1.1447,-1,1
343,0.37187,1.1465,-1,1
344,0.37303,1.1486,-1,1
345,0.37418,1.1504,-1,1
346,0.37534,1.1514,-1,1
347,0.37649,1.1516,-1,1
348,0.37764,1.1518,-1,1
349,0.3788,1.1529,-1,1
350,0.37996,1.1547,-1,1
351,0.38113,1.1566,-1,1
352,0.38229,1.1576,-1,1
353,0.38344,1.1577,-1,1
354,0.3846,1.1577,-1,1
355,0.38576,1.1579,-1,1
356,0.38692,1.1588,-1,1
357,0.38809,1.1601,-1,1
358,0.38926,1.1614,-1,1
359,0.39042,1.162,-1,1
360,0.39158,1.1619,-1,1
361,0.39274,1.1616,-1,1
362,0.3939,1.1618,-1,1
363,0.39507,1.1624,-1,1
364,0.39623,1.1631,-1,1
365,0.3974,1.1637,-1,1
366,0.39857,1.1639,-1,1
367,0.39973,1.1639,-1,1
368,0.40089,1.1635,-1,1
369,0.40205,1.1632,-1,1
370,0.40322,1.1634,-1,1
371,0.40438,1.1636,-1,1
372,0.40554,1.1638,-1,1
373,0.40671,1.1638,-1,1
374,0.40787,1.1634,-1,1
375,0.40903,1.1629,-1,1
376,0.41019,1.1621,-1,1
377,0.41135,1.1618,-1,1
378,0.41251,1.1618,-1,1
379,0.41367,1.1618,-1,1
380,0.41483,1.1612,-1,1
381,0.41598,1.1604,-1,1
382,0.41714,1.1597,-1,1
383,0.4183,1.1592,-1,1
384,0.41946,1.1587,-1,1
385,0.42061,1.1585,-1,1
386,0.42177,1.1581,-1,1
387,0.42292,1.1574,-1,1
388,0.42407,1.1564,-1,1
389,0.42523,1.1556,-1,1
390,0.42638,1.155,-1,1
391,0.42753,1.155,-1,1
392,0.42869,1.1546,-1,1
393,0.42984,1.1539,-1,1
394,0.43099,1.153,-1,1
395,0.43213,1.1518,-1,1
396,0.43442,1.1513,-1,1
397,0.43558,1.1509,-1,1
398,0.43673,1.1508,-1,1
399,0.43787,1.1501,-1,1
400,0.43901,1.149,-1,1
401,0.44015,1.1472,-1,1
402,0.44129,1.146,-1,1
403,0.44244,1.1457,-1,1
404,0.44359,1.1459,-1,1
405,0.44474,1.1459,-1,1
406,0.44587,1.1449,-1,1
407,0.44701,1.1432,-1,1
408,0.44814,1.1421,-1,1
409,0.45043,1.1422,-1,1
410,0.45158,1.1428,-1,1
411,0.45272,1.1431,-1,1
412,0.45385,1.1423,-1,1
413,0.45385,1.1404,-1,1
414,0.45498,1.139,-1,1
415,0.45725,1.1384,-1,1
416,0.4584,1.139,-1,1
417,0.45954,1.1402,-1,1
418,0.46068,1.1399,-1,1
419,0.46181,1.1382,-1,1
420,0.46294,1.1364,-1,1
421,0.46408,1.1358,-1,1
422,0.46522,1.1366,-1,1
423,0.46636,1.1382,-1,1
424,0.4675,1.1389,-1,1
425,0.46864,1.1383,-1,1
426,0.46977,1.1369,-1,1
427,0.4709,1.1355,-1,1
428,0.47204,1.1355,-1,1
429,0.47318,1.1367,-1,1
430,0.47432,1.1382,-1,1
431,0.47547,1.139,-1,1
432,0.4766,1.1386,-1,1
433,0.47774,1.1375,-1,1
434,0.47887,1.1369,-1,1
435,0.48001,1.1375,-1,1
436,0.48116,1.1389,-1,1
437,0.48231,1.1407,-1,1
438,0.48345,1.1418,-1,1
439,0.4846,1.1421,-1,1
440,0.48574,1.1418,-1,1
441,0.48689,1.1419,-1,1
442,0.48803,1.1428,-1,1
443,0.48918,1.1446,-1,1
444,0.49034,1.1466,-1,1
445,0.4915,1.1483,-1,1
446,0.49265,1.1492,-1,1
447,0.4938,1.1497,-1,1
448,0.49496,1.1502,-1,1
449,0.49611,1.1514,-1,1
450,0.49728,1.1536,-1,1
451,0.49844,1.1557,-1,1
452,0.49961,1.1577,-1,1
453,0.50077,1.159,-1,1
454,0.50194,1.1602,-1,1
455,0.50311,1.1615,-1,1
456,0.50428,1.1633,-1,1
457,0.50546,1.1652,-1,1
458,0.50663,1.1677,-1,1
459,0.50782,1.1701,-1,1
460,0.509,1.1721,-1,1
461,0.51018,1.1738,-1,1
462,0.51137,1.1758,-1,1
463,0.51256,1.1782,-1,1
464,0.51375,1.1805,-1,1
465,0.51494,1.183,-1,1
466,0.51614,1.1857,-1,1
467,0.51734,1.1885,-1,1
468,0.51854,1.1909,-1,1
469,0.51975,1.1932,-1,1
470,0.52095,1.1955,-1,1
471,0.52217,1.1987,-1,1
472,0.52339,1.2017,-1,1
473,0.5246,1.2047,-1,1
474,0.52583,1.2078,-1,1
475,0.52705,1.2105,-1,1
476,0.52827,1.2132,-1,1
477,0.5295,1.2162,-1,1
478,0.53074,1.2197,-1,1
479,0.53198,1.2233,-1,1
480,0.53323,1.2269,-1,1
481,0.53447,1.23,-1,1
482,0.53572,1.2334,-1,1
483,0.53697,1.2365,-1,1
484,0.53823,1.24,-1,1
485,0.53949,1.2439,-1,1
486,0.54076,1.2481,-1,1
487,0.54203,1.252,-1,1
488,0.5433,1.2555,-1,1
489,0.54457,1.259,-1,1
490,0.54585,1.2627,-1,1
491,0.54843,1.2675,-1,1
492,0.54973,1.2722,-1,1
493,0.55102,1.277,-1,1
494,0.55232,1.2813,-1,1
495,0.55363,1.2855,-1,1
496,0.55494,1.2897,-1,1
497,0.55625,1.2944,-1,1
498,0.55758,1.2994,-1,1
499,0.5589,1.3044,-1,1
500,0.56023,1.3094,-1,1
501,0.56289,1.3136,-1,1
502,0.56423,1.318,-1,1
503,0.56558,1.323,-1,1
504,0.56693,1.3281,-1,1
505,0.56828,1.3331,-1,1
506,0.56964,1.3378,-1,1
507,0.571,1.3421,-1,1
508,0.57237,1.3466,-1,1
509,0.57374,1.3513,-1,1
510,0.57512,1.3561,-1,1
511,0.57649,1.3604,-1,1
512,0.57788,1.3643,-1,1
513,0.57926,1.3681,-1,1
514,0.58065,1.3722,-1,1
515,0.58205,1.3766,-1,1
516,0.58345,1.3809,-1,1
517,0.58485,1.385,-1,1
518,0.58626,1.3887,-1,1
519,0.58767,1.3925,-1,1
520,0.58908,1.3961,-1,1
521,0.5905,1.4002,-1,1
522,0.59192,1.404,-1,1
523,0.59334,1.4078,-1,1
524,0.59476,1.4111,-1,1
525,0.5962,1.4146,-1,1
526,0.59763,1.4182,-1,1
527,0.59907,1.4218,-1,1
528,0.60051,1.4254,-1,1
529,0.60195,1.4285,-1,1
530,0.60339,1.4316,-1,1
531,0.60484,1.4345,-1,1
532,0.60629,1.4377,-1,1
533,0.60775,1.4407,-1,1
534,0.6092,1.4437,-1,1
535,0.61066,1.4461,-1,1
536,0.61212,1.4484,-1,1
537,0.61358,1.4509,-1,1
538,0.61504,1.4532,-1,1
539,0.61651,1.4555,-1,1
540,0.61797,1.4578,-1,1
541,0.61944,1.4599,-1,1
542,0.62091,1.4618,-1,1
543,0.62238,1.4635,-1,1
544,0.62385,1.4653,-1,1
545,0.62532,1.4668,-1,1
546,0.6268,1.4684,-1,1
547,0.62828,1.4699,-1,1
548,0.62975,1.4713,-1,1
549,0.63123,1.4727,-1,1
550,0.63271,1.4737,-1,1
551,0.63419,1.4746,-1,1
552,0.63567,1.4759,-1,1
553,0.63715,1.4769,-1,1
554,0.63863,1.478,-1,1
555,0.64011,1.479,-1,1
556,0.6416,1.4796,-1,1
557,0.64308,1.4801,-1,1
558,0.64456,1.4811,-1,1
559,0.64605,1.4816,-1,1
560,0.64753,1.4824,-1,1
561,0.64902,1.4828,-1,1
562,0.6505,1.4829,-1,1
563,0.65198,1.4831,-1,1
564,0.65347,1.4835,-1,1
565,0.65496,1.4841,-1,1
566,0.65644,1.4847,-1,1
567,0.65792,1.4847,-1,1
568,0.65941,1.4843,-1,1
569,0.66089,1.4843,-1,1
570,0.66238,1.4846,-1,1
571,0.66387,1.4851,-1,1
572,0.66535,1.4851,-1,1
573,0.66683,1.4851,-1,1
574,0.66831,1.4845,-1,1
575,0.67128,1.4843,-1,1
576,0.67277,1.484,-1,1
577,0.67425,1.4841,-1,1
578,0.67573,1.484,-1,1
579,0.67721,1.4839,-1,1
580,0.67869,1.483,-1,1
581,0.68017,1.4824,-1,1
582,0.68165,1.482,-1,1
583,0.68313,1.4819,-1,1
584,0.68462,1.4816,-1,1
585,0.68757,1.481,-1,1
586,0.68905,1.4801,-1,1
587,0.69053,1.4796,-1,1
588,0.69053,1.4792,-1,1
589,0.69348,1.4787,-1,1
590,0.69496,1.4785,-1,1
591,0.69643,1.4779,-1,1
592,0.69791,1.4774,-1,1
593,0.69938,1.4766,-1,1
594,0.70086,1.4761,-1,1
595,0.70233,1.4756,-1,1
596,0.7038,1.4756,-1,1
597,0.70528,1.4752,-1,1
598,0.70675,1.4744,-1,1
599,0.70822,1.4737,-1,1
600,0.70969,1.473,-1,1
601,0.71116,1.4726,-1,1
602,0.71263,1.4725,-1,1
603,0.7141,1.4721,-1,1
604,0.71557,1.4716,-1,1
605,0.71704,1.4708,-1,1
606,0.71997,1.4702,-1,1
607,0.71997,1.4699,-1,1
608,0.72144,1.47,-1,1
609,0.72437,1.4692,-1,1
610,0.72583,1.4683,-1,1
611,0.72583,1.4678,-1,1
612,0.72877,1.4676,-1,1
613,0.73024,1.4673,-1,1
614,0.7317,1.4665,-1,1
615,0.73315,1.4655,-1,1
616,0.73461,1.4644,-1,1
617,0.73608,1.4638,-1,1
618,0.73755,1.4637,-1,1
619,0.73901,1.4637,-1,1
620,0.74046,1.463,-1,1
621,0.74192,1.4616,-1,1
622,0.74337,1.4602,-1,1
623,0.74483,1.4597,-1,1
624,0.7463,1.4599,-1,1
625,0.74776,1.46,-1,1
626,0.7492,1.4591,-1,1
627,0.75065,1.4573,-1,1
628,0.7521,1.4557,-1,1
629,0.75356,1.4553,-1,1
630,0.75502,1.4555,-1,1
631,0.75647,1.4551,-1,1
632,0.75791,1.4538,-1,1
633,0.75936,1.4521,-1,1
634,0.76081,1.4508,-1,1
635,0.76226,1.4504,-1,1
636,0.76371,1.4503,-1,1
637,0.76515,1.4498,-1,1
638,0.76659,1.4483,-1,1
639,0.76803,1.4467,-1,1
640,0.76948,1.4458,-1,1
641,0.77093,1.4459,-1,1
642,0.77237,1.4456,-1,1
643,0.7738,1.4446,-1,1
644,0.77524,1.4432,-1,1
645,0.77668,1.4421,-1,1
646,0.77813,1.4417,-1,1
647,0.77957,1.4416,-1,1
648,0.781,1.441,-1,1
649,0.78243,1.4397,-1,1
650,0.78386,1.4384,-1,1
651,0.7853,1.4375,-1,1
652,0.78674,1.4374,-1,1
653,0.78818,1.4373,-1,1
654,0.7896,1.4364,-1,1
655,0.79103,1.4349,-1,1
656,0.79246,1.4334,-1,1
657,0.7939,1.4328,-1,1
658,0.79533,1.4331,-1,1
659,0.79676,1.4331,-1,1
660,0.79818,1.4319,-1,1
661,0.79961,1.4303,-1,1
662,0.80104,1.4292,-1,1
663,0.80246,1.4287,-1,1
664,0.80389,1.4287,-1,1
665,0.80531,1.4283,-1,1
666,0.80673,1.4274,-1,1
667,0.80816,1.4263,-1,1
668,0.80958,1.4252,-1,1
669,0.81101,1.4245,-1,1
670,0.81243,1.4244,-1,1
671,0.81384,1.4236,-1,1
672,0.81526,1.4226,-1,1
673,0.81668,1.4216,-1,1
674,0.8181,1.421,-1,1
675,0.81952,1.4203,-1,1
676,0.82093,1.4194,-1,1
677,0.82234,1.4179,-1,1
678,0.82375,1.4168,-1,1
679,0.82517,1.4162,-1,1
680,0.82658,1.4156,-1,1
681,0.82799,1.4146,-1,1
682,0.82939,1.4128,-1,1
683,0.83079,1.4111,-1,1
684,0.8322,1.4098,-1,1
685,0.83361,1.4093,-1,1
686,0.83502,1.4087,-1,1
687,0.83641,1.4076,-1,1
688,0.83781,1.4055,-1,1
689,0.8392,1.4033,-1,1
690,0.8406,1.4019,-1,1
691,0.842,1.4014,-1,1
692,0.8434,1.4009,-1,1
693,0.84478,1.3993,-1,1
694,0.84617,1.3968,-1,1
695,0.84756,1.3944,-1,1
696,0.84895,1.3931,-1,1
697,0.85034,1.3923,-1,1
698,0.85172,1.3913,-1,1
699,0.8531,1.3895,-1,1
700,0.85447,1.3869,-1,1
701,0.85585,1.3848,-1,1
702,0.85723,1.3834,-1,1
703,0.85861,1.3824,-1,1
704,0.85998,1.381,-1,1
705,0.86134,1.3787,-1,1
706,0.86271,1.3763,-1,1
707,0.86408,1.3745,-1,1
708,0.86545,1.3732,-1,1
709,0.86817,1.3711,-1,1
710,0.86952,1.3689,-1,1
711,0.87088,1.3668,-1,1
712,0.87224,1.3647,-1,1
713,0.8736,1.3627,-1,1
714,0.87495,1.3606,-1,1
715,0.87629,1.3583,-1,1
716,0.87763,1.3558,-1,1
717,0.87898,1.3536,-1,1
718,0.88033,1.3517,-1,1
719,0.88301,1.3495,-1,1
720,0.88434,1.3469,-1,1
721,0.88567,1.344,-1,1
722,0.887,1.3417,-1,1
723,0.88834,1.34,-1,1
724,0.88968,1.3384,-1,1
725,0.891,1.3364,-1,1
726,0.89231,1.3335,-1,1
727,0.89363,1.3304,-1,1
728,0.89495,1.3277,-1,1
729,0.89628,1.327,-1,1
730,0.8976,1.3262,-1,1
731,0.89891,1.324,-1,1
732,0.90021,1.3205,-1,1
733,0.90152,1.3172,-1,1
734,0.90283,1.3151,-1,1
735,0.90414,1.3145,-1,1
736,0.90545,1.3136,-1,1
737,0.90674,1.3113,-1,1
738,0.90804,1.3081,-1,1
739,0.90933,1.3052,-1,1
740,0.91063,1.3034,-1,1
741,0.91194,1.3027,-1,1
742,0.91323,1.3018,-1,1
743,0.91451,1.2994,-1,1
744,0.91579,1.2964,-1,1
745,0.91708,1.2936,-1,1
746,0.91837,1.2922,-1,1
747,0.91966,1.2917,-1,1
748,0.92094,1.2908,-1,1
749,0.92222,1.2882,-1,1
750,0.92348,1.2848,-1,1
751,0.92475,1.2818,-1,1
752,0.92603,1.2802,-1,1
753,0.92732,1.2804,-1,1
754,0.92859,1.2796,-1,1
755,0.92985,1.2772,-1,1
756,0.93111,1.2739,-1,1
757,0.93237,1.2705,-1,1
758,0.93363,1.2689,-1,1
759,0.9349,1.2686,-1,1
760,0.93617,1.2686,-1,1
761,0.93743,1.2673,-1,1
762,0.93868,1.2643,-1,1
763,0.93992,1.2607,-1,1
764,0.94118,1.2588,-1,1
765,0.94243,1.2582,-1,1
766,0.94369,1.2578,-1,1
767,0.94494,1.2571,-1,1
768,0.94618,1.2543,-1,1
769,0.94741,1.2512,-1,1
770,0.94865,1.2485,-1,1
771,0.9499,1.2473,-1,1
772,0.95115,1.2469,-1,1
773,0.95238,1.2459,-1,1
774,0.95361,1.2433,-1,1
775,0.95484,1.2402,-1,1
776,0.95607,1.2377,-1,1
777,0.9573,1.2361,-1,1
778,0.95853,1.2357,-1,1
779,0.95976,1.2347,-1,1
780,0.96098,1.2325,-1,1
781,0.96219,1.229,-1,1
782,0.96341,1.2262,-1,1
783,0.96463,1.2248,-1,1
784,0.96586,1.2246,-1,1
785,0.96707,1.2239,-1,1
786,0.96828,1.2216,-1,1
787,0.96948,1.2181,-1,1
788,0.97068,1.2144,-1,1
789,0.97188,1.2124,-1,1
790,0.9731,1.212,-1,1
791,0.97431,1.212,-1,1
792,0.97551,1.2104,-1,1
793,0.9767,1.2068,-1,1
794,0.97788,1.2024,-1,1
795,0.97906,1.1991,-1,1
796,0.98026,1.198,-1,1
797,0.98146,1.1981,-1,1
798,0.98265,1.1977,-1,1
799,0.98384,1.1952,-1,1
800,0.98501,1.1906,-1,1
801,0.98618,1.1869,-1,1
802,0.98735,1.1852,-1,1
803,0.98972,1.1849,-1,1
804,0.99089,1.1842,-1,1
805,0.99206,1.1822,-1,1
806,0.99322,1.1785,-1,1
807,0.99438,1.1744,-1,1
808,0.99554,1.1718,-1,1
809,0.99671,1.1704,-1,1
810,0.99904,1.1695,-1,1
811,0.99904,1.1671,-1,1
812,1.00019,1.1638,-1,1
813,1.00133,1.1596,-1,1
814,1.00362,1.1571,-1,1
815,1.00478,1.1557,-1,1
816,1.00593,1.1548,-1,1
817,1.00707,1.153,-1,1
818,1.0082,1.1495,-1,1
819,1.00933,1.1454,-1,1
820,1.01046,1.1426,-1,1
821,1.01159,1.1411,-1,1
822,1.01273,1.1396,-1,1
823,1.01386,1.1382,-1,1
824,1.01498,1.1353,-1,1
825,1.01609,1.1315,-1,1
826,1.0172,1.1278,-1,1
827,1.01832,1.1253,-1,1
828,1.01944,1.1238,-1,1
829,1.02055,1.1228,-1,1
830,1.02166,1.1207,-1,1
831,1.02277,1.1174,-1,1
832,1.02386,1.1135,-1,1
833,1.02496,1.1101,-1,1
834,1.02606,1.1079,-1,1
835,1.02716,1.1065,-1,1
836,1.02825,1.1049,-1,1
837,1.02934,1.1023,-1,1
