cnt,pos,speed,Dir,Force,
1,0,1.0029,-1,1
2,0.00101995,1.007,-1,1
3,0.00204992,1.0108,-1,1
4,0.00307989,1.0147,-1,1
5,0.00411987,1.0186,-1,1
6,0.00515985,1.0223,-1,1
7,0.00619984,1.026,-1,1
8,0.00723982,1.0294,-1,1
9,0.00828981,1.0325,-1,1
10,0.00933981,1.0361,-1,1
11,0.0103998,1.04,-1,1
12,0.0114598,1.0438,-1,1
13,0.0125198,1.0476,-1,1
14,0.0135899,1.0509,-1,1
15,0.0146499,1.0538,-1,1
16,0.0157199,1.0565,-1,1
17,0.0167899,1.0595,-1,1
18,0.0178699,1.0628,-1,1
19,0.01896,1.0668,-1,1
20,0.02004,1.0703,-1,1
21,0.0211296,1.0731,-1,1
22,0.0222096,1.0753,-1,1
23,0.0232897,1.0772,-1,1
24,0.0243797,1.0795,-1,1
25,0.0254798,1.0827,-1,1
26,0.0265799,1.0861,-1,1
27,0.0276799,1.0892,-1,1
28,0.02879,1.0916,-1,1
29,0.0298901,1.0931,-1,1
30,0.0320897,1.0948,-1,1
31,0.0320897,1.0973,-1,1
32,0.0331998,1.1001,-1,1
33,0.0343199,1.1034,-1,1
34,0.03655,1.1059,-1,1
35,0.0376596,1.1075,-1,1
36,0.0387797,1.1086,-1,1
37,0.0398898,1.1101,-1,1
38,0.0410199,1.1123,-1,1
39,0.04214,1.1149,-1,1
40,0.0432696,1.1171,-1,1
41,0.0443897,1.1183,-1,1
42,0.0455098,1.1195,-1,1
43,0.0466399,1.1204,-1,1
44,0.04777,1.1221,-1,1
45,0.0489097,1.1242,-1,1
46,0.0511699,1.1261,-1,1
47,0.0523,1.1275,-1,1
48,0.0534396,1.1287,-1,1
49,0.0545797,1.13,-1,1
50,0.0557199,1.1315,-1,1
51,0.05686,1.1334,-1,1
52,0.0579996,1.1353,-1,1
53,0.0591397,1.1368,-1,1
54,0.0602798,1.1378,-1,1
55,0.06143,1.139,-1,1
56,0.0625796,1.1407,-1,1
57,0.0637298,1.1423,-1,1
58,0.0648699,1.1435,-1,1
59,0.06602,1.1447,-1,1
60,0.0683198,1.1458,-1,1
61,0.0694799,1.1469,-1,1
62,0.0706301,1.148,-1,1
63,0.0717797,1.1494,-1,1
64,0.0729399,1.1507,-1,1
65,0.07409,1.1516,-1,1
66,0.0752497,1.1522,-1,1
67,0.0763998,1.1531,-1,1
68,0.0775599,1.154,-1,1
69,0.0787196,1.1547,-1,1
70,0.0798798,1.1555,-1,1
71,0.0810399,1.1562,-1,1
72,0.0822001,1.1569,-1,1
73,0.0833497,1.1571,-1,1
74,0.0845098,1.1575,-1,1
75,0.08567,1.158,-1,1
76,0.0868297,1.1587,-1,1
77,0.0879998,1.1594,-1,1
78,0.08916,1.16,-1,1
79,0.0903196,1.1605,-1,1
80,0.0926399,1.1605,-1,1
81,0.0938001,1.1603,-1,1
82,0.0949597,1.1603,-1,1
83,0.0961199,1.1607,-1,1
84,0.09728,1.1612,-1,1
85,0.0984497,1.1612,-1,1
86,0.0995998,1.1609,-1,1
87,0.10076,1.16,-1,1
88,0.10191,1.1593,-1,1
89,0.10307,1.1592,-1,1
90,0.1054,1.1597,-1,1
91,0.10656,1.1599,-1,1
92,0.10656,1.1594,-1,1
93,0.10771,1.1588,-1,1
94,0.10887,1.1578,-1,1
95,0.11002,1.1569,-1,1
96,0.11117,1.1564,-1,1
97,0.11233,1.1564,-1,1
98,0.11348,1.1566,-1,1
99,0.11464,1.1553,-1,1
100,0.11579,1.1535,-1,1
101,0.11808,1.1522,-1,1
102,0.11923,1.1516,-1,1
103,0.11923,1.1512,-1,1
104,0.12038,1.151,-1,1
105,0.12153,1.1509,-1,1
106,0.12268,1.1503,-1,1
107,0.12382,1.149,-1,1
108,0.12496,1.1473,-1,1
109,0.12725,1.1469,-1,1
110,0.12839,1.1471,-1,1
111,0.12954,1.1469,-1,1
112,0.13068,1.1461,-1,1
113,0.13182,1.1446,-1,1
114,0.13182,1.1431,-1,1
115,0.13295,1.1417,-1,1
116,0.13409,1.1409,-1,1
117,0.13523,1.1408,-1,1
118,0.13637,1.141,-1,1
119,0.13751,1.1399,-1,1
120,0.13978,1.1382,-1,1
121,0.14091,1.1367,-1,1
122,0.14204,1.1359,-1,1
123,0.14318,1.136,-1,1
124,0.14431,1.1361,-1,1
125,0.14545,1.1357,-1,1
126,0.14657,1.1345,-1,1
127,0.1477,1.1329,-1,1
128,0.14882,1.1309,-1,1
129,0.14995,1.13,-1,1
130,0.15108,1.1299,-1,1
131,0.15221,1.1299,-1,1
132,0.15333,1.1291,-1,1
133,0.15445,1.1274,-1,1
134,0.15557,1.1253,-1,1
135,0.15668,1.1237,-1,1
136,0.1578,1.1227,-1,1
137,0.15892,1.1223,-1,1
138,0.16004,1.1221,-1,1
139,0.16116,1.1213,-1,1
140,0.16227,1.1194,-1,1
141,0.16338,1.1171,-1,1
142,0.16448,1.1152,-1,1
143,0.16559,1.114,-1,1
144,0.1667,1.1135,-1,1
145,0.16781,1.1129,-1,1
146,0.16892,1.1118,-1,1
147,0.17002,1.1099,-1,1
148,0.17112,1.1078,-1,1
149,0.17222,1.1057,-1,1
150,0.17331,1.1043,-1,1
151,0.17441,1.1036,-1,1
152,0.17551,1.1032,-1,1
153,0.17661,1.1021,-1,1
154,0.1777,1.1001,-1,1
155,0.17879,1.0977,-1,1
156,0.17987,1.0956,-1,1
157,0.18096,1.0941,-1,1
158,0.18205,1.0931,-1,1
159,0.18314,1.0923,-1,1
160,0.18422,1.0912,-1,1
161,0.1853,1.0892,-1,1
162,0.18638,1.0867,-1,1
163,0.18745,1.0843,-1,1
164,0.18853,1.0826,-1,1
165,0.1896,1.0817,-1,1
166,0.19068,1.0806,-1,1
167,0.19175,1.0792,-1,1
168,0.19282,1.0773,-1,1
169,0.19389,1.075,-1,1
170,0.19495,1.0724,-1,1
171,0.19601,1.0705,-1,1
172,0.19707,1.069,-1,1
173,0.19813,1.068,-1,1
174,0.1992,1.0668,-1,1
175,0.20025,1.0649,-1,1
176,0.20131,1.0626,-1,1
177,0.20236,1.0602,-1,1
178,0.2034,1.0581,-1,1
179,0.20445,1.0564,-1,1
180,0.2055,1.0552,-1,1
181,0.2076,1.0539,-1,1
182,0.20864,1.0521,-1,1
183,0.20968,1.0495,-1,1
184,0.21071,1.0467,-1,1
185,0.21174,1.0442,-1,1
186,0.21278,1.0426,-1,1
187,0.21382,1.0412,-1,1
188,0.21485,1.0396,-1,1
189,0.21588,1.0377,-1,1
190,0.2169,1.0354,-1,1
191,0.21792,1.0328,-1,1
192,0.21894,1.0304,-1,1
193,0.21996,1.0286,-1,1
194,0.222,1.0272,-1,1
195,0.22302,1.0258,-1,1
196,0.22302,1.0235,-1,1
197,0.22403,1.0213,-1,1
198,0.22504,1.0186,-1,1
199,0.22605,1.0164,-1,1
200,0.22705,1.0144,-1,1
201,0.22806,1.0128,-1,1
202,0.22906,1.0114,-1,1
203,0.23007,1.0098,-1,1
204,0.23107,1.0079,-1,1
205,0.23206,1.0051,-1,1
206,0.23306,1.0027,-1,1
207,0.23404,1.0001,-1,1
208,0.23503,0.9982,-1,1
209,0.23602,0.9964,-1,1
210,0.23701,0.9949,-1,1
211,0.238,0.993,-1,1
212,0.23898,0.9906,-1,1
213,0.23995,0.9879,-1,1
214,0.24093,0.9853,-1,1
215,0.2419,0.9833,-1,1
216,0.24287,0.9812,-1,1
217,0.24384,0.9795,-1,1
218,0.24481,0.9775,-1,1
219,0.24578,0.9753,-1,1
220,0.24674,0.9727,-1,1
221,0.2477,0.9697,-1,1
222,0.24865,0.967,-1,1
223,0.2496,0.9646,-1,1
224,0.25055,0.9622,-1,1
225,0.2515,0.9599,-1,1
226,0.25245,0.9578,-1,1
227,0.25339,0.955,-1,1
228,0.25434,0.9523,-1,1
229,0.25528,0.9496,-1,1
230,0.25621,0.9468,-1,1
231,0.25714,0.9441,-1,1
232,0.25807,0.9415,-1,1
233,0.259,0.9389,-1,1
234,0.25992,0.9364,-1,1
235,0.26085,0.934,-1,1
236,0.26177,0.9309,-1,1
237,0.26359,0.928,-1,1
238,0.26451,0.9251,-1,1
239,0.26451,0.9219,-1,1
240,0.26541,0.9191,-1,1
241,0.26632,0.9165,-1,1
242,0.26722,0.9136,-1,1
243,0.26812,0.9109,-1,1
244,0.26902,0.9082,-1,1
245,0.2708,0.9048,-1,1
246,0.2708,0.9018,-1,1
247,0.27257,0.8988,-1,1
248,0.27345,0.8961,-1,1
249,0.27434,0.8935,-1,1
250,0.27434,0.8904,-1,1
251,0.27521,0.8877,-1,1
252,0.27609,0.885,-1,1
253,0.27695,0.8821,-1,1
254,0.27782,0.879,-1,1
255,0.27955,0.8763,-1,1
256,0.28041,0.8737,-1,1
257,0.28127,0.871,-1,1
258,0.28212,0.8681,-1,1
259,0.28298,0.8651,-1,1
260,0.28383,0.8625,-1,1
261,0.28468,0.8596,-1,1
262,0.28552,0.8568,-1,1
263,0.28636,0.8538,-1,1
264,0.2872,0.8508,-1,1
265,0.28804,0.8482,-1,1
266,0.28887,0.8456,-1,1
267,0.2897,0.8431,-1,1
268,0.29053,0.8404,-1,1
269,0.29136,0.838,-1,1
270,0.29218,0.8357,-1,1
271,0.29301,0.8334,-1,1
272,0.29383,0.8308,-1,1
273,0.29464,0.8281,-1,1
274,0.29545,0.8254,-1,1
275,0.29626,0.8227,-1,1
276,0.29707,0.8204,-1,1
277,0.29788,0.8183,-1,1
278,0.29869,0.8162,-1,1
279,0.29949,0.8137,-1,1
280,0.30029,0.8107,-1,1
281,0.30109,0.8078,-1,1
282,0.30188,0.8053,-1,1
283,0.30267,0.8033,-1,1
284,0.30346,0.8011,-1,1
285,0.30425,0.7984,-1,1
286,0.30581,0.7956,-1,1
287,0.3066,0.7928,-1,1
288,0.30738,0.7902,-1,1
289,0.30815,0.7876,-1,1
290,0.30893,0.785,-1,1
291,0.30969,0.7822,-1,1
292,0.31046,0.7794,-1,1
293,0.31123,0.7767,-1,1
294,0.31199,0.7743,-1,1
295,0.31275,0.7721,-1,1
296,0.31351,0.7694,-1,1
297,0.31426,0.7667,-1,1
298,0.31502,0.7642,-1,1
299,0.31653,0.7617,-1,1
300,0.31727,0.759,-1,1
301,0.31727,0.7563,-1,1
302,0.31801,0.7538,-1,1
303,0.31875,0.7509,-1,1
304,0.31949,0.7481,-1,1
305,0.32023,0.7461,-1,1
306,0.32096,0.7441,-1,1
307,0.32169,0.7415,-1,1
308,0.32242,0.7384,-1,1
309,0.32315,0.7357,-1,1
310,0.3246,0.7336,-1,1
311,0.32531,0.7314,-1,1
312,0.32531,0.7287,-1,1
313,0.32603,0.7264,-1,1
314,0.32674,0.7238,-1,1
315,0.32745,0.7206,-1,1
316,0.32816,0.7178,-1,1
317,0.32886,0.7155,-1,1
318,0.32957,0.7136,-1,1
319,0.33027,0.7111,-1,1
320,0.33097,0.7083,-1,1
321,0.33236,0.7059,-1,1
322,0.33305,0.7035,-1,1
323,0.33305,0.701,-1,1
324,0.33374,0.6988,-1,1
325,0.33443,0.6964,-1,1
326,0.33511,0.6941,-1,1
327,0.33579,0.6916,-1,1
328,0.33647,0.6886,-1,1
329,0.33783,0.6862,-1,1
330,0.3385,0.6841,-1,1
331,0.33917,0.682,-1,1
332,0.33984,0.68,-1,1
333,0.33984,0.6778,-1,1
334,0.34051,0.6756,-1,1
335,0.34117,0.6733,-1,1
336,0.34183,0.6706,-1,1
337,0.34249,0.6684,-1,1
338,0.34315,0.6665,-1,1
339,0.3438,0.6644,-1,1
340,0.34445,0.6622,-1,1
341,0.3451,0.6594,-1,1
342,0.3464,0.6569,-1,1
343,0.34704,0.6546,-1,1
344,0.34704,0.6521,-1,1
345,0.34768,0.6501,-1,1
346,0.34832,0.6482,-1,1
347,0.34896,0.6458,-1,1
348,0.34959,0.6431,-1,1
349,0.35022,0.6405,-1,1
350,0.35084,0.638,-1,1
351,0.35147,0.6357,-1,1
352,0.35209,0.6333,-1,1
353,0.35333,0.6307,-1,1
354,0.35394,0.6279,-1,1
355,0.35394,0.6249,-1,1
356,0.35456,0.6221,-1,1
357,0.35517,0.6197,-1,1
358,0.35578,0.6176,-1,1
359,0.35638,0.6153,-1,1
360,0.35698,0.6125,-1,1
361,0.35818,0.6101,-1,1
362,0.35878,0.6076,-1,1
363,0.35937,0.605,-1,1
364,0.35996,0.6025,-1,1
365,0.36055,0.5999,-1,1
366,0.36113,0.5974,-1,1
367,0.36172,0.5948,-1,1
368,0.3623,0.5922,-1,1
369,0.36288,0.5895,-1,1
370,0.36346,0.5868,-1,1
371,0.3646,0.5841,-1,1
372,0.36517,0.5816,-1,1
373,0.36574,0.5792,-1,1
374,0.3663,0.5769,-1,1
375,0.36687,0.5744,-1,1
376,0.36742,0.5716,-1,1
377,0.36798,0.5688,-1,1
378,0.36853,0.566,-1,1
379,0.36909,0.5635,-1,1
380,0.36964,0.5614,-1,1
381,0.37019,0.5591,-1,1
382,0.37074,0.5566,-1,1
383,0.37128,0.5544,-1,1
384,0.37183,0.5522,-1,1
385,0.37237,0.5503,-1,1
386,0.37291,0.5483,-1,1
387,0.37344,0.5463,-1,1
388,0.37398,0.5442,-1,1
389,0.37451,0.5419,-1,1
390,0.37504,0.5396,-1,1
391,0.37557,0.5375,-1,1
392,0.37609,0.5356,-1,1
393,0.37662,0.5335,-1,1
394,0.37714,0.5315,-1,1
395,0.37766,0.5293,-1,1
396,0.37818,0.5273,-1,1
397,0.3787,0.5252,-1,1
398,0.37921,0.5234,-1,1
399,0.37973,0.5218,-1,1
400,0.38024,0.5201,-1,1
401,0.38075,0.5184,-1,1
402,0.38126,0.5165,-1,1
403,0.38177,0.5147,-1,1
404,0.38227,0.5129,-1,1
405,0.38278,0.5113,-1,1
406,0.38328,0.5096,-1,1
407,0.38378,0.5079,-1,1
408,0.38427,0.5062,-1,1
409,0.38477,0.5044,-1,1
410,0.38527,0.5029,-1,1
411,0.38576,0.5013,-1,1
412,0.38626,0.4999,-1,1
413,0.38675,0.4985,-1,1
414,0.38724,0.497,-1,1
415,0.38773,0.4956,-1,1
416,0.38822,0.4944,-1,1
417,0.38871,0.4935,-1,1
418,0.3892,0.4924,-1,1
419,0.38968,0.4914,-1,1
420,0.39017,0.4902,-1,1
421,0.39065,0.4891,-1,1
422,0.39114,0.488,-1,1
423,0.39162,0.4868,-1,1
424,0.3921,0.4858,-1,1
425,0.39258,0.4849,-1,1
426,0.39306,0.484,-1,1
427,0.39354,0.4829,-1,1
428,0.39402,0.482,-1,1
429,0.3945,0.4812,-1,1
430,0.39498,0.4805,-1,1
431,0.39545,0.4799,-1,1
432,0.39593,0.4794,-1,1
433,0.39641,0.4792,-1,1
434,0.39689,0.4788,-1,1
435,0.39737,0.4783,-1,1
436,0.39784,0.4779,-1,1
437,0.39832,0.4777,-1,1
438,0.39879,0.4774,-1,1
439,0.39927,0.4772,-1,1
440,0.39975,0.4772,-1,1
441,0.40022,0.4771,-1,1
442,0.4007,0.477,-1,1
443,0.40118,0.4768,-1,1
444,0.40166,0.4769,-1,1
445,0.40213,0.477,-1,1
446,0.40261,0.4771,-1,1
447,0.40309,0.4772,-1,1
448,0.40357,0.4776,-1,1
449,0.40405,0.4779,-1,1
450,0.40453,0.4782,-1,1
451,0.40501,0.4787,-1,1
452,0.40549,0.4793,-1,1
453,0.40598,0.4799,-1,1
454,0.40646,0.4804,-1,1
455,0.40694,0.4811,-1,1
456,0.40743,0.4819,-1,1
457,0.40791,0.4826,-1,1
458,0.4084,0.4832,-1,1
459,0.40889,0.4841,-1,1
460,0.40986,0.4849,-1,1
461,0.40986,0.4856,-1,1
462,0.41035,0.4862,-1,1
463,0.41084,0.4871,-1,1
464,0.41134,0.488,-1,1
465,0.41232,0.4889,-1,1
466,0.41282,0.4899,-1,1
467,0.41331,0.4909,-1,1
468,0.41381,0.492,-1,1
469,0.4143,0.4928,-1,1
470,0.4148,0.4936,-1,1
471,0.4153,0.4945,-1,1
472,0.4158,0.4954,-1,1
473,0.4163,0.496,-1,1
474,0.41679,0.4965,-1,1
475,0.41729,0.4971,-1,1
476,0.41779,0.4977,-1,1
477,0.41829,0.4983,-1,1
478,0.4188,0.4987,-1,1
479,0.41929,0.499,-1,1
480,0.4198,0.4993,-1,1
481,0.4203,0.4996,-1,1
482,0.4208,0.5001,-1,1
483,0.4213,0.5005,-1,1
484,0.4218,0.5009,-1,1
485,0.4223,0.5009,-1,1
486,0.4228,0.5007,-1,1
487,0.4233,0.5004,-1,1
488,0.4238,0.5004,-1,1
489,0.4243,0.5004,-1,1
490,0.4248,0.5003,-1,1
491,0.42529,0.4999,-1,1
492,0.42579,0.4992,-1,1
493,0.42629,0.4985,-1,1
494,0.42678,0.4979,-1,1
495,0.42728,0.4975,-1,1
496,0.42777,0.4972,-1,1
497,0.42826,0.4967,-1,1
498,0.42876,0.4959,-1,1
499,0.42925,0.4951,-1,1
500,0.42974,0.4942,-1,1
501,0.43023,0.4935,-1,1
502,0.43072,0.4928,-1,1
503,0.43121,0.4922,-1,1
504,0.43169,0.4913,-1,1
505,0.43218,0.4903,-1,1
506,0.43266,0.489,-1,1
507,0.43315,0.4882,-1,1
508,0.43363,0.4872,-1,1
509,0.43411,0.4862,-1,1
510,0.43459,0.4853,-1,1
511,0.43507,0.4844,-1,1
512,0.43555,0.4833,-1,1
513,0.43603,0.4822,-1,1
514,0.43651,0.4814,-1,1
515,0.43698,0.4806,-1,1
516,0.43746,0.4799,-1,1
517,0.43793,0.479,-1,1
518,0.43841,0.4782,-1,1
519,0.43888,0.4774,-1,1
520,0.43935,0.4765,-1,1
521,0.43983,0.4755,-1,1
522,0.4403,0.4748,-1,1
523,0.44077,0.474,-1,1
524,0.44124,0.4733,-1,1
525,0.44171,0.4728,-1,1
526,0.44218,0.4721,-1,1
527,0.44265,0.4714,-1,1
528,0.44312,0.4708,-1,1
529,0.44359,0.4704,-1,1
530,0.44406,0.4702,-1,1
531,0.44453,0.47,-1,1
532,0.445,0.4698,-1,1
533,0.44546,0.4697,-1,1
534,0.44593,0.4695,-1,1
535,0.44641,0.4695,-1,1
536,0.44688,0.4697,-1,1
537,0.44735,0.4699,-1,1
538,0.44782,0.47,-1,1
539,0.44829,0.47,-1,1
540,0.44876,0.4701,-1,1
541,0.44923,0.4703,-1,1
542,0.4497,0.4707,-1,1
543,0.45018,0.471,-1,1
544,0.45065,0.4714,-1,1
545,0.45112,0.4718,-1,1
546,0.4516,0.4722,-1,1
547,0.45208,0.4727,-1,1
548,0.45255,0.4733,-1,1
549,0.45303,0.474,-1,1
550,0.45351,0.4746,-1,1
551,0.45398,0.4754,-1,1
552,0.45447,0.4761,-1,1
553,0.45495,0.477,-1,1
554,0.45543,0.4777,-1,1
555,0.45591,0.4782,-1,1
556,0.45639,0.4789,-1,1
557,0.45687,0.4797,-1,1
558,0.45736,0.4805,-1,1
559,0.45784,0.4813,-1,1
560,0.45833,0.4822,-1,1
561,0.45881,0.483,-1,1
562,0.4593,0.4836,-1,1
563,0.45979,0.4844,-1,1
564,0.46028,0.4851,-1,1
565,0.46126,0.4859,-1,1
566,0.46175,0.4867,-1,1
567,0.46224,0.4874,-1,1
568,0.46273,0.4883,-1,1
569,0.46322,0.4891,-1,1
570,0.46371,0.4897,-1,1
571,0.46421,0.4904,-1,1
572,0.4647,0.4912,-1,1
573,0.4652,0.492,-1,1
574,0.46619,0.4929,-1,1
575,0.46669,0.4938,-1,1
576,0.46719,0.4946,-1,1
577,0.46769,0.4955,-1,1
578,0.46819,0.4962,-1,1
579,0.46869,0.4969,-1,1
580,0.46919,0.4978,-1,1
581,0.46969,0.4985,-1,1
582,0.47019,0.4995,-1,1
583,0.4707,0.5002,-1,1
584,0.4712,0.5011,-1,1
585,0.47171,0.5018,-1,1
586,0.47221,0.5027,-1,1
587,0.47272,0.5034,-1,1
588,0.47323,0.5043,-1,1
589,0.47374,0.5053,-1,1
590,0.47425,0.5063,-1,1
591,0.47477,0.5075,-1,1
592,0.47528,0.5086,-1,1
593,0.4758,0.5098,-1,1
594,0.47631,0.511,-1,1
595,0.47683,0.5124,-1,1
596,0.47735,0.5137,-1,1
597,0.47787,0.5152,-1,1
598,0.4784,0.5166,-1,1
599,0.47892,0.5181,-1,1
600,0.47945,0.5197,-1,1
601,0.47998,0.5213,-1,1
602,0.48051,0.5229,-1,1
603,0.48104,0.5245,-1,1
604,0.48158,0.5263,-1,1
605,0.48211,0.5281,-1,1
606,0.48265,0.5302,-1,1
607,0.4832,0.5322,-1,1
608,0.48374,0.5345,-1,1
609,0.48429,0.5369,-1,1
610,0.48484,0.5395,-1,1
611,0.4854,0.5421,-1,1
612,0.48595,0.5446,-1,1
613,0.48651,0.5474,-1,1
614,0.48708,0.5502,-1,1
615,0.48764,0.5532,-1,1
616,0.48821,0.5561,-1,1
617,0.48879,0.5594,-1,1
618,0.48937,0.5626,-1,1
619,0.48995,0.5659,-1,1
620,0.49053,0.5692,-1,1
621,0.49113,0.5728,-1,1
622,0.49172,0.5768,-1,1
623,0.49232,0.5808,-1,1
624,0.49293,0.5851,-1,1
625,0.49354,0.5894,-1,1
626,0.49415,0.594,-1,1
627,0.49477,0.5985,-1,1
628,0.4954,0.6033,-1,1
629,0.49603,0.6082,-1,1
630,0.49667,0.6134,-1,1
631,0.49731,0.6187,-1,1
632,0.49797,0.6245,-1,1
633,0.49863,0.6305,-1,1
634,0.49929,0.6366,-1,1
635,0.49997,0.6429,-1,1
636,0.50064,0.6491,-1,1
637,0.50133,0.656,-1,1
638,0.50203,0.6629,-1,1
639,0.50273,0.6703,-1,1
640,0.50345,0.6778,-1,1
641,0.50417,0.6855,-1,1
642,0.50489,0.6929,-1,1
643,0.50563,0.7007,-1,1
644,0.50638,0.7089,-1,1
645,0.50714,0.7174,-1,1
646,0.50791,0.7262,-1,1
647,0.50868,0.735,-1,1
648,0.50947,0.744,-1,1
649,0.51026,0.7532,-1,1
650,0.51107,0.7624,-1,1
651,0.51189,0.7719,-1,1
652,0.51271,0.7815,-1,1
653,0.51355,0.7914,-1,1
654,0.51439,0.8013,-1,1
655,0.51525,0.8114,-1,1
656,0.51612,0.8216,-1,1
657,0.517,0.8317,-1,1
658,0.51789,0.8423,-1,1
659,0.51879,0.8527,-1,1
660,0.5197,0.8633,-1,1
661,0.52062,0.8737,-1,1
662,0.52155,0.8844,-1,1
663,0.5225,0.8952,-1,1
664,0.52346,0.9062,-1,1
665,0.52442,0.917,-1,1
666,0.5254,0.9278,-1,1
667,0.52639,0.9386,-1,1
668,0.52738,0.9492,-1,1
669,0.52839,0.9603,-1,1
670,0.52942,0.9714,-1,1
671,0.53045,0.9827,-1,1
672,0.53149,0.994,-1,1
673,0.53255,1.005,-1,1
674,0.53361,1.0158,-1,1
675,0.53469,1.0266,-1,1
676,0.53578,1.0376,-1,1
677,0.53687,1.0487,-1,1
678,0.53798,1.0601,-1,1
679,0.5391,1.0711,-1,1
680,0.54024,1.082,-1,1
681,0.54138,1.0927,-1,1
682,0.54253,1.1033,-1,1
683,0.54369,1.1139,-1,1
684,0.54486,1.1245,-1,1
685,0.54604,1.1353,-1,1
686,0.54724,1.1461,-1,1
687,0.54844,1.1567,-1,1
688,0.55087,1.1674,-1,1
689,0.5521,1.1782,-1,1
690,0.55334,1.1892,-1,1
691,0.55459,1.2004,-1,1
692,0.55585,1.2113,-1,1
693,0.55712,1.2221,-1,1
694,0.5584,1.2324,-1,1
695,0.55968,1.2425,-1,1
696,0.56098,1.2527,-1,1
697,0.56228,1.2627,-1,1
698,0.56359,1.2719,-1,1
699,0.56491,1.2807,-1,1
700,0.56624,1.2893,-1,1
701,0.56891,1.2984,-1,1
702,0.57026,1.3076,-1,1
703,0.57162,1.3164,-1,1
704,0.57299,1.3252,-1,1
705,0.57436,1.334,-1,1
706,0.57574,1.3426,-1,1
707,0.57713,1.3512,-1,1
708,0.57852,1.3594,-1,1
709,0.57992,1.3674,-1,1
710,0.58132,1.3753,-1,1
711,0.58416,1.3832,-1,1
712,0.58558,1.3906,-1,1
713,0.58701,1.3979,-1,1
714,0.58845,1.405,-1,1
715,0.58989,1.412,-1,1
716,0.59134,1.4187,-1,1
717,0.59279,1.425,-1,1
718,0.59425,1.4316,-1,1
719,0.59571,1.438,-1,1
720,0.59717,1.4436,-1,1
721,0.59864,1.4483,-1,1
722,0.60012,1.4536,-1,1
723,0.6016,1.4588,-1,1
724,0.60309,1.464,-1,1
725,0.60457,1.4683,-1,1
726,0.60606,1.4719,-1,1
727,0.60755,1.4759,-1,1
728,0.60905,1.4803,-1,1
729,0.61056,1.4848,-1,1
730,0.61357,1.4888,-1,1
731,0.61507,1.4925,-1,1
732,0.61658,1.496,-1,1
733,0.61811,1.5001,-1,1
734,0.61963,1.5036,-1,1
735,0.62115,1.5071,-1,1
736,0.62267,1.5104,-1,1
737,0.62419,1.5136,-1,1
738,0.62572,1.5165,-1,1
739,0.62726,1.5193,-1,1
740,0.63032,1.5221,-1,1
741,0.63186,1.5246,-1,1
742,0.63339,1.5273,-1,1
743,0.63494,1.5296,-1,1
744,0.63494,1.532,-1,1
745,0.63648,1.5342,-1,1
746,0.63957,1.5362,-1,1
747,0.64111,1.5383,-1,1
748,0.64111,1.5405,-1,1
749,0.64422,1.5422,-1,1
750,0.64576,1.5442,-1,1
751,0.64731,1.5456,-1,1
752,0.64886,1.5466,-1,1
753,0.65042,1.5476,-1,1
754,0.65197,1.5489,-1,1
755,0.65353,1.5499,-1,1
756,0.65508,1.5511,-1,1
757,0.65663,1.552,-1,1
758,0.65819,1.5526,-1,1
759,0.65974,1.553,-1,1
760,0.6613,1.5533,-1,1
761,0.66285,1.5543,-1,1
762,0.66441,1.5551,-1,1
763,0.66597,1.5554,-1,1
764,0.66753,1.5553,-1,1
765,0.66908,1.5554,-1,1
766,0.67063,1.5557,-1,1
767,0.67219,1.5559,-1,1
768,0.67375,1.5559,-1,1
769,0.67531,1.5562,-1,1
770,0.67686,1.5559,-1,1
771,0.6784,1.5551,-1,1
772,0.67995,1.5543,-1,1
773,0.68151,1.554,-1,1
774,0.68306,1.5539,-1,1
775,0.68461,1.5535,-1,1
776,0.68615,1.5523,-1,1
777,0.6877,1.5509,-1,1
778,0.68924,1.5497,-1,1
779,0.69079,1.5488,-1,1
780,0.69234,1.5484,-1,1
781,0.69388,1.5475,-1,1
782,0.69541,1.5461,-1,1
783,0.69695,1.5441,-1,1
784,0.69849,1.5429,-1,1
785,0.70003,1.5419,-1,1
786,0.70157,1.5412,-1,1
787,0.7031,1.54,-1,1
788,0.70463,1.5382,-1,1
789,0.70616,1.536,-1,1
790,0.70768,1.5343,-1,1
791,0.70921,1.5331,-1,1
792,0.71073,1.5317,-1,1
793,0.71226,1.5304,-1,1
794,0.71378,1.5281,-1,1
795,0.71529,1.5259,-1,1
796,0.7168,1.5236,-1,1
797,0.71832,1.5217,-1,1
798,0.71983,1.5199,-1,1
799,0.72134,1.5183,-1,1
800,0.72285,1.5161,-1,1
801,0.72434,1.5133,-1,1
802,0.72584,1.5107,-1,1
803,0.72734,1.5082,-1,1
804,0.72884,1.5061,-1,1
805,0.73033,1.5039,-1,1
806,0.73182,1.5017,-1,1
807,0.7333,1.4985,-1,1
808,0.73478,1.4954,-1,1
809,0.73627,1.4929,-1,1
810,0.73775,1.4907,-1,1
811,0.73923,1.4884,-1,1
812,0.74069,1.4853,-1,1
813,0.74216,1.4818,-1,1
814,0.74362,1.4783,-1,1
815,0.74509,1.4758,-1,1
816,0.74655,1.4732,-1,1
817,0.74801,1.4706,-1,1
818,0.74945,1.4672,-1,1
819,0.7509,1.4631,-1,1
820,0.75235,1.4593,-1,1
821,0.75379,1.4565,-1,1
822,0.75523,1.4539,-1,1
823,0.75666,1.4508,-1,1
824,0.75809,1.447,-1,1
825,0.75952,1.4428,-1,1
826,0.76095,1.4393,-1,1
827,0.76237,1.4359,-1,1
828,0.76378,1.4327,-1,1
829,0.76519,1.429,-1,1
830,0.7666,1.4254,-1,1
831,0.76801,1.4217,-1,1
832,0.76941,1.4182,-1,1
833,0.77081,1.4145,-1,1
834,0.7722,1.4105,-1,1
835,0.77497,1.4066,-1,1
836,0.77636,1.4025,-1,1
837,0.77774,1.3986,-1,1
838,0.77911,1.3942,-1,1
