cnt,pos,speed,Dir,Force,
1,0,1.1434,-1,1
2,0.00112009,1.1404,-1,1
3,0.00224018,1.136,-1,1
4,0.00335026,1.1315,-1,1
5,0.00447035,1.128,-1,1
6,0.00557995,1.1258,-1,1
7,0.00670004,1.1239,-1,1
8,0.0078001,1.1215,-1,1
9,0.00890017,1.1176,-1,1
10,0.00999022,1.1128,-1,1
11,0.0110903,1.1084,-1,1
12,0.0121803,1.1056,-1,1
13,0.0132804,1.1037,-1,1
14,0.01437,1.1017,-1,1
15,0.01545,1.0983,-1,1
16,0.01652,1.0938,-1,1
17,0.01759,1.0894,-1,1
18,0.0186601,1.0859,-1,1
19,0.0197301,1.0827,-1,1
20,0.0218601,1.0796,-1,1
21,0.0229201,1.0763,-1,1
22,0.0239701,1.072,-1,1
23,0.0250201,1.0673,-1,1
24,0.0260601,1.0624,-1,1
25,0.0271001,1.0584,-1,1
26,0.0281301,1.0546,-1,1
27,0.02917,1.0506,-1,1
28,0.03019,1.0462,-1,1
29,0.03122,1.042,-1,1
30,0.0322504,1.0375,-1,1
31,0.0342703,1.0325,-1,1
32,0.0352702,1.0276,-1,1
33,0.0362701,1.0229,-1,1
34,0.0372801,1.019,-1,1
35,0.03828,1.0149,-1,1
36,0.0392704,1.0109,-1,1
37,0.0402603,1.0065,-1,1
38,0.0412402,1.0018,-1,1
39,0.0422201,0.9972,-1,1
40,0.04319,0.9928,-1,1
41,0.0441604,0.9892,-1,1
42,0.0451303,0.9857,-1,1
43,0.04706,0.9817,-1,1
44,0.0480103,0.9769,-1,1
45,0.0489602,0.9715,-1,1
46,0.0499101,0.9664,-1,1
47,0.0508504,0.962,-1,1
48,0.0517902,0.958,-1,1
49,0.0527301,0.954,-1,1
50,0.0536604,0.95,-1,1
51,0.0545902,0.9455,-1,1
52,0.05551,0.941,-1,1
53,0.0564203,0.9365,-1,1
54,0.0573401,0.9324,-1,1
55,0.05825,0.9288,-1,1
56,0.0591502,0.925,-1,1
57,0.06006,0.9211,-1,1
58,0.0609603,0.9171,-1,1
59,0.0618601,0.913,-1,1
60,0.0627503,0.9088,-1,1
61,0.0636301,0.9049,-1,1
62,0.0645204,0.9005,-1,1
63,0.0662704,0.8963,-1,1
64,0.0671401,0.8919,-1,1
65,0.0680103,0.8875,-1,1
66,0.0688701,0.8834,-1,1
67,0.0697303,0.8794,-1,1
68,0.0706,0.8753,-1,1
69,0.0714502,0.8711,-1,1
70,0.0723,0.867,-1,1
71,0.0731401,0.8626,-1,1
72,0.0739803,0.8587,-1,1
73,0.0756602,0.8549,-1,1
74,0.0764904,0.8512,-1,1
75,0.0773201,0.8478,-1,1
76,0.0781503,0.8443,-1,1
77,0.07898,0.8406,-1,1
78,0.0798001,0.8367,-1,1
79,0.0806203,0.8327,-1,1
80,0.08143,0.8289,-1,1
81,0.0822401,0.8254,-1,1
82,0.0830503,0.8224,-1,1
83,0.0838604,0.8197,-1,1
84,0.0846601,0.817,-1,1
85,0.0854702,0.8141,-1,1
86,0.0862703,0.8112,-1,1
87,0.08707,0.8085,-1,1
88,0.0878701,0.8062,-1,1
89,0.0886602,0.8041,-1,1
90,0.0894504,0.8021,-1,1
91,0.09024,0.7998,-1,1
92,0.0910201,0.7973,-1,1
93,0.0918102,0.7949,-1,1
94,0.09338,0.793,-1,1
95,0.0941701,0.7912,-1,1
96,0.0949502,0.7891,-1,1
97,0.0957203,0.7865,-1,1
98,0.0964904,0.7839,-1,1
99,0.09726,0.7816,-1,1
100,0.0980301,0.7796,-1,1
101,0.0988002,0.7778,-1,1
102,0.0995703,0.7761,-1,1
103,0.10034,0.7741,-1,1
104,0.1011,0.7719,-1,1
105,0.10187,0.7698,-1,1
106,0.10263,0.7679,-1,1
107,0.10338,0.7663,-1,1
108,0.10414,0.7645,-1,1
109,0.10489,0.7625,-1,1
110,0.10564,0.7602,-1,1
111,0.10639,0.7583,-1,1
112,0.10714,0.7567,-1,1
113,0.10789,0.7551,-1,1
114,0.10863,0.7533,-1,1
115,0.10938,0.7515,-1,1
116,0.11012,0.7495,-1,1
117,0.11086,0.7476,-1,1
118,0.1116,0.7459,-1,1
119,0.11233,0.7444,-1,1
120,0.11307,0.7432,-1,1
121,0.1138,0.7417,-1,1
122,0.11454,0.7398,-1,1
123,0.11527,0.7382,-1,1
124,0.116,0.7369,-1,1
125,0.11674,0.7356,-1,1
126,0.11747,0.7347,-1,1
127,0.1182,0.7337,-1,1
128,0.11892,0.7325,-1,1
129,0.11965,0.7313,-1,1
130,0.12037,0.7303,-1,1
131,0.1211,0.7295,-1,1
132,0.12182,0.7286,-1,1
133,0.12255,0.7277,-1,1
134,0.12327,0.7264,-1,1
135,0.12399,0.7253,-1,1
136,0.12471,0.7243,-1,1
137,0.12543,0.7237,-1,1
138,0.12615,0.7233,-1,1
139,0.12687,0.7224,-1,1
140,0.12758,0.7211,-1,1
141,0.12829,0.7194,-1,1
142,0.129,0.7182,-1,1
143,0.12972,0.7173,-1,1
144,0.13043,0.7167,-1,1
145,0.13115,0.716,-1,1
146,0.13186,0.715,-1,1
147,0.13257,0.7137,-1,1
148,0.13328,0.7123,-1,1
149,0.13398,0.7114,-1,1
150,0.13469,0.7108,-1,1
151,0.1354,0.7104,-1,1
152,0.1361,0.7097,-1,1
153,0.1368,0.7082,-1,1
154,0.1375,0.7068,-1,1
155,0.1382,0.705,-1,1
156,0.1389,0.7039,-1,1
157,0.1396,0.7031,-1,1
158,0.1403,0.7027,-1,1
159,0.141,0.702,-1,1
160,0.1417,0.7006,-1,1
161,0.14238,0.699,-1,1
162,0.14307,0.6973,-1,1
163,0.14376,0.6963,-1,1
164,0.14445,0.6954,-1,1
165,0.14514,0.6947,-1,1
166,0.14583,0.6933,-1,1
167,0.14651,0.6915,-1,1
168,0.1472,0.6896,-1,1
169,0.14788,0.6883,-1,1
170,0.14857,0.6876,-1,1
171,0.14925,0.687,-1,1
172,0.14993,0.6861,-1,1
173,0.15061,0.6844,-1,1
174,0.15128,0.6824,-1,1
175,0.15195,0.6806,-1,1
176,0.15262,0.6794,-1,1
177,0.1533,0.6784,-1,1
178,0.15397,0.6773,-1,1
179,0.15464,0.6758,-1,1
180,0.15531,0.6739,-1,1
181,0.15598,0.6725,-1,1
182,0.15664,0.6712,-1,1
183,0.15731,0.6705,-1,1
184,0.15797,0.6696,-1,1
185,0.15863,0.6685,-1,1
186,0.15929,0.6668,-1,1
187,0.15995,0.6651,-1,1
188,0.16061,0.6635,-1,1
189,0.16126,0.6622,-1,1
190,0.16192,0.6611,-1,1
191,0.16258,0.6602,-1,1
192,0.16324,0.6593,-1,1
193,0.16389,0.6582,-1,1
194,0.16454,0.6571,-1,1
195,0.16519,0.6559,-1,1
196,0.16584,0.6549,-1,1
197,0.16649,0.654,-1,1
198,0.16714,0.653,-1,1
199,0.16778,0.652,-1,1
200,0.16843,0.6509,-1,1
201,0.16907,0.6491,-1,1
202,0.16972,0.6479,-1,1
203,0.17036,0.6471,-1,1
204,0.17101,0.6464,-1,1
205,0.17165,0.6461,-1,1
206,0.1723,0.6457,-1,1
207,0.17294,0.6448,-1,1
208,0.17358,0.644,-1,1
209,0.17421,0.6429,-1,1
210,0.17485,0.6421,-1,1
211,0.17549,0.6416,-1,1
212,0.17612,0.6408,-1,1
213,0.17676,0.6397,-1,1
214,0.17804,0.6391,-1,1
215,0.17867,0.6384,-1,1
216,0.17931,0.6376,-1,1
217,0.17995,0.6373,-1,1
218,0.18058,0.6369,-1,1
219,0.18121,0.6365,-1,1
220,0.18185,0.6362,-1,1
221,0.18248,0.6359,-1,1
222,0.18311,0.6354,-1,1
223,0.18374,0.6348,-1,1
224,0.18501,0.634,-1,1
225,0.18564,0.6334,-1,1
226,0.18628,0.6336,-1,1
227,0.18691,0.6338,-1,1
228,0.18755,0.6339,-1,1
229,0.18818,0.6338,-1,1
230,0.18881,0.6333,-1,1
231,0.18944,0.6327,-1,1
232,0.19007,0.6322,-1,1
233,0.1907,0.6323,-1,1
234,0.19133,0.6325,-1,1
235,0.19196,0.6326,-1,1
236,0.1926,0.6321,-1,1
237,0.19323,0.6314,-1,1
238,0.19386,0.6309,-1,1
239,0.19449,0.6307,-1,1
240,0.19512,0.6311,-1,1
241,0.19576,0.6318,-1,1
242,0.19639,0.6324,-1,1
243,0.19702,0.6323,-1,1
244,0.19765,0.6319,-1,1
245,0.19828,0.6312,-1,1
246,0.1989,0.6306,-1,1
247,0.19953,0.6305,-1,1
248,0.20017,0.6307,-1,1
249,0.2008,0.6311,-1,1
250,0.20144,0.6312,-1,1
251,0.20207,0.6309,-1,1
252,0.2027,0.6307,-1,1
253,0.20333,0.6305,-1,1
254,0.20396,0.6306,-1,1
255,0.20459,0.631,-1,1
256,0.20522,0.6315,-1,1
257,0.20585,0.6317,-1,1
258,0.20648,0.6314,-1,1
259,0.20711,0.6309,-1,1
260,0.20774,0.6301,-1,1
261,0.20837,0.6298,-1,1
262,0.209,0.6298,-1,1
263,0.20963,0.6304,-1,1
264,0.21027,0.6308,-1,1
265,0.2109,0.6309,-1,1
266,0.21153,0.6307,-1,1
267,0.21215,0.6302,-1,1
268,0.21278,0.6299,-1,1
269,0.21341,0.6299,-1,1
270,0.21404,0.6304,-1,1
271,0.21467,0.6306,-1,1
272,0.2153,0.6305,-1,1
273,0.21593,0.6299,-1,1
274,0.21656,0.6291,-1,1
275,0.21719,0.6288,-1,1
276,0.21782,0.6289,-1,1
277,0.21845,0.6293,-1,1
278,0.21908,0.6296,-1,1
279,0.21971,0.6296,-1,1
280,0.22034,0.6292,-1,1
281,0.22096,0.6286,-1,1
282,0.22159,0.6281,-1,1
283,0.22221,0.6279,-1,1
284,0.22284,0.628,-1,1
285,0.22346,0.6277,-1,1
286,0.22409,0.6272,-1,1
287,0.22472,0.6267,-1,1
288,0.22534,0.6262,-1,1
289,0.22596,0.6258,-1,1
290,0.22659,0.6256,-1,1
291,0.22721,0.6255,-1,1
292,0.22784,0.6253,-1,1
293,0.22846,0.6249,-1,1
294,0.22908,0.6247,-1,1
295,0.22971,0.6244,-1,1
296,0.23033,0.624,-1,1
297,0.23095,0.6234,-1,1
298,0.23157,0.623,-1,1
299,0.23219,0.6225,-1,1
300,0.23281,0.6223,-1,1
301,0.23344,0.6222,-1,1
302,0.23406,0.6224,-1,1
303,0.23468,0.6225,-1,1
304,0.2353,0.622,-1,1
305,0.23592,0.6216,-1,1
306,0.23654,0.6213,-1,1
307,0.23716,0.6214,-1,1
308,0.23778,0.6215,-1,1
309,0.2384,0.6216,-1,1
310,0.23903,0.6215,-1,1
311,0.23965,0.6212,-1,1
312,0.24027,0.6207,-1,1
313,0.24089,0.6204,-1,1
314,0.24151,0.6207,-1,1
315,0.24213,0.6211,-1,1
316,0.24275,0.6215,-1,1
317,0.24338,0.6216,-1,1
318,0.244,0.6217,-1,1
319,0.24462,0.6218,-1,1
320,0.24524,0.6217,-1,1
321,0.24587,0.6219,-1,1
322,0.24649,0.6222,-1,1
323,0.24711,0.6228,-1,1
324,0.24774,0.6231,-1,1
325,0.24837,0.6234,-1,1
326,0.24899,0.6238,-1,1
327,0.24962,0.6243,-1,1
328,0.25025,0.6245,-1,1
329,0.25087,0.6251,-1,1
330,0.2515,0.6259,-1,1
331,0.25213,0.6267,-1,1
332,0.25276,0.6275,-1,1
333,0.25339,0.628,-1,1
334,0.25403,0.6285,-1,1
335,0.25466,0.6289,-1,1
336,0.25529,0.6293,-1,1
337,0.25592,0.6301,-1,1
338,0.25656,0.6313,-1,1
339,0.2572,0.6325,-1,1
340,0.25784,0.6334,-1,1
341,0.25847,0.6342,-1,1
342,0.25911,0.6346,-1,1
343,0.25975,0.6353,-1,1
344,0.26039,0.6361,-1,1
345,0.26103,0.6371,-1,1
346,0.26167,0.6385,-1,1
347,0.26232,0.6396,-1,1
348,0.26296,0.6403,-1,1
349,0.26361,0.6409,-1,1
350,0.26425,0.6418,-1,1
351,0.2649,0.6426,-1,1
352,0.26555,0.6441,-1,1
353,0.2662,0.6454,-1,1
354,0.26685,0.6467,-1,1
355,0.2675,0.648,-1,1
356,0.26816,0.6488,-1,1
357,0.26881,0.6495,-1,1
358,0.26947,0.6505,-1,1
359,0.27012,0.6515,-1,1
360,0.27078,0.6529,-1,1
361,0.27145,0.6546,-1,1
362,0.27211,0.6559,-1,1
363,0.27277,0.6574,-1,1
364,0.27344,0.6585,-1,1
365,0.2741,0.6596,-1,1
366,0.27477,0.6609,-1,1
367,0.27544,0.6626,-1,1
368,0.27611,0.6645,-1,1
369,0.27678,0.6663,-1,1
370,0.27746,0.6677,-1,1
371,0.27813,0.6688,-1,1
372,0.27881,0.6702,-1,1
373,0.27949,0.6716,-1,1
374,0.28017,0.6737,-1,1
375,0.28086,0.6759,-1,1
376,0.28155,0.678,-1,1
377,0.28223,0.6797,-1,1
378,0.28292,0.6812,-1,1
379,0.28361,0.6828,-1,1
380,0.28431,0.6848,-1,1
381,0.28501,0.6873,-1,1
382,0.28571,0.6897,-1,1
383,0.28641,0.6919,-1,1
384,0.28711,0.6938,-1,1
385,0.28782,0.6956,-1,1
386,0.28853,0.6979,-1,1
387,0.28924,0.7004,-1,1
388,0.28995,0.7032,-1,1
389,0.29067,0.7059,-1,1
390,0.29139,0.7082,-1,1
391,0.29211,0.7105,-1,1
392,0.29283,0.7128,-1,1
393,0.29356,0.7155,-1,1
394,0.2943,0.7185,-1,1
395,0.29503,0.7215,-1,1
396,0.29577,0.724,-1,1
397,0.2965,0.7266,-1,1
398,0.29724,0.7291,-1,1
399,0.29799,0.7319,-1,1
400,0.29874,0.7351,-1,1
401,0.29949,0.738,-1,1
402,0.30024,0.741,-1,1
403,0.301,0.7439,-1,1
404,0.30176,0.7465,-1,1
405,0.30252,0.7493,-1,1
406,0.30329,0.7524,-1,1
407,0.30406,0.7558,-1,1
408,0.30483,0.7592,-1,1
409,0.30561,0.7622,-1,1
410,0.30638,0.7648,-1,1
411,0.30716,0.7677,-1,1
412,0.30795,0.7709,-1,1
413,0.30874,0.7743,-1,1
414,0.30954,0.7778,-1,1
415,0.31033,0.7811,-1,1
416,0.31113,0.7841,-1,1
417,0.31193,0.787,-1,1
418,0.31274,0.7902,-1,1
419,0.31355,0.7939,-1,1
420,0.31436,0.7977,-1,1
421,0.31518,0.8012,-1,1
422,0.31599,0.8043,-1,1
423,0.31682,0.8075,-1,1
424,0.31765,0.8111,-1,1
425,0.31848,0.8151,-1,1
426,0.31932,0.8193,-1,1
427,0.32016,0.8231,-1,1
428,0.321,0.8265,-1,1
429,0.32185,0.8298,-1,1
430,0.3227,0.8335,-1,1
431,0.32356,0.8378,-1,1
432,0.32442,0.8423,-1,1
433,0.32528,0.8463,-1,1
434,0.32615,0.8499,-1,1
435,0.32702,0.8535,-1,1
436,0.3279,0.8573,-1,1
437,0.32878,0.8616,-1,1
438,0.32966,0.8661,-1,1
439,0.33055,0.8703,-1,1
440,0.33144,0.8742,-1,1
441,0.33234,0.8779,-1,1
442,0.33324,0.882,-1,1
443,0.33415,0.8864,-1,1
444,0.33506,0.8909,-1,1
445,0.33597,0.8951,-1,1
446,0.33689,0.8991,-1,1
447,0.33781,0.9027,-1,1
448,0.33873,0.9066,-1,1
449,0.33966,0.9107,-1,1
450,0.34059,0.9149,-1,1
451,0.34153,0.919,-1,1
452,0.34247,0.9229,-1,1
453,0.34341,0.9265,-1,1
454,0.34436,0.9302,-1,1
455,0.34531,0.9339,-1,1
456,0.34626,0.9376,-1,1
457,0.34722,0.9415,-1,1
458,0.34818,0.9454,-1,1
459,0.34915,0.9492,-1,1
460,0.35012,0.9532,-1,1
461,0.3511,0.9569,-1,1
462,0.35207,0.9604,-1,1
463,0.35305,0.9641,-1,1
464,0.35404,0.9676,-1,1
465,0.35502,0.9711,-1,1
466,0.35601,0.9746,-1,1
467,0.35701,0.9785,-1,1
468,0.358,0.9819,-1,1
469,0.35901,0.9856,-1,1
470,0.36001,0.9889,-1,1
471,0.36102,0.9923,-1,1
472,0.36203,0.9955,-1,1
473,0.36304,0.9987,-1,1
474,0.36406,1.002,-1,1
475,0.36508,1.0055,-1,1
476,0.3661,1.0092,-1,1
477,0.36713,1.0125,-1,1
478,0.36816,1.0156,-1,1
479,0.36919,1.0184,-1,1
480,0.37022,1.021,-1,1
481,0.37126,1.0238,-1,1
482,0.3723,1.0268,-1,1
483,0.37334,1.03,-1,1
484,0.37439,1.0333,-1,1
485,0.37544,1.0363,-1,1
486,0.37649,1.039,-1,1
487,0.37754,1.041,-1,1
488,0.37859,1.0433,-1,1
489,0.37965,1.0458,-1,1
490,0.38071,1.0488,-1,1
491,0.38178,1.052,-1,1
492,0.38285,1.0551,-1,1
493,0.38392,1.0574,-1,1
494,0.38498,1.0594,-1,1
495,0.38605,1.0612,-1,1
496,0.38712,1.0631,-1,1
497,0.3882,1.0656,-1,1
498,0.38928,1.0685,-1,1
499,0.39036,1.0714,-1,1
500,0.39145,1.0738,-1,1
501,0.39253,1.0754,-1,1
502,0.39361,1.0766,-1,1
503,0.3947,1.0781,-1,1
504,0.39578,1.0799,-1,1
505,0.39688,1.0824,-1,1
506,0.39797,1.0849,-1,1
507,0.39907,1.0874,-1,1
508,0.40017,1.0891,-1,1
509,0.40127,1.0902,-1,1
510,0.40236,1.0912,-1,1
511,0.40346,1.0926,-1,1
512,0.40456,1.0948,-1,1
513,0.40567,1.0972,-1,1
514,0.40678,1.0994,-1,1
515,0.40789,1.101,-1,1
516,0.40899,1.1022,-1,1
517,0.4101,1.103,-1,1
518,0.41121,1.1039,-1,1
519,0.41232,1.1054,-1,1
520,0.41344,1.1076,-1,1
521,0.41456,1.1098,-1,1
522,0.41567,1.1113,-1,1
523,0.41679,1.1123,-1,1
524,0.41791,1.1129,-1,1
525,0.41902,1.1137,-1,1
526,0.42014,1.1149,-1,1
527,0.42127,1.1167,-1,1
528,0.4224,1.1187,-1,1
529,0.42352,1.1203,-1,1
530,0.42465,1.121,-1,1
531,0.42577,1.1212,-1,1
532,0.42689,1.1217,-1,1
533,0.42802,1.1228,-1,1
534,0.42915,1.1247,-1,1
535,0.43029,1.1263,-1,1
536,0.43142,1.1274,-1,1
537,0.43255,1.1278,-1,1
538,0.43368,1.1279,-1,1
539,0.43481,1.1282,-1,1
540,0.43594,1.1293,-1,1
541,0.43708,1.1313,-1,1
542,0.43822,1.1327,-1,1
543,0.43935,1.1334,-1,1
544,0.44049,1.1333,-1,1
545,0.44162,1.1334,-1,1
546,0.44276,1.1341,-1,1
547,0.4439,1.1353,-1,1
548,0.44504,1.1369,-1,1
549,0.44619,1.1382,-1,1
550,0.44733,1.1387,-1,1
551,0.44847,1.1384,-1,1
552,0.44961,1.1385,-1,1
553,0.45075,1.1391,-1,1
554,0.45189,1.1403,-1,1
555,0.45304,1.1416,-1,1
556,0.45418,1.1424,-1,1
557,0.45533,1.1427,-1,1
558,0.45647,1.1424,-1,1
559,0.45761,1.1423,-1,1
560,0.45875,1.1427,-1,1
561,0.4599,1.1437,-1,1
562,0.46105,1.1448,-1,1
563,0.4622,1.1457,-1,1
564,0.46335,1.1457,-1,1
565,0.46449,1.1454,-1,1
566,0.46564,1.1452,-1,1
567,0.46678,1.1456,-1,1
568,0.46794,1.1467,-1,1
569,0.46909,1.1479,-1,1
570,0.47024,1.1488,-1,1
571,0.47139,1.1488,-1,1
572,0.47254,1.1482,-1,1
573,0.47368,1.1477,-1,1
574,0.47483,1.1484,-1,1
575,0.47599,1.1496,-1,1
576,0.47715,1.1509,-1,1
577,0.4783,1.1512,-1,1
578,0.47945,1.1508,-1,1
579,0.48059,1.15,-1,1
580,0.48174,1.1495,-1,1
581,0.48289,1.1499,-1,1
582,0.48405,1.1511,-1,1
583,0.4852,1.152,-1,1
584,0.48635,1.1521,-1,1
585,0.4875,1.1513,-1,1
586,0.48865,1.1503,-1,1
587,0.4898,1.1501,-1,1
588,0.49095,1.1505,-1,1
589,0.4921,1.1512,-1,1
590,0.49326,1.1517,-1,1
591,0.49441,1.1515,-1,1
592,0.49555,1.1505,-1,1
593,0.4967,1.1497,-1,1
594,0.49785,1.1492,-1,1
595,0.499,1.1493,-1,1
596,0.50015,1.1497,-1,1
597,0.5013,1.1496,-1,1
598,0.50244,1.149,-1,1
599,0.50359,1.1481,-1,1
600,0.50473,1.1474,-1,1
601,0.50588,1.1468,-1,1
602,0.50702,1.1468,-1,1
603,0.50817,1.1467,-1,1
604,0.50931,1.1463,-1,1
605,0.51045,1.1455,-1,1
606,0.51159,1.1444,-1,1
607,0.51274,1.1439,-1,1
608,0.51388,1.1434,-1,1
609,0.51502,1.143,-1,1
610,0.51616,1.1423,-1,1
611,0.51729,1.1417,-1,1
612,0.51843,1.1408,-1,1
613,0.51957,1.1398,-1,1
614,0.5207,1.1389,-1,1
615,0.52184,1.1386,-1,1
616,0.52298,1.1384,-1,1
617,0.52411,1.1376,-1,1
618,0.52524,1.1367,-1,1
619,0.52637,1.1355,-1,1
620,0.5275,1.1342,-1,1
621,0.52863,1.1332,-1,1
622,0.52976,1.1325,-1,1
623,0.53089,1.1323,-1,1
624,0.53202,1.1319,-1,1
625,0.53314,1.1305,-1,1
626,0.53426,1.1285,-1,1
627,0.53538,1.1266,-1,1
628,0.5365,1.1254,-1,1
629,0.53762,1.1249,-1,1
630,0.53875,1.1247,-1,1
631,0.53987,1.1239,-1,1
632,0.54098,1.1222,-1,1
633,0.54209,1.1198,-1,1
634,0.54319,1.1172,-1,1
635,0.5443,1.1156,-1,1
636,0.54541,1.1151,-1,1
637,0.54653,1.1149,-1,1
638,0.54764,1.1137,-1,1
639,0.54874,1.1114,-1,1
640,0.54983,1.1086,-1,1
641,0.55093,1.1061,-1,1
642,0.55202,1.1044,-1,1
643,0.55312,1.1033,-1,1
644,0.55422,1.1027,-1,1
645,0.55531,1.1014,-1,1
646,0.5564,1.0989,-1,1
647,0.55749,1.0957,-1,1
648,0.55856,1.0928,-1,1
649,0.55964,1.0908,-1,1
650,0.56073,1.0895,-1,1
651,0.56181,1.0882,-1,1
652,0.56289,1.0865,-1,1
653,0.56396,1.0838,-1,1
654,0.56503,1.0806,-1,1
655,0.56609,1.0775,-1,1
656,0.56715,1.0751,-1,1
657,0.56822,1.0733,-1,1
658,0.56928,1.0717,-1,1
659,0.57034,1.0699,-1,1
660,0.5714,1.0671,-1,1
661,0.57245,1.0639,-1,1
662,0.57349,1.0606,-1,1
663,0.57454,1.058,-1,1
664,0.57558,1.0558,-1,1
665,0.57663,1.0538,-1,1
666,0.57767,1.0518,-1,1
667,0.57871,1.0495,-1,1
668,0.57975,1.0466,-1,1
669,0.58077,1.0432,-1,1
670,0.5818,1.0403,-1,1
671,0.58282,1.0377,-1,1
672,0.58385,1.0355,-1,1
673,0.58487,1.0332,-1,1
674,0.58589,1.0306,-1,1
675,0.58691,1.0279,-1,1
676,0.58792,1.0248,-1,1
677,0.58893,1.0215,-1,1
678,0.58993,1.0184,-1,1
679,0.59093,1.0156,-1,1
680,0.59193,1.0129,-1,1
681,0.59293,1.0103,-1,1
682,0.59392,1.0077,-1,1
683,0.59492,1.0046,-1,1
684,0.5959,1.0016,-1,1
685,0.59689,0.9983,-1,1
686,0.59787,0.9951,-1,1
687,0.59885,0.992,-1,1
688,0.59982,0.989,-1,1
689,0.60079,0.9863,-1,1
690,0.60176,0.9835,-1,1
691,0.60273,0.9807,-1,1
692,0.6037,0.9773,-1,1
693,0.60466,0.9742,-1,1
694,0.60561,0.9709,-1,1
695,0.60657,0.9679,-1,1
696,0.60752,0.9648,-1,1
697,0.60847,0.9618,-1,1
698,0.60941,0.9591,-1,1
699,0.61036,0.9562,-1,1
700,0.6113,0.9534,-1,1
701,0.61224,0.9502,-1,1
702,0.61317,0.9472,-1,1
703,0.6141,0.944,-1,1
704,0.61502,0.9406,-1,1
705,0.61594,0.9377,-1,1
706,0.61687,0.9351,-1,1
707,0.61779,0.9324,-1,1
708,0.61871,0.9295,-1,1
709,0.61962,0.9265,-1,1
710,0.62053,0.9231,-1,1
711,0.62144,0.9203,-1,1
712,0.62235,0.9175,-1,1
713,0.62324,0.9147,-1,1
714,0.62414,0.9123,-1,1
715,0.62504,0.9096,-1,1
716,0.62594,0.907,-1,1
717,0.62683,0.9045,-1,1
718,0.62772,0.9018,-1,1
719,0.62861,0.8993,-1,1
720,0.6295,0.897,-1,1
721,0.63038,0.8944,-1,1
722,0.63126,0.8918,-1,1
723,0.63214,0.8896,-1,1
724,0.63302,0.8875,-1,1
725,0.63389,0.8853,-1,1
726,0.63477,0.8832,-1,1
727,0.63564,0.8811,-1,1
728,0.63652,0.8792,-1,1
729,0.63738,0.8772,-1,1
730,0.63825,0.8752,-1,1
731,0.63912,0.8733,-1,1
732,0.63998,0.8718,-1,1
733,0.64085,0.8705,-1,1
734,0.64171,0.8689,-1,1
735,0.64257,0.8672,-1,1
736,0.64343,0.8657,-1,1
737,0.64429,0.8644,-1,1
738,0.64515,0.8636,-1,1
739,0.64601,0.8627,-1,1
740,0.64687,0.8617,-1,1
741,0.64772,0.8607,-1,1
742,0.64858,0.8599,-1,1
743,0.64944,0.8592,-1,1
744,0.65029,0.8588,-1,1
745,0.65115,0.8585,-1,1
746,0.65201,0.8579,-1,1
747,0.65286,0.8576,-1,1
748,0.65372,0.8574,-1,1
749,0.65458,0.8572,-1,1
750,0.65544,0.8573,-1,1
751,0.6563,0.8574,-1,1
752,0.65715,0.8574,-1,1
753,0.65801,0.8576,-1,1
754,0.65888,0.8581,-1,1
755,0.65974,0.8587,-1,1
756,0.6606,0.8593,-1,1
757,0.66146,0.8598,-1,1
758,0.66233,0.8601,-1,1
759,0.66319,0.861,-1,1
760,0.66406,0.8622,-1,1
761,0.66493,0.8636,-1,1
762,0.6658,0.8647,-1,1
763,0.66667,0.8659,-1,1
764,0.66755,0.8672,-1,1
765,0.66843,0.8688,-1,1
766,0.66931,0.8706,-1,1
767,0.67019,0.8723,-1,1
768,0.67107,0.874,-1,1
769,0.67195,0.8757,-1,1
770,0.67284,0.8775,-1,1
771,0.67373,0.8797,-1,1
772,0.67462,0.8821,-1,1
773,0.67552,0.8843,-1,1
774,0.67641,0.8865,-1,1
775,0.67731,0.8887,-1,1
776,0.67822,0.891,-1,1
777,0.67912,0.8935,-1,1
778,0.68003,0.896,-1,1
779,0.68094,0.8985,-1,1
780,0.68185,0.9012,-1,1
781,0.68277,0.9039,-1,1
782,0.68369,0.9067,-1,1
783,0.68461,0.9093,-1,1
784,0.68553,0.9121,-1,1
785,0.68646,0.9149,-1,1
786,0.68739,0.9179,-1,1
787,0.68833,0.9209,-1,1
788,0.68927,0.924,-1,1
789,0.6902,0.927,-1,1
790,0.69115,0.9302,-1,1
791,0.6921,0.9332,-1,1
792,0.69305,0.9365,-1,1
793,0.69401,0.9398,-1,1
794,0.69496,0.9432,-1,1
795,0.69593,0.9466,-1,1
796,0.69689,0.95,-1,1
797,0.69786,0.9533,-1,1
798,0.69884,0.957,-1,1
799,0.69981,0.9607,-1,1
800,0.70079,0.9643,-1,1
801,0.70178,0.9678,-1,1
802,0.70277,0.9714,-1,1
803,0.70376,0.9753,-1,1
804,0.70475,0.979,-1,1
805,0.70576,0.9832,-1,1
806,0.70676,0.9871,-1,1
807,0.70777,0.9912,-1,1
808,0.70879,0.9951,-1,1
809,0.7098,0.9992,-1,1
810,0.71082,1.0032,-1,1
811,0.71185,1.0077,-1,1
812,0.71288,1.0118,-1,1
813,0.71392,1.0162,-1,1
814,0.71496,1.0207,-1,1
815,0.71601,1.025,-1,1
816,0.71706,1.0295,-1,1
817,0.71811,1.034,-1,1
818,0.71917,1.0385,-1,1
819,0.72023,1.0432,-1,1
820,0.7213,1.0481,-1,1
821,0.72238,1.0527,-1,1
822,0.72346,1.0578,-1,1
823,0.72454,1.0628,-1,1
824,0.72564,1.0678,-1,1
825,0.72673,1.0725,-1,1
826,0.72783,1.0771,-1,1
827,0.72893,1.0821,-1,1
828,0.73004,1.0874,-1,1
829,0.73116,1.0928,-1,1
830,0.73228,1.0978,-1,1
831,0.73341,1.1028,-1,1
832,0.73453,1.1076,-1,1
833,0.73567,1.1122,-1,1
834,0.73681,1.1169,-1,1
835,0.73795,1.1223,-1,1
836,0.73911,1.1279,-1,1
