cnt,pos,speed,Dir,Force,
1,0,1.0021,-1,2
2,0.00101995,1.0045,-1,2
3,0.0020299,1.0059,-1,2
4,0.00304985,1.0075,-1,2
5,0.00405979,1.0092,-1,2
6,0.00507975,1.0117,-1,2
7,0.00610971,1.0145,-1,2
8,0.00714016,1.017,-1,2
9,0.00817013,1.0189,-1,2
10,0.0092001,1.0205,-1,2
11,0.0102201,1.0222,-1,2
12,0.01126,1.0238,-1,2
13,0.01229,1.0256,-1,2
14,0.01332,1.0274,-1,2
15,0.01436,1.0297,-1,2
16,0.0153999,1.0319,-1,2
17,0.0164499,1.0338,-1,2
18,0.0174899,1.0347,-1,2
19,0.0185299,1.0359,-1,2
20,0.0195699,1.0373,-1,2
21,0.0206099,1.0388,-1,2
22,0.0216599,1.0408,-1,2
23,0.0227199,1.0425,-1,2
24,0.0237699,1.0442,-1,2
25,0.0248199,1.0458,-1,2
26,0.0258698,1.0468,-1,2
27,0.0269198,1.0476,-1,2
28,0.0279698,1.0487,-1,2
29,0.0290298,1.0503,-1,2
30,0.0300899,1.0524,-1,2
31,0.0311599,1.0544,-1,2
32,0.0322199,1.0557,-1,2
33,0.0332799,1.0568,-1,2
34,0.0343399,1.0575,-1,2
35,0.0354099,1.0584,-1,2
36,0.0364699,1.0598,-1,2
37,0.03754,1.0617,-1,2
38,0.03861,1.0639,-1,2
39,0.03969,1.0657,-1,2
40,0.04076,1.0669,-1,2
41,0.0418301,1.0674,-1,2
42,0.0429001,1.0678,-1,2
43,0.0439701,1.069,-1,2
44,0.0450501,1.0709,-1,2
45,0.0461302,1.0728,-1,2
46,0.0472198,1.0747,-1,2
47,0.0482998,1.0761,-1,2
48,0.0493798,1.0771,-1,2
49,0.0504599,1.0776,-1,2
50,0.0515399,1.0781,-1,2
51,0.0526299,1.0795,-1,2
52,0.05372,1.082,-1,2
53,0.0548201,1.0844,-1,2
54,0.0559101,1.086,-1,2
55,0.0570002,1.0868,-1,2
56,0.0580897,1.0874,-1,2
57,0.0591798,1.0882,-1,2
58,0.0602798,1.0896,-1,2
59,0.0613799,1.0919,-1,2
60,0.06249,1.0946,-1,2
61,0.06359,1.0966,-1,2
62,0.0646901,1.0973,-1,2
63,0.0657902,1.0974,-1,2
64,0.0668898,1.0984,-1,2
65,0.0680099,1.1006,-1,2
66,0.0691199,1.1031,-1,2
67,0.07023,1.1048,-1,2
68,0.0713401,1.1058,-1,2
69,0.0724502,1.1064,-1,2
70,0.0735598,1.107,-1,2
71,0.0746698,1.108,-1,2
72,0.0757899,1.1096,-1,2
73,0.07691,1.1116,-1,2
74,0.0780301,1.1131,-1,2
75,0.0791397,1.1138,-1,2
76,0.0802598,1.1139,-1,2
77,0.0813699,1.1144,-1,2
78,0.08249,1.1152,-1,2
79,0.0836101,1.1161,-1,2
80,0.0847301,1.117,-1,2
81,0.0858498,1.1181,-1,2
82,0.0869799,1.1191,-1,2
83,0.0881,1.1193,-1,2
84,0.08921,1.1188,-1,2
85,0.0903301,1.1182,-1,2
86,0.0914397,1.1184,-1,2
87,0.0925598,1.1189,-1,2
88,0.0936899,1.1195,-1,2
89,0.09481,1.1198,-1,2
90,0.0959301,1.1197,-1,2
91,0.0970402,1.1189,-1,2
92,0.0981598,1.1176,-1,2
93,0.0992699,1.1166,-1,2
94,0.10038,1.1167,-1,2
95,0.1015,1.1174,-1,2
96,0.10262,1.1174,-1,2
97,0.10373,1.1166,-1,2
98,0.10484,1.1153,-1,2
99,0.10594,1.1138,-1,2
100,0.10705,1.1125,-1,2
101,0.10927,1.1117,-1,2
102,0.11038,1.1113,-1,2
103,0.11148,1.1107,-1,2
104,0.11258,1.109,-1,2
105,0.11367,1.1066,-1,2
106,0.11477,1.1046,-1,2
107,0.11587,1.1032,-1,2
108,0.11697,1.102,-1,2
109,0.11806,1.1007,-1,2
110,0.11915,1.099,-1,2
111,0.12024,1.097,-1,2
112,0.12133,1.095,-1,2
113,0.12241,1.0929,-1,2
114,0.12349,1.0913,-1,2
115,0.12457,1.0897,-1,2
116,0.12673,1.0876,-1,2
117,0.12781,1.0853,-1,2
118,0.12888,1.083,-1,2
119,0.12995,1.0806,-1,2
120,0.13101,1.0781,-1,2
121,0.13208,1.0756,-1,2
122,0.13314,1.0736,-1,2
123,0.13421,1.0719,-1,2
124,0.13527,1.0698,-1,2
125,0.13632,1.067,-1,2
126,0.13737,1.0642,-1,2
127,0.13842,1.0618,-1,2
128,0.13948,1.0598,-1,2
129,0.14053,1.0581,-1,2
130,0.14157,1.0561,-1,2
131,0.14261,1.0539,-1,2
132,0.14365,1.0509,-1,2
133,0.14469,1.0479,-1,2
134,0.14572,1.0452,-1,2
135,0.14676,1.0436,-1,2
136,0.14779,1.0421,-1,2
137,0.14882,1.0399,-1,2
138,0.14985,1.037,-1,2
139,0.15189,1.0339,-1,2
140,0.15291,1.0314,-1,2
141,0.15392,1.0288,-1,2
142,0.15392,1.0261,-1,2
143,0.15594,1.0233,-1,2
144,0.15594,1.0206,-1,2
145,0.15795,1.0176,-1,2
146,0.15896,1.0143,-1,2
147,0.15995,1.0109,-1,2
148,0.16094,1.008,-1,2
149,0.16194,1.0052,-1,2
150,0.16293,1.0024,-1,2
151,0.16392,0.9995,-1,2
152,0.1649,0.9966,-1,2
153,0.16588,0.9937,-1,2
154,0.16686,0.9909,-1,2
155,0.16783,0.988,-1,2
156,0.1688,0.985,-1,2
157,0.16977,0.9825,-1,2
158,0.17074,0.9797,-1,2
159,0.17171,0.9771,-1,2
160,0.17267,0.9738,-1,2
161,0.17362,0.9707,-1,2
162,0.17458,0.9679,-1,2
163,0.17553,0.9654,-1,2
164,0.17649,0.9628,-1,2
165,0.17743,0.96,-1,2
166,0.17838,0.9571,-1,2
167,0.17931,0.9539,-1,2
168,0.18025,0.9513,-1,2
169,0.18119,0.9486,-1,2
170,0.18213,0.946,-1,2
171,0.18306,0.9432,-1,2
172,0.18398,0.9401,-1,2
173,0.18491,0.9374,-1,2
174,0.18583,0.9346,-1,2
175,0.18675,0.9317,-1,2
176,0.18767,0.929,-1,2
177,0.18858,0.9263,-1,2
178,0.18949,0.9232,-1,2
179,0.1904,0.9201,-1,2
180,0.1913,0.9175,-1,2
181,0.1922,0.9149,-1,2
182,0.1931,0.9125,-1,2
183,0.194,0.9095,-1,2
184,0.1949,0.9066,-1,2
185,0.19579,0.9038,-1,2
186,0.19668,0.9011,-1,2
187,0.19756,0.8984,-1,2
188,0.19844,0.8957,-1,2
189,0.19933,0.8932,-1,2
190,0.20021,0.8906,-1,2
191,0.20109,0.8881,-1,2
192,0.20196,0.8854,-1,2
193,0.20283,0.8828,-1,2
194,0.2037,0.8801,-1,2
195,0.20456,0.8777,-1,2
196,0.20543,0.8752,-1,2
197,0.20629,0.8725,-1,2
198,0.20714,0.8697,-1,2
199,0.20799,0.8667,-1,2
200,0.20885,0.8642,-1,2
201,0.2097,0.8619,-1,2
202,0.21055,0.8596,-1,2
203,0.2114,0.8568,-1,2
204,0.21224,0.8539,-1,2
205,0.21307,0.8509,-1,2
206,0.21391,0.8484,-1,2
207,0.21475,0.8462,-1,2
208,0.21558,0.8437,-1,2
209,0.2164,0.841,-1,2
210,0.21723,0.8381,-1,2
211,0.21806,0.8354,-1,2
212,0.21888,0.8331,-1,2
213,0.21971,0.8309,-1,2
214,0.22052,0.8285,-1,2
215,0.22133,0.8258,-1,2
216,0.22214,0.8229,-1,2
217,0.22295,0.8203,-1,2
218,0.22376,0.8181,-1,2
219,0.22457,0.816,-1,2
220,0.22537,0.8136,-1,2
221,0.22617,0.811,-1,2
222,0.22697,0.8084,-1,2
223,0.22777,0.806,-1,2
224,0.22856,0.8038,-1,2
225,0.22935,0.8017,-1,2
226,0.23014,0.7995,-1,2
227,0.23092,0.797,-1,2
228,0.23171,0.7945,-1,2
229,0.23249,0.7923,-1,2
230,0.23327,0.7902,-1,2
231,0.23405,0.788,-1,2
232,0.23483,0.7855,-1,2
233,0.2356,0.783,-1,2
234,0.23637,0.7807,-1,2
235,0.23714,0.7786,-1,2
236,0.23791,0.7765,-1,2
237,0.23867,0.7745,-1,2
238,0.23943,0.7723,-1,2
239,0.24019,0.7699,-1,2
240,0.24095,0.7676,-1,2
241,0.24171,0.7655,-1,2
242,0.24246,0.7636,-1,2
243,0.24322,0.7616,-1,2
244,0.24396,0.7591,-1,2
245,0.24471,0.7568,-1,2
246,0.24545,0.7548,-1,2
247,0.2462,0.7531,-1,2
248,0.24694,0.7513,-1,2
249,0.24768,0.7494,-1,2
250,0.24842,0.7471,-1,2
251,0.24916,0.7448,-1,2
252,0.24989,0.7429,-1,2
253,0.25063,0.7413,-1,2
254,0.25136,0.74,-1,2
255,0.25209,0.7383,-1,2
256,0.25281,0.736,-1,2
257,0.25354,0.7336,-1,2
258,0.25426,0.7318,-1,2
259,0.25499,0.7302,-1,2
260,0.25571,0.7291,-1,2
261,0.25643,0.7277,-1,2
262,0.25715,0.7256,-1,2
263,0.25786,0.7236,-1,2
264,0.25858,0.7217,-1,2
265,0.25929,0.7203,-1,2
266,0.26072,0.7192,-1,2
267,0.26143,0.7177,-1,2
268,0.26213,0.7155,-1,2
269,0.26284,0.7135,-1,2
270,0.26284,0.7115,-1,2
271,0.26425,0.7101,-1,2
272,0.26495,0.709,-1,2
273,0.26566,0.7076,-1,2
274,0.26635,0.7059,-1,2
275,0.26705,0.7038,-1,2
276,0.26774,0.7021,-1,2
277,0.26844,0.701,-1,2
278,0.26914,0.7003,-1,2
279,0.26983,0.6991,-1,2
280,0.27052,0.6977,-1,2
281,0.27121,0.6959,-1,2
282,0.2719,0.6942,-1,2
283,0.27258,0.6928,-1,2
284,0.27327,0.692,-1,2
285,0.27396,0.6913,-1,2
286,0.27464,0.69,-1,2
287,0.27533,0.6884,-1,2
288,0.27669,0.6868,-1,2
289,0.27669,0.6855,-1,2
290,0.27805,0.6843,-1,2
291,0.27873,0.6834,-1,2
292,0.27941,0.6827,-1,2
293,0.28008,0.6817,-1,2
294,0.28076,0.6803,-1,2
295,0.28143,0.6789,-1,2
296,0.28211,0.678,-1,2
297,0.28278,0.6774,-1,2
298,0.28346,0.6769,-1,2
299,0.28413,0.6763,-1,2
300,0.2848,0.6755,-1,2
301,0.28547,0.6745,-1,2
302,0.28614,0.6731,-1,2
303,0.28681,0.6723,-1,2
304,0.28748,0.672,-1,2
305,0.28815,0.672,-1,2
306,0.28882,0.6719,-1,2
307,0.28949,0.671,-1,2
308,0.29016,0.6701,-1,2
309,0.29082,0.669,-1,2
310,0.29148,0.6685,-1,2
311,0.29215,0.6682,-1,2
312,0.29282,0.6683,-1,2
313,0.29349,0.6679,-1,2
314,0.29415,0.667,-1,2
315,0.29481,0.6658,-1,2
316,0.29547,0.6647,-1,2
317,0.29613,0.6644,-1,2
318,0.2968,0.6642,-1,2
319,0.29746,0.6641,-1,2
320,0.29812,0.6637,-1,2
321,0.29944,0.6626,-1,2
322,0.29944,0.6613,-1,2
323,0.30009,0.6602,-1,2
324,0.30075,0.6597,-1,2
325,0.30206,0.6595,-1,2
326,0.30206,0.6589,-1,2
327,0.30272,0.6581,-1,2
328,0.30402,0.6569,-1,2
329,0.30467,0.6557,-1,2
330,0.30533,0.6548,-1,2
331,0.30598,0.6545,-1,2
332,0.30663,0.6542,-1,2
333,0.30728,0.6537,-1,2
334,0.30793,0.6525,-1,2
335,0.30857,0.6511,-1,2
336,0.30922,0.6502,-1,2
337,0.30986,0.6493,-1,2
338,0.31051,0.6488,-1,2
339,0.31116,0.6485,-1,2
340,0.3118,0.6477,-1,2
341,0.31245,0.6467,-1,2
342,0.31309,0.6456,-1,2
343,0.31373,0.6446,-1,2
344,0.31437,0.6439,-1,2
345,0.31501,0.6434,-1,2
346,0.31565,0.6426,-1,2
347,0.31628,0.6419,-1,2
348,0.31692,0.641,-1,2
349,0.31756,0.6399,-1,2
350,0.31819,0.6388,-1,2
351,0.31883,0.6379,-1,2
352,0.31946,0.6371,-1,2
353,0.32009,0.6363,-1,2
354,0.32073,0.6358,-1,2
355,0.32136,0.635,-1,2
356,0.32199,0.6341,-1,2
357,0.32261,0.6328,-1,2
358,0.32324,0.6315,-1,2
359,0.32386,0.6304,-1,2
360,0.32449,0.6294,-1,2
361,0.32511,0.6285,-1,2
362,0.32574,0.6275,-1,2
363,0.32636,0.6264,-1,2
364,0.32697,0.6247,-1,2
365,0.32759,0.6231,-1,2
366,0.32821,0.6217,-1,2
367,0.32882,0.6206,-1,2
368,0.32943,0.6195,-1,2
369,0.33005,0.6182,-1,2
370,0.33066,0.6169,-1,2
371,0.33127,0.6152,-1,2
372,0.33187,0.6136,-1,2
373,0.33248,0.612,-1,2
374,0.33308,0.6106,-1,2
375,0.33369,0.6095,-1,2
376,0.33429,0.6084,-1,2
377,0.33489,0.6071,-1,2
378,0.33549,0.6056,-1,2
379,0.33609,0.604,-1,2
380,0.33668,0.6023,-1,2
381,0.33728,0.6008,-1,2
382,0.33787,0.5994,-1,2
383,0.33846,0.5981,-1,2
384,0.33905,0.5968,-1,2
385,0.33964,0.595,-1,2
386,0.34022,0.5932,-1,2
387,0.34081,0.5914,-1,2
388,0.34139,0.5899,-1,2
389,0.34197,0.5885,-1,2
390,0.34256,0.5872,-1,2
391,0.34313,0.5858,-1,2
392,0.34371,0.5843,-1,2
393,0.34429,0.5828,-1,2
394,0.34486,0.5813,-1,2
395,0.34544,0.5798,-1,2
396,0.34601,0.5782,-1,2
397,0.34657,0.5766,-1,2
398,0.34714,0.5748,-1,2
399,0.34771,0.5731,-1,2
400,0.34827,0.5714,-1,2
401,0.34883,0.5698,-1,2
402,0.34939,0.5681,-1,2
403,0.34995,0.5663,-1,2
404,0.35051,0.5645,-1,2
405,0.35106,0.5627,-1,2
406,0.35162,0.5609,-1,2
407,0.35217,0.5592,-1,2
408,0.35272,0.5576,-1,2
409,0.35326,0.5559,-1,2
410,0.35381,0.5541,-1,2
411,0.35435,0.5521,-1,2
412,0.3549,0.5501,-1,2
413,0.35543,0.5481,-1,2
414,0.35597,0.5462,-1,2
415,0.35651,0.5444,-1,2
416,0.35704,0.5427,-1,2
417,0.35758,0.5409,-1,2
418,0.35811,0.539,-1,2
419,0.35864,0.5371,-1,2
420,0.35916,0.5352,-1,2
421,0.35969,0.5335,-1,2
422,0.36021,0.5318,-1,2
423,0.36074,0.5301,-1,2
424,0.36126,0.5283,-1,2
425,0.36178,0.5266,-1,2
426,0.36229,0.5249,-1,2
427,0.36281,0.5233,-1,2
428,0.36332,0.5216,-1,2
429,0.36383,0.5199,-1,2
430,0.36435,0.5182,-1,2
431,0.36485,0.5165,-1,2
432,0.36536,0.515,-1,2
433,0.36587,0.5134,-1,2
434,0.36637,0.5119,-1,2
435,0.36688,0.5102,-1,2
436,0.36738,0.5086,-1,2
437,0.36788,0.5069,-1,2
438,0.36838,0.5054,-1,2
439,0.36887,0.5039,-1,2
440,0.36937,0.5024,-1,2
441,0.36986,0.501,-1,2
442,0.37036,0.4993,-1,2
443,0.37085,0.498,-1,2
444,0.37134,0.4966,-1,2
445,0.37183,0.4952,-1,2
446,0.37232,0.4938,-1,2
447,0.3728,0.4926,-1,2
448,0.37329,0.4913,-1,2
449,0.37377,0.4898,-1,2
450,0.37425,0.4883,-1,2
451,0.37473,0.4868,-1,2
452,0.37521,0.4855,-1,2
453,0.37569,0.4839,-1,2
454,0.37616,0.4824,-1,2
455,0.37664,0.481,-1,2
456,0.37711,0.4794,-1,2
457,0.37758,0.4778,-1,2
458,0.37805,0.4762,-1,2
459,0.37852,0.4749,-1,2
460,0.37899,0.4736,-1,2
461,0.37945,0.4721,-1,2
462,0.37992,0.4708,-1,2
463,0.38038,0.4695,-1,2
464,0.38085,0.4681,-1,2
465,0.38131,0.4669,-1,2
466,0.38177,0.4656,-1,2
467,0.38223,0.4642,-1,2
468,0.38268,0.4631,-1,2
469,0.38314,0.4618,-1,2
470,0.38359,0.4606,-1,2
471,0.38405,0.4593,-1,2
472,0.3845,0.4577,-1,2
473,0.38495,0.4563,-1,2
474,0.3854,0.4551,-1,2
475,0.38585,0.4537,-1,2
476,0.38629,0.4525,-1,2
477,0.38674,0.4512,-1,2
478,0.38718,0.4497,-1,2
479,0.38763,0.4486,-1,2
480,0.38851,0.4473,-1,2
481,0.38895,0.4461,-1,2
482,0.38939,0.4449,-1,2
483,0.38983,0.4438,-1,2
484,0.39027,0.4426,-1,2
485,0.3907,0.4415,-1,2
486,0.39114,0.4403,-1,2
487,0.39157,0.4391,-1,2
488,0.392,0.438,-1,2
489,0.39244,0.4367,-1,2
490,0.39287,0.4355,-1,2
491,0.39373,0.4345,-1,2
492,0.39416,0.4335,-1,2
493,0.39459,0.4324,-1,2
494,0.39502,0.4315,-1,2
495,0.39544,0.4306,-1,2
496,0.39587,0.4297,-1,2
497,0.3963,0.429,-1,2
498,0.39672,0.4284,-1,2
499,0.39715,0.4278,-1,2
500,0.39757,0.4275,-1,2
501,0.398,0.427,-1,2
502,0.39842,0.4267,-1,2
503,0.39885,0.4263,-1,2
504,0.39927,0.4259,-1,2
505,0.3997,0.4255,-1,2
506,0.40012,0.4253,-1,2
507,0.40055,0.4251,-1,2
508,0.40097,0.4249,-1,2
509,0.40139,0.4247,-1,2
510,0.40182,0.4245,-1,2
511,0.40225,0.4246,-1,2
512,0.40267,0.4245,-1,2
513,0.40309,0.4246,-1,2
514,0.40352,0.4246,-1,2
515,0.40395,0.425,-1,2
516,0.40437,0.4253,-1,2
517,0.4048,0.4257,-1,2
518,0.40523,0.4259,-1,2
519,0.40566,0.4263,-1,2
520,0.40609,0.4267,-1,2
521,0.40652,0.4271,-1,2
522,0.40695,0.4278,-1,2
523,0.40738,0.4283,-1,2
524,0.40781,0.4289,-1,2
525,0.40824,0.4292,-1,2
526,0.40867,0.4299,-1,2
527,0.4091,0.4305,-1,2
528,0.40997,0.4313,-1,2
529,0.41041,0.4321,-1,2
530,0.41085,0.433,-1,2
531,0.41129,0.4338,-1,2
532,0.41129,0.4348,-1,2
533,0.41173,0.4359,-1,2
534,0.41217,0.4369,-1,2
535,0.41261,0.4378,-1,2
536,0.41305,0.4387,-1,2
537,0.41349,0.4395,-1,2
538,0.41394,0.4405,-1,2
539,0.41438,0.4416,-1,2
540,0.41483,0.4424,-1,2
541,0.41528,0.4434,-1,2
542,0.41573,0.444,-1,2
543,0.41617,0.4448,-1,2
544,0.41663,0.446,-1,2
545,0.41708,0.4472,-1,2
546,0.41753,0.4482,-1,2
547,0.41799,0.4495,-1,2
548,0.41844,0.4506,-1,2
549,0.4189,0.4517,-1,2
550,0.41936,0.4531,-1,2
551,0.41982,0.4545,-1,2
552,0.42029,0.4561,-1,2
553,0.42075,0.4575,-1,2
554,0.42121,0.4586,-1,2
555,0.42168,0.46,-1,2
556,0.42215,0.4614,-1,2
557,0.42262,0.4627,-1,2
558,0.42309,0.4641,-1,2
559,0.42356,0.4655,-1,2
560,0.42403,0.4668,-1,2
561,0.42451,0.4682,-1,2
562,0.42498,0.4696,-1,2
563,0.42546,0.4713,-1,2
564,0.42594,0.473,-1,2
565,0.42643,0.4746,-1,2
566,0.42691,0.4764,-1,2
567,0.4274,0.4784,-1,2
568,0.42789,0.4804,-1,2
569,0.42838,0.4825,-1,2
570,0.42888,0.4847,-1,2
571,0.42937,0.4868,-1,2
572,0.42987,0.4889,-1,2
573,0.43037,0.4909,-1,2
574,0.43088,0.493,-1,2
575,0.43138,0.4952,-1,2
576,0.43189,0.4974,-1,2
577,0.4324,0.4996,-1,2
578,0.43291,0.5018,-1,2
579,0.43342,0.5039,-1,2
580,0.43394,0.5059,-1,2
581,0.43445,0.5079,-1,2
582,0.43497,0.51,-1,2
583,0.4355,0.5123,-1,2
584,0.43602,0.5148,-1,2
585,0.43655,0.5173,-1,2
586,0.43709,0.5198,-1,2
587,0.43762,0.5222,-1,2
588,0.43816,0.5246,-1,2
589,0.4387,0.5271,-1,2
590,0.43924,0.5298,-1,2
591,0.43978,0.5327,-1,2
592,0.44033,0.5357,-1,2
593,0.44088,0.5386,-1,2
594,0.44144,0.5414,-1,2
595,0.442,0.5444,-1,2
596,0.44256,0.5475,-1,2
597,0.44313,0.5507,-1,2
598,0.4437,0.5542,-1,2
599,0.44427,0.5577,-1,2
600,0.44485,0.5613,-1,2
601,0.44543,0.5648,-1,2
602,0.44601,0.5683,-1,2
603,0.4466,0.5721,-1,2
604,0.4472,0.5759,-1,2
605,0.44779,0.5798,-1,2
606,0.4484,0.5838,-1,2
607,0.449,0.5878,-1,2
608,0.44961,0.5917,-1,2
609,0.45023,0.5957,-1,2
610,0.45085,0.5998,-1,2
611,0.45147,0.604,-1,2
612,0.4521,0.6086,-1,2
613,0.45274,0.6132,-1,2
614,0.45338,0.618,-1,2
615,0.45402,0.6224,-1,2
616,0.45467,0.6269,-1,2
617,0.45532,0.6315,-1,2
618,0.45598,0.6363,-1,2
619,0.45664,0.6415,-1,2
620,0.45731,0.6466,-1,2
621,0.45799,0.6518,-1,2
622,0.45867,0.6566,-1,2
623,0.45935,0.6615,-1,2
624,0.46004,0.6663,-1,2
625,0.46074,0.6716,-1,2
626,0.46144,0.6769,-1,2
627,0.46214,0.6823,-1,2
628,0.46285,0.6876,-1,2
629,0.46357,0.6925,-1,2
630,0.46429,0.6975,-1,2
631,0.46501,0.7026,-1,2
632,0.46574,0.7079,-1,2
633,0.46648,0.7131,-1,2
634,0.46722,0.7183,-1,2
635,0.46797,0.7235,-1,2
636,0.46872,0.7285,-1,2
637,0.46948,0.7336,-1,2
638,0.47024,0.7386,-1,2
639,0.47101,0.7439,-1,2
640,0.47178,0.7491,-1,2
641,0.47256,0.7543,-1,2
642,0.47334,0.7593,-1,2
643,0.47412,0.7641,-1,2
644,0.47491,0.7691,-1,2
645,0.47571,0.7742,-1,2
646,0.47652,0.7795,-1,2
647,0.47732,0.7846,-1,2
648,0.47813,0.7899,-1,2
649,0.47895,0.7951,-1,2
650,0.47977,0.8007,-1,2
651,0.4806,0.806,-1,2
652,0.48143,0.8113,-1,2
653,0.4831,0.8165,-1,2
654,0.48394,0.8218,-1,2
655,0.48479,0.827,-1,2
656,0.48565,0.832,-1,2
657,0.4865,0.8369,-1,2
658,0.48736,0.8414,-1,2
659,0.48823,0.8457,-1,2
660,0.48909,0.8495,-1,2
661,0.48996,0.8536,-1,2
662,0.49084,0.858,-1,2
663,0.49172,0.8625,-1,2
664,0.49261,0.8664,-1,2
665,0.49349,0.8698,-1,2
666,0.49438,0.8733,-1,2
667,0.49527,0.8772,-1,2
668,0.49617,0.8813,-1,2
669,0.49707,0.885,-1,2
670,0.49797,0.8883,-1,2
671,0.49888,0.8913,-1,2
672,0.49979,0.8946,-1,2
673,0.50162,0.8982,-1,2
674,0.50254,0.9014,-1,2
675,0.50345,0.9045,-1,2
676,0.50438,0.9082,-1,2
677,0.50531,0.9116,-1,2
678,0.50624,0.9146,-1,2
679,0.50717,0.9175,-1,2
680,0.5081,0.9206,-1,2
681,0.50903,0.9241,-1,2
682,0.50998,0.9274,-1,2
683,0.51092,0.9301,-1,2
684,0.51187,0.933,-1,2
685,0.51281,0.9357,-1,2
686,0.51376,0.9377,-1,2
687,0.51471,0.94,-1,2
688,0.51567,0.9427,-1,2
689,0.51662,0.9454,-1,2
690,0.51757,0.9477,-1,2
691,0.51853,0.9498,-1,2
692,0.5195,0.9517,-1,2
693,0.52046,0.9541,-1,2
694,0.52143,0.956,-1,2
695,0.52239,0.9581,-1,2
696,0.52335,0.9599,-1,2
697,0.52433,0.962,-1,2
698,0.5253,0.9638,-1,2
699,0.52628,0.9656,-1,2
700,0.52725,0.9673,-1,2
701,0.52822,0.9689,-1,2
702,0.5292,0.9706,-1,2
703,0.53018,0.9719,-1,2
704,0.53116,0.9735,-1,2
705,0.53214,0.9748,-1,2
706,0.53312,0.9766,-1,2
707,0.53411,0.978,-1,2
708,0.5351,0.9795,-1,2
709,0.53608,0.9805,-1,2
710,0.53707,0.9819,-1,2
711,0.53805,0.9836,-1,2
712,0.54004,0.9851,-1,2
713,0.54103,0.986,-1,2
714,0.54202,0.9872,-1,2
715,0.54301,0.9889,-1,2
716,0.54401,0.9902,-1,2
717,0.54501,0.991,-1,2
718,0.546,0.9914,-1,2
719,0.547,0.9925,-1,2
720,0.54799,0.9939,-1,2
721,0.54899,0.9947,-1,2
722,0.54999,0.9951,-1,2
723,0.55099,0.9956,-1,2
724,0.55199,0.9963,-1,2
725,0.55299,0.997,-1,2
726,0.55399,0.9975,-1,2
727,0.55499,0.9978,-1,2
728,0.55598,0.9981,-1,2
729,0.55698,0.9986,-1,2
730,0.55799,0.9991,-1,2
731,0.55899,0.9993,-1,2
732,0.55998,0.9991,-1,2
733,0.56098,0.9991,-1,2
734,0.56198,0.9992,-1,2
735,0.56298,0.9996,-1,2
736,0.56398,0.9996,-1,2
737,0.56498,0.9996,-1,2
738,0.56598,0.9997,-1,2
739,0.56698,0.9997,-1,2
740,0.56798,0.9994,-1,2
741,0.56898,0.9991,-1,2
742,0.56997,0.9991,-1,2
743,0.57097,0.9993,-1,2
744,0.57197,0.9992,-1,2
745,0.57297,0.9986,-1,2
746,0.57397,0.9982,-1,2
747,0.57496,0.9978,-1,2
748,0.57596,0.9978,-1,2
749,0.57695,0.9973,-1,2
750,0.57795,0.9968,-1,2
751,0.57894,0.9962,-1,2
752,0.57993,0.9956,-1,2
753,0.58093,0.9953,-1,2
754,0.58192,0.9949,-1,2
755,0.58291,0.9943,-1,2
756,0.5839,0.9934,-1,2
757,0.58489,0.9925,-1,2
758,0.58588,0.9917,-1,2
759,0.58686,0.991,-1,2
760,0.58785,0.9901,-1,2
761,0.58883,0.9893,-1,2
762,0.58982,0.9886,-1,2
763,0.5908,0.9875,-1,2
764,0.59178,0.9863,-1,2
765,0.59276,0.9851,-1,2
766,0.59374,0.984,-1,2
767,0.59472,0.9833,-1,2
768,0.5957,0.9821,-1,2
769,0.59667,0.9811,-1,2
770,0.59765,0.9797,-1,2
771,0.59862,0.9785,-1,2
772,0.59959,0.9773,-1,2
773,0.60056,0.9762,-1,2
774,0.60153,0.975,-1,2
775,0.6025,0.9736,-1,2
776,0.60346,0.9724,-1,2
777,0.60443,0.9709,-1,2
778,0.60539,0.9697,-1,2
779,0.60636,0.9683,-1,2
780,0.60732,0.967,-1,2
781,0.60827,0.9656,-1,2
782,0.60923,0.9639,-1,2
783,0.61018,0.9622,-1,2
784,0.61114,0.9603,-1,2
785,0.61209,0.9589,-1,2
786,0.61304,0.9576,-1,2
787,0.61399,0.9562,-1,2
788,0.61494,0.9545,-1,2
789,0.61588,0.9527,-1,2
790,0.61683,0.9511,-1,2
791,0.61776,0.9492,-1,2
792,0.61871,0.948,-1,2
793,0.61965,0.9464,-1,2
794,0.62059,0.9451,-1,2
795,0.62152,0.9434,-1,2
796,0.62245,0.9416,-1,2
797,0.62339,0.9403,-1,2
798,0.62433,0.9389,-1,2
799,0.62526,0.9375,-1,2
800,0.62618,0.9358,-1,2
801,0.62711,0.9344,-1,2
802,0.62804,0.9329,-1,2
803,0.62897,0.9319,-1,2
804,0.62989,0.9304,-1,2
805,0.63081,0.929,-1,2
806,0.63173,0.9278,-1,2
807,0.63265,0.926,-1,2
808,0.63357,0.9246,-1,2
809,0.63449,0.9232,-1,2
810,0.6354,0.9218,-1,2
811,0.63631,0.9206,-1,2
812,0.63723,0.9193,-1,2
813,0.63814,0.9177,-1,2
814,0.63905,0.9164,-1,2
815,0.63996,0.9149,-1,2
816,0.64086,0.9133,-1,2
817,0.64177,0.9119,-1,2
818,0.64268,0.9105,-1,2
819,0.64358,0.9092,-1,2
820,0.64448,0.9081,-1,2
821,0.64538,0.9067,-1,2
822,0.64628,0.9052,-1,2
823,0.64718,0.9039,-1,2
824,0.64808,0.9026,-1,2
825,0.64897,0.9013,-1,2
826,0.64986,0.9,-1,2
827,0.65075,0.8988,-1,2
828,0.65165,0.8976,-1,2
829,0.65254,0.8963,-1,2
830,0.65343,0.8951,-1,2
831,0.65432,0.8938,-1,2
832,0.6552,0.8924,-1,2
833,0.65609,0.891,-1,2
834,0.65698,0.8896,-1,2
835,0.65786,0.8881,-1,2
836,0.65962,0.8869,-1,2
837,0.6605,0.8858,-1,2
