cnt,pos,speed,Dir,Force,
1,0,1.1908,-1,2
2,0.00124002,1.1997,-1,2
3,0.00249004,1.2096,-1,2
4,0.00375009,1.2181,-1,2
5,0.0049901,1.2236,-1,2
6,0.00621009,1.2256,-1,2
7,0.00743008,1.2272,-1,2
8,0.00867987,1.2319,-1,2
9,0.00994992,1.2386,-1,2
10,0.01121,1.2433,-1,2
11,0.01244,1.2441,-1,2
12,0.0136499,1.2417,-1,2
13,0.0148799,1.2388,-1,2
14,0.01612,1.2373,-1,2
15,0.01736,1.2374,-1,2
16,0.01859,1.238,-1,2
17,0.0197999,1.2366,-1,2
18,0.0209999,1.2319,-1,2
19,0.0222199,1.2263,-1,2
20,0.0234399,1.2235,-1,2
21,0.0246599,1.2218,-1,2
22,0.0258501,1.2197,-1,2
23,0.02703,1.2156,-1,2
24,0.02823,1.2111,-1,2
25,0.0294299,1.2068,-1,2
26,0.0306299,1.2036,-1,2
27,0.03181,1.2008,-1,2
28,0.03298,1.1974,-1,2
29,0.0341499,1.1929,-1,2
30,0.03532,1.1878,-1,2
31,0.0365,1.1839,-1,2
32,0.0376599,1.1807,-1,2
33,0.03881,1.1771,-1,2
34,0.0399499,1.172,-1,2
35,0.0411,1.1669,-1,2
36,0.0422499,1.1627,-1,2
37,0.04339,1.1589,-1,2
38,0.0445199,1.1546,-1,2
39,0.04564,1.1494,-1,2
40,0.0467601,1.144,-1,2
41,0.0478799,1.1388,-1,2
42,0.049,1.1341,-1,2
43,0.0501001,1.1294,-1,2
44,0.0511999,1.1246,-1,2
45,0.05229,1.1192,-1,2
46,0.05338,1.1131,-1,2
47,0.0544701,1.1073,-1,2
48,0.0555401,1.102,-1,2
49,0.0566099,1.0971,-1,2
50,0.0576699,1.0911,-1,2
51,0.0587299,1.0849,-1,2
52,0.0597899,1.079,-1,2
53,0.0608299,1.0734,-1,2
54,0.0618701,1.0665,-1,2
55,0.06392,1.0594,-1,2
56,0.06392,1.0525,-1,2
57,0.0659599,1.0459,-1,2
58,0.0669699,1.0392,-1,2
59,0.06797,1.0318,-1,2
60,0.06896,1.0247,-1,2
61,0.0699501,1.0176,-1,2
62,0.07093,1.0107,-1,2
63,0.0719099,1.0036,-1,2
64,0.07287,0.9972,-1,2
65,0.0738299,0.9905,-1,2
66,0.07479,0.984,-1,2
67,0.0757401,0.9775,-1,2
68,0.0766799,0.9709,-1,2
69,0.07761,0.9646,-1,2
70,0.0785301,0.9578,-1,2
71,0.0794599,0.9511,-1,2
72,0.0803699,0.9442,-1,2
73,0.08128,0.9366,-1,2
74,0.08218,0.9293,-1,2
75,0.0839601,0.9222,-1,2
76,0.0848401,0.9146,-1,2
77,0.08571,0.9065,-1,2
78,0.08657,0.8986,-1,2
79,0.08743,0.8908,-1,2
80,0.08828,0.8836,-1,2
81,0.0891299,0.8762,-1,2
82,0.0899601,0.8683,-1,2
83,0.09079,0.8612,-1,2
84,0.09161,0.854,-1,2
85,0.0924201,0.8468,-1,2
86,0.09324,0.8398,-1,2
87,0.0940399,0.8332,-1,2
88,0.09484,0.8266,-1,2
89,0.0956199,0.8195,-1,2
90,0.0964,0.8123,-1,2
91,0.0971799,0.8051,-1,2
92,0.09795,0.7985,-1,2
93,0.0987101,0.7921,-1,2
94,0.0994599,0.7845,-1,2
95,0.10021,0.7773,-1,2
96,0.10168,0.7697,-1,2
97,0.10168,0.7624,-1,2
98,0.10313,0.755,-1,2
99,0.10313,0.7478,-1,2
100,0.10455,0.7401,-1,2
101,0.10524,0.7323,-1,2
102,0.10594,0.7245,-1,2
103,0.10663,0.717,-1,2
104,0.10731,0.7108,-1,2
105,0.10798,0.7036,-1,2
106,0.10864,0.6961,-1,2
107,0.1093,0.6886,-1,2
108,0.10995,0.6816,-1,2
109,0.1106,0.6753,-1,2
110,0.11124,0.6692,-1,2
111,0.11187,0.6627,-1,2
112,0.11249,0.6557,-1,2
113,0.11311,0.6487,-1,2
114,0.11373,0.6418,-1,2
115,0.11433,0.6353,-1,2
116,0.11493,0.6291,-1,2
117,0.11552,0.6225,-1,2
118,0.11611,0.6159,-1,2
119,0.11669,0.609,-1,2
120,0.11726,0.6022,-1,2
121,0.11838,0.5948,-1,2
122,0.11894,0.5875,-1,2
123,0.11948,0.5802,-1,2
124,0.12002,0.5731,-1,2
125,0.12056,0.5661,-1,2
126,0.12109,0.5592,-1,2
127,0.12161,0.5521,-1,2
128,0.12212,0.5448,-1,2
129,0.12263,0.5374,-1,2
130,0.12313,0.5302,-1,2
131,0.12362,0.5239,-1,2
132,0.12411,0.5177,-1,2
133,0.1246,0.5115,-1,2
134,0.12507,0.505,-1,2
135,0.12554,0.4984,-1,2
136,0.12601,0.492,-1,2
137,0.12647,0.486,-1,2
138,0.12692,0.48,-1,2
139,0.12781,0.4733,-1,2
140,0.12824,0.4666,-1,2
141,0.12867,0.46,-1,2
142,0.12909,0.4535,-1,2
143,0.12951,0.447,-1,2
144,0.12992,0.4405,-1,2
145,0.13033,0.4341,-1,2
146,0.13073,0.4274,-1,2
147,0.13112,0.4209,-1,2
148,0.13151,0.4144,-1,2
149,0.13189,0.4088,-1,2
150,0.13227,0.4032,-1,2
151,0.13264,0.397,-1,2
152,0.133,0.3911,-1,2
153,0.13336,0.3852,-1,2
154,0.13372,0.3796,-1,2
155,0.13407,0.3739,-1,2
156,0.13441,0.3684,-1,2
157,0.13475,0.3626,-1,2
158,0.13508,0.357,-1,2
159,0.13541,0.3513,-1,2
160,0.13573,0.3459,-1,2
161,0.13605,0.3401,-1,2
162,0.13636,0.3346,-1,2
163,0.13666,0.3291,-1,2
164,0.13696,0.3235,-1,2
165,0.13726,0.3181,-1,2
166,0.13755,0.3128,-1,2
167,0.13783,0.3075,-1,2
168,0.13811,0.3014,-1,2
169,0.13864,0.2954,-1,2
170,0.13891,0.2893,-1,2
171,0.13891,0.284,-1,2
172,0.13916,0.2787,-1,2
173,0.13966,0.2725,-1,2
174,0.13966,0.2664,-1,2
175,0.14013,0.2601,-1,2
176,0.14013,0.2539,-1,2
177,0.14058,0.2479,-1,2
178,0.1408,0.2426,-1,2
179,0.14101,0.2371,-1,2
180,0.14121,0.2313,-1,2
181,0.14141,0.2256,-1,2
182,0.14161,0.2194,-1,2
183,0.1418,0.2141,-1,2
184,0.14198,0.2088,-1,2
185,0.14216,0.2035,-1,2
186,0.14233,0.1979,-1,2
187,0.1425,0.1923,-1,2
188,0.14266,0.1863,-1,2
189,0.14282,0.1804,-1,2
190,0.14297,0.1745,-1,2
191,0.14312,0.1691,-1,2
192,0.14326,0.1637,-1,2
193,0.1434,0.1582,-1,2
194,0.14353,0.1529,-1,2
195,0.14366,0.1477,-1,2
196,0.14378,0.1427,-1,2
197,0.14389,0.137,-1,2
198,0.14411,0.1318,-1,2
199,0.14421,0.1267,-1,2
200,0.14431,0.1218,-1,2
201,0.1444,0.1165,-1,2
202,0.14449,0.1111,-1,2
203,0.14457,0.1059,-1,2
204,0.14465,0.1006,-1,2
205,0.14473,0.0953,-1,2
206,0.1448,0.0901,-1,2
207,0.14486,0.0855,-1,2
208,0.14492,0.081,-1,2
209,0.14498,0.0766,-1,2
210,0.14503,0.072,-1,2
211,0.14508,0.0674,-1,2
212,0.14512,0.0631,-1,2
213,0.14516,0.0587,-1,2
214,0.1452,0.0543,-1,2
215,0.14523,0.05,-1,2
216,0.14525,0.0457,-1,2
217,0.14528,0.0414,-1,2
218,0.1453,0.0372,-1,2
219,0.14531,0.0331,-1,2
220,0.14532,0.0288,-1,2
221,0.14533,0.0245,-1,2
222,0.14533,0.0202,-1,2
223,0.14534,0.0161,-1,2
224,0.14533,0.0121,-1,2
225,0.14533,0.0082,-1,2
226,0.14531,0,-1,2
227,0.14529,0,-1,2
228,0.14528,0,-1,2
229,0.14526,0,-1,2
230,0.14524,-0.0087,-1,2
231,0.14522,-0.0113,-1,2
232,0.1452,-0.0139,-1,2
233,0.14517,-0.0163,-1,2
234,0.14514,-0.0185,-1,2
235,0.14511,-0.0206,-1,2
236,0.14508,-0.0225,-1,2
237,0.14505,-0.0243,-1,2
238,0.14502,-0.026,-1,2
239,0.14498,-0.0278,-1,2
240,0.14495,-0.0295,-1,2
241,0.14491,-0.0311,-1,2
242,0.14487,-0.0325,-1,2
243,0.14483,-0.0339,-1,2
244,0.14479,-0.0354,-1,2
245,0.14475,-0.0367,-1,2
246,0.1447,-0.038,-1,2
247,0.14466,-0.0394,-1,2
248,0.14457,-0.0408,-1,2
249,0.14452,-0.0422,-1,2
250,0.14447,-0.0435,-1,2
251,0.14447,-0.0448,-1,2
252,0.14436,-0.0462,-1,2
253,0.14431,-0.0476,-1,2
254,0.14425,-0.049,-1,2
255,0.1442,-0.0505,-1,2
256,0.14414,-0.052,-1,2
257,0.14408,-0.0535,-1,2
258,0.14402,-0.055,-1,2
259,0.14395,-0.0566,-1,2
260,0.14389,-0.0583,-1,2
261,0.14382,-0.0602,-1,2
262,0.14374,-0.062,-1,2
263,0.14367,-0.064,-1,2
264,0.1436,-0.0659,-1,2
265,0.14352,-0.0681,-1,2
266,0.14344,-0.0704,-1,2
267,0.14335,-0.0727,-1,2
268,0.14327,-0.0752,-1,2
269,0.14318,-0.078,-1,2
270,0.14308,-0.0807,-1,2
271,0.14299,-0.0835,-1,2
272,0.14289,-0.0866,-1,2
273,0.14268,-0.0898,-1,2
274,0.14257,-0.0932,-1,2
275,0.14246,-0.0965,-1,2
276,0.14234,-0.1,-1,2
277,0.14222,-0.1035,-1,2
278,0.1421,-0.1072,-1,2
279,0.14197,-0.1107,-1,2
280,0.14184,-0.1145,-1,2
281,0.14171,-0.1183,-1,2
282,0.14157,-0.1221,-1,2
283,0.14142,-0.1259,-1,2
284,0.14127,-0.1298,-1,2
285,0.14112,-0.1338,-1,2
286,0.14096,-0.138,-1,2
287,0.1408,-0.1422,-1,2
288,0.14064,-0.1464,-1,2
289,0.14047,-0.1506,-1,2
290,0.14029,-0.1549,-1,2
291,0.14012,-0.1591,-1,2
292,0.13993,-0.1634,-1,2
293,0.13975,-0.1677,-1,2
294,0.13955,-0.1725,-1,2
295,0.13916,-0.1774,-1,2
296,0.13895,-0.1822,-1,2
297,0.13874,-0.1873,-1,2
298,0.13852,-0.1923,-1,2
299,0.1383,-0.1974,-1,2
300,0.13808,-0.2025,-1,2
301,0.13785,-0.2077,-1,2
302,0.13761,-0.213,-1,2
303,0.13737,-0.2183,-1,2
304,0.13712,-0.2233,-1,2
305,0.13687,-0.2284,-1,2
306,0.13662,-0.2334,-1,2
307,0.13636,-0.2383,-1,2
308,0.13609,-0.2431,-1,2
309,0.13582,-0.2479,-1,2
310,0.13555,-0.2529,-1,2
311,0.13527,-0.258,-1,2
312,0.13498,-0.263,-1,2
313,0.13439,-0.2685,-1,2
314,0.13409,-0.2739,-1,2
315,0.13379,-0.2793,-1,2
316,0.13348,-0.2848,-1,2
317,0.13316,-0.2904,-1,2
318,0.13284,-0.2961,-1,2
319,0.13251,-0.3019,-1,2
320,0.13218,-0.3077,-1,2
321,0.13184,-0.3134,-1,2
322,0.1315,-0.319,-1,2
323,0.13115,-0.3242,-1,2
324,0.1308,-0.3296,-1,2
325,0.13044,-0.3351,-1,2
326,0.13007,-0.3404,-1,2
327,0.1297,-0.3457,-1,2
328,0.12933,-0.351,-1,2
329,0.12895,-0.3561,-1,2
330,0.12856,-0.3616,-1,2
331,0.12817,-0.367,-1,2
332,0.12778,-0.3724,-1,2
333,0.12738,-0.3777,-1,2
334,0.12697,-0.3827,-1,2
335,0.12656,-0.3876,-1,2
336,0.12615,-0.3934,-1,2
337,0.12572,-0.3986,-1,2
338,0.1253,-0.4043,-1,2
339,0.12487,-0.41,-1,2
340,0.12399,-0.4152,-1,2
341,0.12354,-0.4207,-1,2
342,0.12309,-0.4263,-1,2
343,0.12264,-0.432,-1,2
344,0.12217,-0.4378,-1,2
345,0.12171,-0.4433,-1,2
346,0.12124,-0.4481,-1,2
347,0.12076,-0.4537,-1,2
348,0.12028,-0.4589,-1,2
349,0.11979,-0.4643,-1,2
350,0.1193,-0.4696,-1,2
351,0.1188,-0.4747,-1,2
352,0.1183,-0.4798,-1,2
353,0.11779,-0.4848,-1,2
354,0.11728,-0.4898,-1,2
355,0.11676,-0.495,-1,2
356,0.11624,-0.5001,-1,2
357,0.11571,-0.505,-1,2
358,0.11518,-0.5099,-1,2
359,0.11464,-0.5147,-1,2
360,0.1141,-0.5196,-1,2
361,0.11301,-0.5249,-1,2
362,0.11245,-0.5303,-1,2
363,0.11189,-0.5358,-1,2
364,0.11132,-0.5413,-1,2
365,0.11075,-0.5468,-1,2
366,0.11017,-0.5524,-1,2
367,0.10959,-0.558,-1,2
368,0.109,-0.5634,-1,2
369,0.10841,-0.5687,-1,2
370,0.10782,-0.574,-1,2
371,0.10722,-0.5789,-1,2
372,0.10661,-0.5837,-1,2
373,0.106,-0.5886,-1,2
374,0.10539,-0.5935,-1,2
375,0.10476,-0.5984,-1,2
376,0.10414,-0.6032,-1,2
377,0.10351,-0.6081,-1,2
378,0.10287,-0.6132,-1,2
379,0.10223,-0.6183,-1,2
380,0.10158,-0.6234,-1,2
381,0.10093,-0.6283,-1,2
382,0.0996201,-0.6338,-1,2
383,0.0996201,-0.6393,-1,2
384,0.09828,-0.6446,-1,2
385,0.09828,-0.6499,-1,2
386,0.09693,-0.6551,-1,2
387,0.0962501,-0.6605,-1,2
388,0.0955601,-0.666,-1,2
389,0.0948601,-0.6716,-1,2
390,0.0941601,-0.6769,-1,2
391,0.0934601,-0.6824,-1,2
392,0.0927501,-0.6871,-1,2
393,0.09203,-0.6919,-1,2
394,0.09131,-0.697,-1,2
395,0.09059,-0.7022,-1,2
396,0.08986,-0.7075,-1,2
397,0.0891299,-0.7122,-1,2
398,0.0883899,-0.7167,-1,2
399,0.08764,-0.7214,-1,2
400,0.08689,-0.7266,-1,2
401,0.0861399,-0.7318,-1,2
402,0.0853801,-0.7371,-1,2
403,0.08462,-0.7419,-1,2
404,0.0838499,-0.7463,-1,2
405,0.0830801,-0.7506,-1,2
406,0.0822999,-0.7555,-1,2
407,0.0815201,-0.7608,-1,2
408,0.08073,-0.7662,-1,2
409,0.0791399,-0.7712,-1,2
410,0.0783401,-0.776,-1,2
411,0.0775399,-0.781,-1,2
412,0.07672,-0.7865,-1,2
413,0.0759101,-0.7919,-1,2
414,0.0750899,-0.7973,-1,2
415,0.07427,-0.8025,-1,2
416,0.0734401,-0.8074,-1,2
417,0.0725999,-0.8124,-1,2
418,0.0717599,-0.8176,-1,2
419,0.07091,-0.8227,-1,2
420,0.07007,-0.8273,-1,2
421,0.0692201,-0.8314,-1,2
422,0.0683701,-0.8353,-1,2
423,0.0674999,-0.8399,-1,2
424,0.0666399,-0.8449,-1,2
425,0.0657599,-0.8499,-1,2
426,0.0648899,-0.8543,-1,2
427,0.0640199,-0.8584,-1,2
428,0.0631299,-0.8625,-1,2
429,0.0622399,-0.8671,-1,2
430,0.0613499,-0.8719,-1,2
431,0.0604601,-0.8765,-1,2
432,0.0595601,-0.8808,-1,2
433,0.05865,-0.885,-1,2
434,0.05774,-0.8892,-1,2
435,0.0568299,-0.8939,-1,2
436,0.0559001,-0.8988,-1,2
437,0.05406,-0.9033,-1,2
438,0.0531299,-0.9079,-1,2
439,0.0522001,-0.9124,-1,2
440,0.05126,-0.9173,-1,2
441,0.0503099,-0.9223,-1,2
442,0.0493701,-0.9271,-1,2
443,0.04842,-0.9319,-1,2
444,0.0474601,-0.9366,-1,2
445,0.0465,-0.941,-1,2
446,0.0455401,-0.9448,-1,2
447,0.04457,-0.9491,-1,2
448,0.0436001,-0.9531,-1,2
449,0.0426199,-0.9574,-1,2
450,0.04164,-0.9612,-1,2
451,0.0406599,-0.9651,-1,2
452,0.03968,-0.9692,-1,2
453,0.0386901,-0.9731,-1,2
454,0.0376899,-0.977,-1,2
455,0.03669,-0.9806,-1,2
456,0.0356901,-0.9848,-1,2
457,0.0346799,-0.9888,-1,2
458,0.0336699,-0.9928,-1,2
459,0.03266,-0.9964,-1,2
460,0.0316401,-1,-1,2
461,0.0306299,-1.0036,-1,2
462,0.0296099,-1.0075,-1,2
463,0.02858,-1.0109,-1,2
464,0.02652,-1.0143,-1,2
465,0.02549,-1.0178,-1,2
466,0.0244501,-1.0212,-1,2
467,0.0234101,-1.0246,-1,2
468,0.0223701,-1.0276,-1,2
469,0.0213299,-1.0303,-1,2
470,0.0202899,-1.0331,-1,2
471,0.0192399,-1.0358,-1,2
472,0.0181899,-1.0381,-1,2
473,0.0171399,-1.0405,-1,2
474,0.0160899,-1.0426,-1,2
475,0.0150399,-1.0445,-1,2
476,0.0139899,-1.0461,-1,2
477,0.0129399,-1.0474,-1,2
478,0.0118799,-1.0487,-1,2
479,0.0108299,-1.0501,-1,2
480,0.00976992,-1.0513,-1,2
481,0.00871992,-1.0523,-1,2
482,0.00765991,-1.0532,-1,2
483,0.0065999,-1.054,-1,2
484,0.00554991,-1.0544,-1,2
485,0.0034399,-1.0548,-1,2
486,0.00238991,-1.055,-1,2
487,0.0013299,-1.0552,-1,2
488,0.000279903,-1.0553,-1,2
489,-0.000780106,-1.0555,-1,2
490,-0.00184011,-1.0557,-1,2
491,-0.00290012,-1.0558,-1,2
492,-0.00395012,-1.0553,-1,2
493,-0.00500011,-1.0545,-1,2
494,-0.0060401,-1.0538,-1,2
495,-0.00709009,-1.053,-1,2
496,-0.00814009,-1.0528,-1,2
497,-0.0092001,-1.0528,-1,2
498,-0.0102501,-1.053,-1,2
499,-0.0113001,-1.0523,-1,2
500,-0.0123501,-1.0511,-1,2
501,-0.0133901,-1.0495,-1,2
502,-0.01443,-1.0479,-1,2
503,-0.01546,-1.0467,-1,0
504,-0.01651,-1.0464,-1,0
505,-0.01756,-1.0465,-1,0
506,-0.0186,-1.0459,-1,0
507,-0.01963,-1.0435,-1,0
508,-0.0206499,-1.0395,-1,0
509,-0.0216601,-1.0349,-1,0
510,-0.02266,-1.0302,-1,0
511,-0.0246601,-1.0259,-1,0
512,-0.02566,-1.0221,-1,0
513,-0.02666,-1.0189,-1,0
514,-0.0276699,-1.015,-1,0
515,-0.0286801,-1.0109,-1,0
516,-0.02968,-1.0069,-1,0
517,-0.0306799,-1.0037,-1,0
518,-0.0316801,-1.0015,-1,0
519,-0.03266,-1,-1,0
520,-0.0336499,-0.9984,-1,0
521,-0.0346301,-0.9965,-1,0
522,-0.0355999,-0.9939,-1,0
523,-0.0365601,-0.9899,-1,0
524,-0.0375199,-0.9849,-1,0
525,-0.03847,-0.979,-1,0
526,-0.0394101,-0.9728,-1,0
527,-0.04035,-0.9669,-1,0
528,-0.04129,-0.9611,-1,0
529,-0.0422201,-0.9552,-1,0
530,-0.0431399,-0.9496,-1,0
531,-0.04407,-0.9443,-1,0
532,-0.0449901,-0.9393,-1,0
533,-0.0459201,-0.9352,-1,0
534,-0.04684,-0.9321,-1,0
535,-0.04776,-0.9292,-1,0
536,-0.0486801,-0.9271,-1,0
537,-0.0496001,-0.9248,-1,0
538,-0.0505099,-0.9221,-1,0
539,-0.05141,-0.9196,-1,0
540,-0.05231,-0.917,-1,0
541,-0.05321,-0.914,-1,0
542,-0.0541,-0.9104,-1,0
543,-0.0549901,-0.9066,-1,0
544,-0.0558701,-0.9018,-1,0
545,-0.0567501,-0.8975,-1,0
546,-0.05762,-0.8922,-1,0
547,-0.05935,-0.887,-1,0
548,-0.06021,-0.8821,-1,0
549,-0.06107,-0.8774,-1,0
550,-0.0619299,-0.8729,-1,0
551,-0.0627799,-0.8689,-1,0
552,-0.0636401,-0.8658,-1,0
553,-0.0644901,-0.8624,-1,0
554,-0.06534,-0.8596,-1,0
555,-0.06618,-0.8563,-1,0
556,-0.0670199,-0.8532,-1,0
557,-0.0678501,-0.8503,-1,0
558,-0.06868,-0.8473,-1,0
559,-0.06951,-0.844,-1,0
560,-0.0703299,-0.8405,-1,0
561,-0.0711501,-0.8368,-1,0
562,-0.07196,-0.8327,-1,0
563,-0.0727701,-0.8288,-1,0
564,-0.07359,-0.825,-1,0
565,-0.0743899,-0.8215,-1,0
566,-0.0752001,-0.8182,-1,0
567,-0.076,-0.815,-1,0
568,-0.0768001,-0.812,-1,0
569,-0.0776,-0.809,-1,0
570,-0.0783901,-0.8063,-1,0
571,-0.07918,-0.8035,-1,0
572,-0.0799701,-0.8008,-1,0
573,-0.08075,-0.7978,-1,0
574,-0.0815301,-0.7948,-1,0
575,-0.08231,-0.7915,-1,0
576,-0.0838599,-0.7883,-1,0
577,-0.08463,-0.7849,-1,0
578,-0.0854001,-0.7815,-1,0
579,-0.0861599,-0.7782,-1,0
580,-0.08692,-0.7749,-1,0
581,-0.0876801,-0.7719,-1,0
582,-0.0884399,-0.7688,-1,0
583,-0.08919,-0.7656,-1,0
584,-0.0899401,-0.7624,-1,0
585,-0.0906801,-0.759,-1,0
586,-0.0914199,-0.7558,-1,0
587,-0.09216,-0.7527,-1,0
588,-0.09289,-0.7497,-1,0
589,-0.0936301,-0.7469,-1,0
590,-0.0943701,-0.7444,-1,0
591,-0.0950999,-0.742,-1,0
592,-0.09584,-0.7401,-1,0
593,-0.09658,-0.7387,-1,0
594,-0.0973101,-0.7372,-1,0
595,-0.0980401,-0.736,-1,0
596,-0.0987601,-0.7344,-1,0
597,-0.0994899,-0.7327,-1,0
598,-0.1002,-0.7308,-1,0
599,-0.10092,-0.7288,-1,0
600,-0.10163,-0.7262,-1,0
601,-0.10234,-0.7236,-1,0
602,-0.10305,-0.7207,-1,0
603,-0.10375,-0.7179,-1,0
604,-0.10446,-0.7153,-1,0
605,-0.10517,-0.713,-1,0
606,-0.10657,-0.7105,-1,0
607,-0.10657,-0.7081,-1,0
608,-0.10727,-0.7056,-1,0
609,-0.10796,-0.703,-1,0
610,-0.10934,-0.7006,-1,0
611,-0.10934,-0.6982,-1,0
612,-0.11071,-0.6959,-1,0
613,-0.1114,-0.6936,-1,0
614,-0.11208,-0.6912,-1,0
615,-0.11276,-0.6887,-1,0
616,-0.11344,-0.6866,-1,0
617,-0.11412,-0.6844,-1,0
618,-0.11479,-0.6825,-1,0
619,-0.11546,-0.6805,-1,0
620,-0.11612,-0.6784,-1,0
621,-0.11679,-0.6761,-1,0
622,-0.11745,-0.6738,-1,0
623,-0.11811,-0.6713,-1,0
624,-0.11877,-0.669,-1,0
625,-0.11943,-0.6667,-1,0
626,-0.12008,-0.6645,-1,0
627,-0.12074,-0.6625,-1,0
628,-0.12139,-0.6603,-1,0
629,-0.12204,-0.6579,-1,0
630,-0.12268,-0.6558,-1,0
631,-0.12332,-0.6538,-1,0
632,-0.12396,-0.6515,-1,0
633,-0.1246,-0.6495,-1,0
634,-0.12524,-0.6474,-1,0
635,-0.12588,-0.6451,-1,0
636,-0.12651,-0.6429,-1,0
637,-0.12714,-0.6406,-1,0
638,-0.12777,-0.6383,-1,0
639,-0.1284,-0.6364,-1,0
640,-0.12902,-0.6345,-1,0
641,-0.13027,-0.6323,-1,0
642,-0.13088,-0.6302,-1,0
643,-0.1315,-0.6278,-1,0
644,-0.13211,-0.6251,-1,0
645,-0.13273,-0.6226,-1,0
646,-0.13334,-0.62,-1,0
647,-0.13394,-0.6176,-1,0
648,-0.13455,-0.6155,-1,0
649,-0.13516,-0.6134,-1,0
650,-0.13576,-0.6112,-1,0
651,-0.13636,-0.6091,-1,0
652,-0.13696,-0.607,-1,0
653,-0.13755,-0.6049,-1,0
654,-0.13815,-0.6029,-1,0
655,-0.13874,-0.6009,-1,0
656,-0.13933,-0.5989,-1,0
657,-0.13991,-0.5967,-1,0
658,-0.1405,-0.5945,-1,0
659,-0.14108,-0.5923,-1,0
660,-0.14166,-0.5904,-1,0
661,-0.14225,-0.5887,-1,0
662,-0.14283,-0.5871,-1,0
663,-0.1434,-0.5852,-1,0
664,-0.14398,-0.5834,-1,0
665,-0.14455,-0.5815,-1,0
666,-0.14512,-0.5795,-1,0
667,-0.14568,-0.5774,-1,0
668,-0.14625,-0.5753,-1,0
669,-0.14681,-0.5732,-1,0
670,-0.14737,-0.5709,-1,0
671,-0.14793,-0.5687,-1,0
672,-0.14849,-0.5667,-1,0
673,-0.14905,-0.5647,-1,0
674,-0.14961,-0.5626,-1,0
675,-0.15016,-0.5605,-1,0
676,-0.15072,-0.5584,-1,0
677,-0.15181,-0.5566,-1,0
678,-0.15235,-0.5546,-1,0
679,-0.1529,-0.5527,-1,0
680,-0.15344,-0.5507,-1,0
681,-0.15398,-0.5485,-1,0
682,-0.15451,-0.546,-1,0
683,-0.15505,-0.5438,-1,0
684,-0.15558,-0.5417,-1,0
685,-0.15611,-0.54,-1,0
686,-0.15665,-0.5385,-1,0
687,-0.15718,-0.5369,-1,0
688,-0.15771,-0.5354,-1,0
689,-0.15823,-0.5337,-1,0
690,-0.15875,-0.5318,-1,0
691,-0.15927,-0.5299,-1,0
692,-0.15979,-0.528,-1,0
693,-0.16031,-0.5261,-1,0
694,-0.16082,-0.5242,-1,0
695,-0.16133,-0.5222,-1,0
696,-0.16185,-0.5202,-1,0
697,-0.16236,-0.5183,-1,0
698,-0.16287,-0.5165,-1,0
699,-0.16338,-0.5146,-1,0
700,-0.16388,-0.5129,-1,0
701,-0.16438,-0.5111,-1,0
702,-0.16488,-0.5095,-1,0
703,-0.16538,-0.5078,-1,0
704,-0.16588,-0.5063,-1,0
705,-0.16638,-0.5046,-1,0
706,-0.16687,-0.5025,-1,0
707,-0.16786,-0.5003,-1,0
708,-0.16834,-0.4979,-1,0
709,-0.16883,-0.4956,-1,0
710,-0.16931,-0.4933,-1,0
711,-0.16979,-0.4912,-1,0
712,-0.17027,-0.4891,-1,0
713,-0.17075,-0.4871,-1,0
714,-0.17123,-0.4851,-1,0
715,-0.17171,-0.4833,-1,0
716,-0.17218,-0.4818,-1,0
717,-0.17266,-0.4802,-1,0
718,-0.17313,-0.4786,-1,0
719,-0.1736,-0.4771,-1,0
720,-0.17406,-0.4755,-1,0
721,-0.17453,-0.4738,-1,0
722,-0.17499,-0.4722,-1,0
723,-0.17545,-0.4705,-1,0
724,-0.17591,-0.4687,-1,0
725,-0.17637,-0.4667,-1,0
726,-0.17683,-0.4647,-1,0
727,-0.17729,-0.4627,-1,0
728,-0.17774,-0.4608,-1,0
729,-0.17819,-0.4589,-1,0
730,-0.17864,-0.4571,-1,0
731,-0.17908,-0.4556,-1,0
732,-0.17953,-0.454,-1,0
733,-0.17998,-0.4525,-1,0
734,-0.18043,-0.4509,-1,0
735,-0.18087,-0.4493,-1,0
736,-0.18131,-0.4477,-1,0
737,-0.18175,-0.4461,-1,0
738,-0.18218,-0.4444,-1,0
739,-0.18261,-0.4427,-1,0
740,-0.18304,-0.4409,-1,0
741,-0.18348,-0.439,-1,0
742,-0.1839,-0.4371,-1,0
743,-0.18476,-0.435,-1,0
744,-0.18518,-0.433,-1,0
745,-0.18561,-0.4309,-1,0
746,-0.18603,-0.4288,-1,0
747,-0.18644,-0.4267,-1,0
748,-0.18686,-0.4248,-1,0
749,-0.18727,-0.423,-1,0
750,-0.18769,-0.4214,-1,0
751,-0.1881,-0.4197,-1,0
752,-0.18852,-0.4181,-1,0
753,-0.18893,-0.4168,-1,0
754,-0.18934,-0.4154,-1,0
755,-0.18975,-0.414,-1,0
756,-0.19015,-0.4127,-1,0
757,-0.19056,-0.4113,-1,0
758,-0.19096,-0.4099,-1,0
759,-0.19135,-0.408,-1,0
760,-0.19175,-0.4063,-1,0
761,-0.19215,-0.4044,-1,0
762,-0.19254,-0.4024,-1,0
763,-0.19293,-0.4002,-1,0
764,-0.19332,-0.3983,-1,0
765,-0.19371,-0.3966,-1,0
766,-0.1941,-0.3947,-1,0
767,-0.19449,-0.3932,-1,0
768,-0.19487,-0.3916,-1,0
769,-0.19526,-0.3903,-1,0
770,-0.19564,-0.3889,-1,0
771,-0.19602,-0.3876,-1,0
772,-0.1964,-0.3863,-1,0
773,-0.19678,-0.385,-1,0
774,-0.19715,-0.3834,-1,0
775,-0.19753,-0.3816,-1,0
776,-0.1979,-0.38,-1,0
777,-0.19864,-0.3782,-1,0
778,-0.19864,-0.3763,-1,0
779,-0.19938,-0.3746,-1,0
780,-0.19974,-0.3726,-1,0
781,-0.2001,-0.3706,-1,0
782,-0.20046,-0.3684,-1,0
783,-0.20082,-0.3664,-1,0
784,-0.20117,-0.3644,-1,0
785,-0.20153,-0.3626,-1,0
786,-0.20188,-0.3606,-1,0
787,-0.20223,-0.3588,-1,0
788,-0.20258,-0.3572,-1,0
789,-0.20293,-0.3555,-1,0
790,-0.20328,-0.3542,-1,0
791,-0.20363,-0.3529,-1,0
