cnt,pos,speed,Dir,Force,
1,3.10247,1.088,-1,6
2,3.10354,1.067,-1,6
3,3.10458,1.044,-1,6
4,3.10561,1.027,-1,6
5,3.10662,1.009,-1,6
6,3.10761,0.987,-1,6
7,3.10856,0.957,-1,6
8,3.10950,0.936,-1,6
9,3.11042,0.915,-1,6
10,3.11131,0.893,-1,6
11,3.11218,0.867,-1,6
12,3.11302,0.840,-1,6
13,3.11383,0.818,-1,6
14,3.11463,0.802,-1,6
15,3.11542,0.783,-1,6
16,3.11617,0.754,-1,6
17,3.11689,0.719,-1,6
18,3.11759,0.696,-1,6
19,3.11827,0.679,-1,6
20,3.11893,0.663,-1,6
21,3.11956,0.635,-1,6
22,3.12017,0.604,-1,6
23,3.12075,0.581,-1,6
24,3.12131,0.562,-1,6
25,3.12185,0.543,-1,6
26,3.12237,0.515,-1,6
27,3.12286,0.489,-1,6
28,3.12333,0.468,-1,6
29,3.12378,0.450,-1,6
30,3.12420,0.429,-1,6
31,3.12461,0.403,-1,6
32,3.12499,0.378,-1,6
33,3.12534,0.357,-1,6
34,3.12568,0.339,-1,6
35,3.12600,0.319,-1,6
36,3.12630,0.295,-1,6
37,3.12657,0.272,-1,6
38,3.12682,0.252,-1,6
39,3.12705,0.233,-1,6
40,3.12727,0.214,-1,6
41,3.12746,0.191,-1,6
42,3.12763,0.171,-1,6
43,3.12779,0.156,-1,6
44,3.12793,0.140,-1,6
45,3.12805,0.125,-1,6
46,3.12816,0.105,-1,6
47,3.12825,0.093,-1,6
48,3.12833,0.082,-1,6
49,3.12840,0.069,-1,6
50,3.12846,0.058,-1,6
51,3.12851,0.048,-1,6
52,3.12858,0.037,-1,6
53,3.12862,0.032,-1,6
54,3.12864,0.026,-1,6
55,3.12867,0.024,-1,6
56,3.12869,0.022,-1,6
57,3.12871,0.024,-1,6
58,3.12874,0.024,-1,6
59,3.12876,0.022,-1,6
60,3.12878,0.021,-1,6
61,3.12880,0.022,-1,6
62,3.12882,0.022,-1,6
63,3.12885,0.022,-1,6
64,3.12887,0.022,-1,6
65,3.12889,0.024,-1,6
66,3.12892,0.027,-1,6
67,3.12895,0.038,-1,6
68,3.12904,0.047,-1,6
69,3.12909,0.057,-1,6
70,3.12917,0.072,-1,6
71,3.12925,0.086,-1,6
72,3.12936,0.103,-1,6
73,3.12947,0.120,-1,6
74,3.12961,0.138,-1,6
75,3.12977,0.156,-1,6
76,3.12994,0.172,-1,6
77,3.13013,0.190,-1,6
78,3.13034,0.205,-1,6
79,3.13056,0.224,-1,6
80,3.13080,0.241,-1,6
81,3.13106,0.258,-1,6
82,3.13134,0.278,-1,6
83,3.13164,0.301,-1,6
84,3.13196,0.323,-1,6
85,3.13231,0.350,-1,6
86,3.13269,0.377,-1,6
87,3.13309,0.404,-1,6
88,3.13352,0.433,-1,6
89,3.13399,0.460,-1,6
90,3.13447,0.487,-1,6
91,3.13499,0.514,-1,6
92,3.13553,0.541,-1,6
93,3.13610,0.567,-1,6
94,3.13669,0.596,-1,6
95,3.13732,0.629,-1,6
96,3.13798,0.660,-1,6
97,3.13867,0.689,-1,6
98,3.13939,0.723,-1,6
99,3.14015,0.754,-1,6
100,3.14093,0.786,-1,6
101,3.14175,0.818,-1,6
102,3.14260,0.850,-1,6
103,3.14348,0.880,-1,6
104,3.14438,0.902,-1,6
105,3.14531,0.927,-1,6
106,3.14627,0.959,-1,6
107,3.14726,0.989,-1,6
108,3.14827,1.016,-1,6
109,3.14931,1.035,-1,6
110,3.15036,1.056,-1,6
111,3.15146,1.095,-1,6
112,3.15259,1.131,-1,6
113,3.15374,1.151,-1,6
114,3.15490,1.159,-1,6
115,3.15608,1.182,-1,6
116,3.15730,1.222,-1,6
117,3.15855,1.243,-1,6
118,3.15979,1.243,-1,6
119,3.16104,1.248,-1,6
120,3.16233,1.290,-1,6
121,3.16365,1.321,-1,6
122,3.16497,1.317,-1,6
123,3.16628,1.317,-1,6
124,3.16763,1.351,-1,6
125,3.16902,1.383,-1,6
126,3.17041,1.392,-1,6
127,3.17180,1.392,-1,6
128,3.17321,1.406,-1,6
129,3.17463,1.423,-1,6
130,3.17607,1.437,-1,6
131,3.17751,1.441,-1,6
132,3.17894,1.449,-1,6
133,3.18039,1.467,-1,6
134,3.18186,1.469,-1,6
135,3.18479,1.461,-1,6
136,3.18626,1.470,-1,6
137,3.18775,1.487,-1,6
138,3.18924,1.490,-1,6
139,3.19073,1.491,-1,6
140,3.19222,1.487,-1,6
141,3.19371,1.495,-1,6
142,3.19522,1.505,-1,6
143,3.19673,1.510,-1,6
144,3.19822,1.497,-1,6
145,3.19972,1.493,-1,6
146,3.20122,1.503,-1,6
147,3.20272,1.505,-1,6
148,3.20423,1.492,-1,6
149,3.20720,1.484,-1,6
150,3.20869,1.488,-1,6
151,3.21019,1.497,-1,6
152,3.21168,1.496,-1,6
153,3.21316,1.479,-1,6
154,3.21464,1.475,-1,6
155,3.21612,1.482,-1,6
156,3.21760,1.483,-1,6
157,3.21909,1.489,-1,6
158,3.22057,1.477,-1,6
159,3.22203,1.459,-1,6
160,3.22349,1.460,-1,6
161,3.22496,1.468,-1,6
162,3.22642,1.461,-1,6
163,3.22787,1.449,-1,6
164,3.22931,1.440,-1,6
165,3.23073,1.427,-1,6
166,3.23216,1.424,-1,6
167,3.23359,1.429,-1,6
168,3.23501,1.420,-1,6
169,3.23641,1.404,-1,6
170,3.23780,1.395,-1,6
171,3.23920,1.395,-1,6
172,3.24059,1.392,-1,6
173,3.24198,1.386,-1,6
174,3.24336,1.378,-1,6
175,3.24472,1.363,-1,6
176,3.24607,1.354,-1,6
177,3.24743,1.361,-1,6
178,3.24879,1.361,-1,6
179,3.25014,1.346,-1,6
180,3.25147,1.335,-1,6
181,3.25281,1.331,-1,6
182,3.25413,1.328,-1,6
183,3.25545,1.320,-1,6
184,3.25677,1.318,-1,6
185,3.25808,1.310,-1,6
186,3.25937,1.294,-1,6
187,3.26066,1.286,-1,6
188,3.26195,1.288,-1,6
189,3.26323,1.279,-1,6
190,3.26449,1.266,-1,6
191,3.26576,1.263,-1,6
192,3.26702,1.262,-1,6
193,3.26827,1.251,-1,6
194,3.26950,1.237,-1,6
195,3.27074,1.237,-1,6
196,3.27198,1.235,-1,6
197,3.27320,1.225,-1,6
198,3.27442,1.215,-1,6
199,3.27563,1.213,-1,6
200,3.27684,1.211,-1,6
201,3.27804,1.199,-1,6
202,3.27923,1.190,-1,6
203,3.28043,1.196,-1,6
204,3.28162,1.191,-1,6
205,3.28279,1.178,-1,6
206,3.28396,1.171,-1,6
207,3.28514,1.173,-1,6
208,3.28631,1.168,-1,6
209,3.28746,1.154,-1,6
210,3.28861,1.147,-1,6
211,3.28976,1.152,-1,6
212,3.29091,1.150,-1,6
213,3.29204,1.137,-1,6
214,3.29317,1.124,-1,6
215,3.29430,1.131,-1,6
216,3.29544,1.138,-1,6
217,3.29656,1.125,-1,6
218,3.29879,1.117,-1,6
219,3.29992,1.125,-1,6
220,3.30104,1.117,-1,6
221,3.30325,1.113,-1,6
222,3.30438,1.122,-1,6
223,3.30549,1.114,-1,6
224,3.30659,1.097,-1,6
225,3.30768,1.096,-1,6
226,3.30879,1.109,-1,6
227,3.30990,1.111,-1,6
228,3.31100,1.098,-1,6
229,3.31210,1.094,-1,6
230,3.31320,1.104,-1,6
231,3.31431,1.108,-1,6
232,3.31540,1.095,-1,6
233,3.31649,1.087,-1,6
234,3.31759,1.100,-1,6
235,3.31871,1.110,-1,6
236,3.32091,1.097,-1,6
237,3.32202,1.104,-1,6
238,3.32314,1.120,-1,6
239,3.32426,1.120,-1,6
240,3.32536,1.108,-1,6
241,3.32648,1.113,-1,6
242,3.32761,1.132,-1,6
243,3.32874,1.136,-1,6
244,3.32987,1.122,-1,6
245,3.33098,1.116,-1,6
246,3.33212,1.133,-1,6
247,3.33326,1.147,-1,6
248,3.33440,1.136,-1,6
249,3.33553,1.127,-1,6
250,3.33667,1.142,-1,6
251,3.33782,1.157,-1,6
252,3.33898,1.151,-1,6
253,3.34012,1.141,-1,6
254,3.34127,1.155,-1,6
255,3.34245,1.175,-1,6
256,3.34362,1.176,-1,6
257,3.34479,1.168,-1,6
258,3.34596,1.173,-1,6
259,3.34715,1.190,-1,6
260,3.34835,1.195,-1,6
261,3.34954,1.191,-1,6
262,3.35074,1.201,-1,6
263,3.35196,1.215,-1,6
264,3.35317,1.213,-1,6
265,3.35438,1.211,-1,6
266,3.35560,1.221,-1,6
267,3.35684,1.236,-1,6
268,3.35807,1.238,-1,6
269,3.35931,1.237,-1,6
270,3.36056,1.250,-1,6
271,3.36182,1.258,-1,6
272,3.36308,1.258,-1,6
273,3.36434,1.258,-1,6
274,3.36561,1.270,-1,6
275,3.36689,1.282,-1,6
276,3.36817,1.279,-1,6
277,3.36945,1.287,-1,6
278,3.37075,1.297,-1,6
279,3.37205,1.294,-1,6
280,3.37334,1.295,-1,6
281,3.37465,1.312,-1,6
282,3.37598,1.322,-1,6
283,3.37729,1.317,-1,6
284,3.37861,1.317,-1,6
285,3.37994,1.330,-1,6
286,3.38128,1.338,-1,6
287,3.38262,1.341,-1,6
288,3.38397,1.347,-1,6
289,3.38532,1.351,-1,6
290,3.38667,1.351,-1,6
291,3.38802,1.356,-1,6
292,3.38939,1.369,-1,6
293,3.39077,1.374,-1,6
294,3.39351,1.373,-1,6
295,3.39489,1.382,-1,6
296,3.39627,1.394,-1,6
297,3.39767,1.402,-1,6
298,3.39907,1.399,-1,6
299,3.40186,1.396,-1,6
300,3.40327,1.407,-1,6
301,3.40469,1.416,-1,6
302,3.40611,1.419,-1,6
303,3.40753,1.422,-1,6
304,3.40895,1.426,-1,6
305,3.41038,1.425,-1,6
306,3.41181,1.431,-1,6
307,3.41325,1.443,-1,6
308,3.41470,1.444,-1,6
309,3.41614,1.440,-1,6
310,3.41759,1.448,-1,6
311,3.41903,1.450,-1,6
312,3.42194,1.457,-1,6
313,3.42340,1.464,-1,6
314,3.42486,1.460,-1,6
315,3.42633,1.461,-1,6
316,3.42779,1.467,-1,6
317,3.42926,1.467,-1,6
318,3.43073,1.471,-1,6
319,3.43221,1.478,-1,6
320,3.43368,1.474,-1,6
321,3.43516,1.474,-1,6
322,3.43664,1.484,-1,6
323,3.43813,1.489,-1,6
324,3.43961,1.483,-1,6
325,3.44110,1.492,-1,6
326,3.44259,1.489,-1,6
327,3.44408,1.490,-1,6
328,3.44558,1.501,-1,6
329,3.44708,1.501,-1,6
330,3.44858,1.494,-1,6
331,3.45007,1.494,-1,6
332,3.45158,1.502,-1,6
333,3.45308,1.507,-1,6
334,3.45459,1.509,-1,6
335,3.45610,1.509,-1,6
336,3.45760,1.502,-1,6
337,3.45911,1.507,-1,6
338,3.46063,1.517,-1,6
339,3.46215,1.522,-1,6
340,3.46366,1.516,-1,6
341,3.46518,1.520,-1,6
342,3.46670,1.517,-1,6
343,3.46823,1.525,-1,6
344,3.46976,1.534,-1,6
345,3.47129,1.532,-1,6
346,3.47282,1.527,-1,6
347,3.47435,1.529,-1,6
348,3.47588,1.532,-1,6
349,3.47741,1.535,-1,6
350,3.47896,1.543,-1,6
351,3.48049,1.536,-1,6
352,3.48203,1.534,-1,6
353,3.48357,1.540,-1,6
354,3.48511,1.547,-1,6
355,3.48666,1.545,-1,6
356,3.48820,1.543,-1,6
357,3.48974,1.543,-1,6
358,3.49129,1.543,-1,6
359,3.49284,1.557,-1,6
360,3.49440,1.559,-1,6
361,3.49595,1.547,-1,6
362,3.49749,1.546,-1,6
363,3.49905,1.550,-1,6
364,3.50060,1.560,-1,6
365,3.50217,1.568,-1,6
366,3.50373,1.559,-1,6
367,3.50528,1.545,-1,6
368,3.50683,1.554,-1,6
369,3.50840,1.570,-1,6
370,3.50998,1.575,-1,6
371,3.51155,1.569,-1,6
372,3.51310,1.559,-1,6
373,3.51466,1.558,-1,6
374,3.51624,1.577,-1,6
375,3.51783,1.589,-1,6
376,3.51941,1.568,-1,6
377,3.52097,1.569,-1,6
378,3.52254,1.583,-1,6
379,3.52572,1.599,-1,6
380,3.52732,1.590,-1,6
381,3.52889,1.571,-1,6
382,3.53046,1.577,-1,6
383,3.53206,1.601,-1,6
384,3.53367,1.605,-1,6
385,3.53526,1.592,-1,6
386,3.53684,1.578,-1,6
387,3.53843,1.585,-1,6
388,3.54004,1.613,-1,6
389,3.54166,1.618,-1,6
390,3.54325,1.595,-1,6
391,3.54483,1.597,-1,6
392,3.54805,1.620,-1,6
393,3.54968,1.627,-1,6
394,3.55128,1.600,-1,6
395,3.55286,1.580,-1,6
396,3.55446,1.601,-1,6
397,3.55609,1.630,-1,6
398,3.55771,1.627,-1,6
399,3.55932,1.606,-1,6
400,3.56091,1.587,-1,6
401,3.56251,1.603,-1,6
402,3.56414,1.633,-1,6
403,3.56577,1.629,-1,6
404,3.56737,1.603,-1,6
405,3.56897,1.596,-1,6
406,3.57058,1.613,-1,6
407,3.57222,1.631,-1,6
408,3.57384,1.626,-1,6
409,3.57544,1.602,-1,6
410,3.57705,1.602,-1,6
411,3.57867,1.623,-1,6
412,3.58030,1.631,-1,6
413,3.58192,1.620,-1,6
414,3.58352,1.604,-1,6
415,3.58513,1.602,-1,6
416,3.58675,1.629,-1,6
417,3.58839,1.635,-1,6
418,3.59000,1.609,-1,6
419,3.59159,1.595,-1,6
420,3.59320,1.611,-1,6
421,3.59483,1.628,-1,6
422,3.59646,1.629,-1,6
423,3.59807,1.606,-1,6
424,3.59966,1.588,-1,6
425,3.60126,1.609,-1,6
426,3.60290,1.632,-1,6
427,3.60452,1.620,-1,6
428,3.60611,1.594,-1,6
429,3.60770,1.588,-1,6
430,3.60930,1.606,-1,6
431,3.61093,1.627,-1,6
432,3.61254,1.610,-1,6
433,3.61412,1.578,-1,6
434,3.61570,1.583,-1,6
435,3.61731,1.605,-1,6
436,3.61892,1.611,-1,6
437,3.62051,1.594,-1,6
438,3.62208,1.567,-1,6
439,3.62365,1.572,-1,6
440,3.62525,1.599,-1,6
441,3.62685,1.596,-1,6
442,3.62842,1.571,-1,6
443,3.62998,1.557,-1,6
444,3.63154,1.566,-1,6
445,3.63313,1.586,-1,6
446,3.63471,1.583,-1,6
447,3.63627,1.555,-1,6
448,3.63781,1.541,-1,6
449,3.63937,1.559,-1,6
450,3.64094,1.571,-1,6
451,3.64250,1.560,-1,6
452,3.64404,1.542,-1,6
453,3.64557,1.531,-1,6
454,3.64711,1.543,-1,6
455,3.64867,1.553,-1,6
456,3.65021,1.541,-1,6
457,3.65173,1.520,-1,6
458,3.65325,1.524,-1,6
459,3.65478,1.530,-1,6
460,3.65631,1.525,-1,6
461,3.65783,1.520,-1,6
462,3.66085,1.509,-1,6
463,3.66236,1.513,-1,6
464,3.66387,1.509,-1,6
465,3.66537,1.499,-1,6
466,3.66686,1.496,-1,6
467,3.66837,1.503,-1,6
468,3.66986,1.490,-1,6
469,3.67134,1.484,-1,6
470,3.67283,1.489,-1,6
471,3.67432,1.485,-1,6
472,3.67580,1.472,-1,6
473,3.67873,1.462,-1,6
474,3.68020,1.471,-1,6
475,3.68169,1.482,-1,6
476,3.68315,1.468,-1,6
477,3.68460,1.447,-1,6
478,3.68605,1.446,-1,6
479,3.68751,1.459,-1,6
480,3.68897,1.463,-1,6
481,3.69042,1.456,-1,6
482,3.69186,1.437,-1,6
483,3.69329,1.429,-1,6
484,3.69473,1.441,-1,6
485,3.69618,1.453,-1,6
486,3.69762,1.438,-1,6
487,3.69905,1.423,-1,6
488,3.70047,1.426,-1,6
489,3.70190,1.432,-1,6
490,3.70333,1.429,-1,6
491,3.70476,1.425,-1,6
492,3.70618,1.421,-1,6
493,3.70760,1.419,-1,6
494,3.70902,1.422,-1,6
495,3.71044,1.422,-1,6
496,3.71185,1.407,-1,6
497,3.71326,1.413,-1,6
498,3.71468,1.424,-1,6
499,3.71610,1.419,-1,6
500,3.71751,1.404,-1,6
501,3.71892,1.408,-1,6
502,3.72033,1.418,-1,6
503,3.72175,1.418,-1,6
504,3.72316,1.412,-1,6
505,3.72457,1.405,-1,6
506,3.72597,1.405,-1,6
507,3.72739,1.419,-1,6
508,3.72882,1.429,-1,6
509,3.73023,1.414,-1,6
510,3.73163,1.399,-1,6
511,3.73304,1.410,-1,6
512,3.73448,1.430,-1,6
513,3.73590,1.425,-1,6
514,3.73732,1.415,-1,6
515,3.73873,1.416,-1,6
516,3.74015,1.421,-1,6
517,3.74159,1.433,-1,6
518,3.74302,1.435,-1,6
519,3.74444,1.423,-1,6
520,3.74587,1.427,-1,6
521,3.74731,1.443,-1,6
522,3.74876,1.446,-1,6
523,3.75020,1.437,-1,6
524,3.75163,1.437,-1,6
525,3.75309,1.455,-1,6
526,3.75455,1.458,-1,6
527,3.75600,1.456,-1,6
528,3.75746,1.455,-1,6
529,3.75891,1.456,-1,6
530,3.76038,1.467,-1,6
531,3.76186,1.481,-1,6
532,3.76334,1.475,-1,6
533,3.76480,1.466,-1,6
534,3.76628,1.481,-1,6
535,3.76778,1.495,-1,6
536,3.76927,1.496,-1,6
537,3.77077,1.496,-1,6
538,3.77227,1.496,-1,6
539,3.77377,1.502,-1,6
540,3.77529,1.521,-1,6
541,3.77682,1.528,-1,6
542,3.77834,1.518,-1,6
543,3.77986,1.519,-1,6
544,3.78139,1.536,-1,6
545,3.78294,1.550,-1,6
546,3.78449,1.552,-1,6
547,3.78604,1.547,-1,6
548,3.78915,1.562,-1,6
549,3.79073,1.579,-1,6
550,3.79230,1.576,-1,6
551,3.79388,1.577,-1,6
552,3.79547,1.588,-1,6
553,3.79706,1.591,-1,6
554,3.79866,1.601,-1,6
555,3.80027,1.609,-1,6
556,3.80188,1.610,-1,6
557,3.80350,1.620,-1,6
558,3.80513,1.627,-1,6
559,3.80676,1.630,-1,6
560,3.80840,1.641,-1,6
561,3.81005,1.649,-1,6
562,3.81336,1.660,-1,6
563,3.81502,1.668,-1,6
564,3.81670,1.673,-1,6
565,3.81838,1.682,-1,6
566,3.82006,1.685,-1,6
567,3.82176,1.691,-1,6
568,3.82347,1.710,-1,6
569,3.82518,1.713,-1,6
570,3.82689,1.713,-1,6
571,3.82861,1.720,-1,6
572,3.83034,1.733,-1,6
573,3.83210,1.752,-1,6
574,3.83385,1.751,-1,6
575,3.83559,1.743,-1,6
576,3.83735,1.761,-1,6
577,3.83913,1.780,-1,6
578,3.84092,1.790,-1,6
579,3.84271,1.787,-1,6
580,3.84449,1.782,-1,6
581,3.84629,1.803,-1,6
582,3.84812,1.827,-1,6
583,3.84995,1.826,-1,6
584,3.85177,1.821,-1,6
585,3.85359,1.826,-1,6
586,3.85545,1.853,-1,6
587,3.85732,1.871,-1,6
588,3.85918,1.861,-1,6
589,3.86104,1.860,-1,6
590,3.86292,1.880,-1,6
591,3.86482,1.904,-1,6
592,3.86673,1.908,-1,6
593,3.86863,1.895,-1,6
594,3.87054,1.916,-1,6
595,3.87248,1.940,-1,6
596,3.87443,1.946,-1,6
597,3.87637,1.937,-1,6
598,3.87831,1.948,-1,6
599,3.88029,1.978,-1,6
600,3.88228,1.988,-1,6
601,3.88426,1.978,-1,6
602,3.88624,1.986,-1,6
603,3.88826,2.014,-1,6
604,3.89029,2.031,-1,6
605,3.89231,2.020,-1,6
606,3.89433,2.026,-1,6
607,3.89638,2.049,-1,6
608,3.89845,2.071,-1,6
609,3.90052,2.067,-1,6
610,3.90259,2.066,-1,6
611,3.90467,2.086,-1,6
612,3.90678,2.105,-1,6
613,3.90889,2.117,-1,6
614,3.91101,2.111,-1,6
615,3.91313,2.122,-1,6
616,3.91527,2.141,-1,6
617,3.91743,2.160,-1,6
618,3.91959,2.160,-1,6
619,3.92175,2.161,-1,6
620,3.92392,2.174,-1,6
621,3.92612,2.199,-1,6
622,3.92833,2.210,-1,6
623,3.93054,2.201,-1,6
624,3.93274,2.207,-1,6
625,3.93498,2.235,-1,6
626,3.93723,2.256,-1,6
627,3.93948,2.244,-1,6
628,3.94172,2.245,-1,6
629,3.94399,2.267,-1,6
630,3.94628,2.291,-1,6
631,3.95086,2.288,-1,6
632,3.95316,2.294,-1,6
633,3.95548,2.324,-1,6
634,3.95782,2.338,-1,6
635,3.96015,2.332,-1,6
636,3.96247,2.325,-1,6
637,3.96483,2.352,-1,6
638,3.96720,2.377,-1,6
639,3.96958,2.373,-1,6
640,3.97194,2.361,-1,6
641,3.97432,2.384,-1,6
642,3.97673,2.406,-1,6
643,3.98154,2.401,-1,6
644,3.98395,2.411,-1,6
645,3.98637,2.428,-1,6
646,3.98881,2.438,-1,6
647,3.99125,2.439,-1,6
648,3.99369,2.440,-1,6
649,3.99615,2.454,-1,6
650,3.99861,2.469,-1,6
651,4.00109,2.472,-1,6
652,4.00356,2.474,-1,6
653,4.00604,2.481,-1,6
654,4.00853,2.494,-1,6
655,4.01104,2.505,-1,6
656,4.01355,2.510,-1,6
657,4.01606,2.507,-1,6
658,4.01857,2.515,-1,6
659,4.02110,2.531,-1,6
660,4.02365,2.542,-1,6
661,4.02618,2.537,-1,6
662,4.02872,2.538,-1,6
663,4.03128,2.555,-1,6
664,4.03384,2.565,-1,6
665,4.03641,2.566,-1,6
666,4.03897,2.565,-1,6
667,4.04154,2.573,-1,6
668,4.04413,2.589,-1,6
669,4.04672,2.590,-1,6
670,4.04931,2.589,-1,6
671,4.05191,2.595,-1,6
672,4.05451,2.605,-1,6
673,4.05712,2.611,-1,6
674,4.05974,2.614,-1,6
675,4.06235,2.614,-1,6
676,4.06497,2.618,-1,6
677,4.06760,2.627,-1,6
678,4.07023,2.637,-1,6
679,4.07287,2.634,-1,6
680,4.07550,2.628,-1,6
681,4.07814,2.643,-1,6
682,4.08078,2.646,-1,6
683,4.08344,2.652,-1,6
684,4.08609,2.650,-1,6
685,4.08874,2.652,-1,6
686,4.09139,2.657,-1,6
687,4.09406,2.663,-1,6
688,4.09672,2.667,-1,6
689,4.09939,2.669,-1,6
690,4.10206,2.667,-1,6
691,4.10473,2.669,-1,6
692,4.10741,2.680,-1,6
693,4.11009,2.680,-1,6
694,4.11276,2.674,-1,6
695,4.11545,2.680,-1,6
696,4.11813,2.686,-1,6
697,4.12082,2.687,-1,6
698,4.12350,2.686,-1,6
699,4.12619,2.690,-1,6
700,4.12888,2.690,-1,6
701,4.13158,2.691,-1,6
702,4.13427,2.696,-1,6
703,4.13697,2.695,-1,6
704,4.13966,2.695,-1,6
705,4.14236,2.695,-1,6
706,4.14505,2.699,-1,6
707,4.14776,2.701,-1,6
708,4.15045,2.698,-1,6
709,4.15315,2.697,-1,6
710,4.15585,2.701,-1,6
711,4.16125,2.697,-1,6
712,4.16395,2.703,-1,6
713,4.16665,2.700,-1,6
714,4.16935,2.698,-1,6
715,4.17205,2.701,-1,6
716,4.17475,2.699,-1,6
717,4.17745,2.698,-1,6
718,4.18015,2.697,-1,6
719,4.18284,2.698,-1,6
720,4.18554,2.697,-1,6
721,4.18823,2.693,-1,6
722,4.19093,2.692,-1,6
723,4.19362,2.692,-1,6
724,4.19631,2.691,-1,6
725,4.19899,2.685,-1,6
726,4.20168,2.687,-1,6
727,4.20705,2.681,-1,6
728,4.20973,2.682,-1,6
729,4.21242,2.684,-1,6
730,4.21510,2.680,-1,6
731,4.21777,2.672,-1,6
732,4.22044,2.677,-1,6
733,4.22312,2.674,-1,6
734,4.22579,2.670,-1,6
735,4.22846,2.668,-1,6
736,4.23113,2.668,-1,6
737,4.23379,2.665,-1,6
738,4.23645,2.661,-1,6
739,4.23911,2.664,-1,6
740,4.24177,2.659,-1,6
741,4.24442,2.652,-1,6
742,4.24707,2.649,-1,6
743,4.24972,2.652,-1,6
744,4.25237,2.649,-1,6
745,4.25501,2.638,-1,6
746,4.25765,2.642,-1,6
747,4.26029,2.639,-1,6
748,4.26292,2.631,-1,6
749,4.26555,2.628,-1,6
750,4.26818,2.627,-1,6
751,4.27080,2.622,-1,6
752,4.27342,2.616,-1,6
753,4.27603,2.615,-1,6
754,4.27864,2.608,-1,6
755,4.28124,2.603,-1,6
756,4.28384,2.601,-1,6
757,4.28644,2.597,-1,6
758,4.28903,2.590,-1,6
759,4.29161,2.583,-1,6
760,4.29419,2.579,-1,6
761,4.29677,2.579,-1,6
762,4.29934,2.572,-1,6
763,4.30190,2.559,-1,6
764,4.30446,2.561,-1,6
765,4.30702,2.558,-1,6
766,4.30957,2.549,-1,6
767,4.31211,2.539,-1,6
768,4.31465,2.539,-1,6
769,4.31718,2.532,-1,6
770,4.31971,2.525,-1,6
771,4.32223,2.521,-1,6
772,4.32474,2.512,-1,6
773,4.32724,2.503,-1,6
774,4.32974,2.498,-1,6
775,4.33223,2.496,-1,6
776,4.33472,2.486,-1,6
777,4.33720,2.480,-1,6
778,4.33967,2.468,-1,6
779,4.34214,2.468,-1,6
780,4.34460,2.461,-1,6
781,4.34705,2.452,-1,6
782,4.34949,2.438,-1,6
783,4.35193,2.438,-1,6
784,4.35436,2.431,-1,6
785,4.35678,2.422,-1,6
786,4.35919,2.413,-1,6
787,4.36160,2.408,-1,6
788,4.36400,2.398,-1,6
789,4.36639,2.392,-1,6
790,4.36878,2.384,-1,6
791,4.37116,2.380,-1,6
792,4.37352,2.368,-1,6
793,4.37589,2.361,-1,6
794,4.37824,2.353,-1,6
795,4.38059,2.348,-1,6
796,4.38293,2.343,-1,6
797,4.38526,2.329,-1,6
798,4.38758,2.318,-1,6
799,4.38990,2.319,-1,6
800,4.39451,2.301,-1,6
801,4.39680,2.288,-1,6
802,4.39908,2.288,-1,6
803,4.40136,2.278,-1,6
804,4.40363,2.270,-1,6
805,4.40589,2.260,-1,6
806,4.40815,2.257,-1,6
807,4.41040,2.246,-1,6
808,4.41263,2.239,-1,6
809,4.41486,2.231,-1,6
810,4.41709,2.227,-1,6
811,4.42152,2.211,-1,6
812,4.42372,2.200,-1,6
813,4.42592,2.195,-1,6
814,4.42811,2.190,-1,6
815,4.43029,2.184,-1,6
816,4.43246,2.172,-1,6
817,4.43463,2.165,-1,6
818,4.43679,2.166,-1,6
819,4.43895,2.156,-1,6
820,4.44109,2.145,-1,6
821,4.44323,2.137,-1,6
822,4.44537,2.143,-1,6
823,4.44751,2.133,-1,6
824,4.44962,2.118,-1,6
825,4.45174,2.112,-1,6
826,4.45385,2.116,-1,6
827,4.45597,2.114,-1,6
828,4.45806,2.097,-1,6
829,4.46015,2.090,-1,6
830,4.46225,2.091,-1,6
831,4.46434,2.091,-1,6
832,4.46642,2.082,-1,6
833,4.46849,2.071,-1,6
834,4.47056,2.067,-1,6
835,4.47263,2.068,-1,6
836,4.47469,2.068,-1,6
837,4.47675,2.059,-1,6
838,4.47881,2.053,-1,6
839,4.48085,2.044,-1,6
840,4.48290,2.054,-1,6
841,4.48495,2.053,-1,6
842,4.48699,2.039,-1,6
843,4.48903,2.031,-1,6
844,4.49106,2.034,-1,6
845,4.49311,2.052,-1,6
846,4.49515,2.036,-1,6
847,4.49716,2.017,-1,6
848,4.49919,2.022,-1,6
849,4.50123,2.041,-1,6
850,4.50327,2.038,-1,6
851,4.50528,2.018,-1,6
852,4.50730,2.015,-1,6
853,4.50933,2.028,-1,6
854,4.51137,2.042,-1,6
855,4.51340,2.026,-1,6
856,4.51541,2.017,-1,6
857,4.51744,2.025,-1,6
858,4.51947,2.036,-1,6
859,4.52151,2.038,-1,6
860,4.52354,2.029,-1,6
861,4.52557,2.025,-1,6
862,4.52760,2.033,-1,6
863,4.52964,2.045,-1,6
864,4.53169,2.049,-1,6
865,4.53373,2.037,-1,6
866,4.53576,2.032,-1,6
867,4.53781,2.048,-1,6
868,4.53988,2.070,-1,6
869,4.54194,2.060,-1,6
870,4.54398,2.045,-1,6
871,4.54603,2.050,-1,6
872,4.54811,2.081,-1,6
873,4.55020,2.088,-1,6
