cnt,pos,speed,Dir,Force,
1,3.11106,1.613,-1,6
2,3.11267,1.603,-1,6
3,3.11427,1.604,-1,6
4,3.11589,1.620,-1,6
5,3.11751,1.622,-1,6
6,3.11912,1.608,-1,6
7,3.12072,1.600,-1,6
8,3.12233,1.613,-1,6
9,3.12396,1.626,-1,6
10,3.12559,1.628,-1,6
11,3.12720,1.612,-1,6
12,3.12881,1.606,-1,6
13,3.13043,1.629,-1,6
14,3.13208,1.642,-1,6
15,3.13371,1.636,-1,6
16,3.13534,1.627,-1,6
17,3.13697,1.631,-1,6
18,3.13862,1.650,-1,6
19,3.14029,1.667,-1,6
20,3.14194,1.655,-1,6
21,3.14359,1.649,-1,6
22,3.14526,1.664,-1,6
23,3.14694,1.683,-1,6
24,3.14863,1.690,-1,6
25,3.15031,1.684,-1,6
26,3.15200,1.684,-1,6
27,3.15370,1.709,-1,6
28,3.15543,1.725,-1,6
29,3.15715,1.719,-1,6
30,3.15887,1.721,-1,6
31,3.16061,1.736,-1,6
32,3.16236,1.759,-1,6
33,3.16414,1.774,-1,6
34,3.16590,1.765,-1,6
35,3.16767,1.769,-1,6
36,3.16947,1.795,-1,6
37,3.17129,1.818,-1,6
38,3.17311,1.829,-1,6
39,3.17493,1.819,-1,6
40,3.17676,1.829,-1,6
41,3.17863,1.864,-1,6
42,3.18051,1.886,-1,6
43,3.18240,1.885,-1,6
44,3.18428,1.882,-1,6
45,3.18618,1.906,-1,6
46,3.18813,1.942,-1,6
47,3.19008,1.951,-1,6
48,3.19203,1.950,-1,6
49,3.19398,1.955,-1,6
50,3.19597,1.988,-1,6
51,3.19798,2.012,-1,6
52,3.20000,2.013,-1,6
53,3.20201,2.018,-1,6
54,3.20405,2.034,-1,6
55,3.20611,2.065,-1,6
56,3.20819,2.075,-1,6
57,3.21027,2.079,-1,6
58,3.21235,2.088,-1,6
59,3.21446,2.109,-1,6
60,3.21659,2.128,-1,6
61,3.21873,2.138,-1,6
62,3.22088,2.151,-1,6
63,3.22304,2.156,-1,6
64,3.22521,2.170,-1,6
65,3.22739,2.189,-1,6
66,3.22960,2.207,-1,6
67,3.23181,2.208,-1,6
68,3.23402,2.214,-1,6
69,3.23625,2.231,-1,6
70,3.24077,2.259,-1,6
71,3.24303,2.260,-1,6
72,3.24530,2.271,-1,6
73,3.24758,2.288,-1,6
74,3.24989,2.302,-1,6
75,3.25219,2.307,-1,6
76,3.25450,2.307,-1,6
77,3.25681,2.312,-1,6
78,3.25915,2.337,-1,6
79,3.26149,2.342,-1,6
80,3.26383,2.340,-1,6
81,3.26617,2.340,-1,6
82,3.26853,2.359,-1,6
83,3.27089,2.361,-1,6
84,3.27326,2.363,-1,6
85,3.27561,2.359,-1,6
86,3.27799,2.373,-1,6
87,3.28036,2.373,-1,6
88,3.28273,2.373,-1,6
89,3.28511,2.374,-1,6
90,3.28748,2.376,-1,6
91,3.28986,2.377,-1,6
92,3.29224,2.378,-1,6
93,3.29461,2.376,-1,6
94,3.29699,2.376,-1,6
95,3.29937,2.375,-1,6
96,3.30174,2.376,-1,6
97,3.30411,2.369,-1,6
98,3.30648,2.373,-1,6
99,3.31121,2.357,-1,6
100,3.31357,2.363,-1,6
101,3.31593,2.361,-1,6
102,3.31829,2.354,-1,6
103,3.32063,2.340,-1,6
104,3.32297,2.346,-1,6
105,3.32532,2.341,-1,6
106,3.32765,2.334,-1,6
107,3.32997,2.323,-1,6
108,3.33229,2.320,-1,6
109,3.33461,2.317,-1,6
110,3.33692,2.307,-1,6
111,3.33922,2.301,-1,6
112,3.34150,2.289,-1,6
113,3.34379,2.284,-1,6
114,3.34607,2.282,-1,6
115,3.34834,2.270,-1,6
116,3.35059,2.252,-1,6
117,3.35285,2.253,-1,6
118,3.35509,2.247,-1,6
119,3.35733,2.232,-1,6
120,3.35954,2.218,-1,6
121,3.36176,2.217,-1,6
122,3.36397,2.209,-1,6
123,3.36616,2.192,-1,6
124,3.36834,2.177,-1,6
125,3.37051,2.174,-1,6
126,3.37268,2.169,-1,6
127,3.37483,2.151,-1,6
128,3.37697,2.131,-1,6
129,3.38123,2.125,-1,6
130,3.38333,2.109,-1,6
131,3.38543,2.100,-1,6
132,3.38752,2.086,-1,6
133,3.38960,2.079,-1,6
134,3.39167,2.070,-1,6
135,3.39373,2.058,-1,6
136,3.39576,2.039,-1,6
137,3.39779,2.029,-1,6
138,3.39982,2.028,-1,6
139,3.40184,2.016,-1,6
140,3.40383,1.995,-1,6
141,3.40581,1.981,-1,6
142,3.40779,1.981,-1,6
143,3.40977,1.978,-1,6
144,3.41173,1.954,-1,6
145,3.41366,1.933,-1,6
146,3.41559,1.929,-1,6
147,3.41752,1.936,-1,6
148,3.41945,1.923,-1,6
149,3.42134,1.892,-1,6
150,3.42510,1.882,-1,6
151,3.42699,1.884,-1,6
152,3.42885,1.861,-1,6
153,3.43069,1.837,-1,6
154,3.43252,1.835,-1,6
155,3.43436,1.837,-1,6
156,3.43619,1.833,-1,6
157,3.43800,1.807,-1,6
158,3.43979,1.792,-1,6
159,3.44158,1.792,-1,6
160,3.44337,1.793,-1,6
161,3.44515,1.779,-1,6
162,3.44692,1.769,-1,6
163,3.44867,1.751,-1,6
164,3.45042,1.749,-1,6
165,3.45217,1.749,-1,6
166,3.45391,1.738,-1,6
167,3.45564,1.729,-1,6
168,3.45735,1.716,-1,6
169,3.45906,1.708,-1,6
170,3.46077,1.709,-1,6
171,3.46247,1.704,-1,6
172,3.46417,1.694,-1,6
173,3.46585,1.685,-1,6
174,3.46753,1.673,-1,6
175,3.46920,1.675,-1,6
176,3.47088,1.679,-1,6
177,3.47255,1.668,-1,6
178,3.47420,1.645,-1,6
179,3.47749,1.645,-1,6
180,3.47915,1.655,-1,6
181,3.48079,1.643,-1,6
182,3.48242,1.626,-1,6
183,3.48404,1.625,-1,6
184,3.48567,1.630,-1,6
185,3.48730,1.632,-1,6
186,3.48893,1.625,-1,6
187,3.49054,1.606,-1,6
188,3.49214,1.607,-1,6
189,3.49376,1.621,-1,6
190,3.49538,1.620,-1,6
191,3.49699,1.608,-1,6
192,3.49859,1.596,-1,6
193,3.50019,1.599,-1,6
194,3.50180,1.615,-1,6
195,3.50342,1.616,-1,6
196,3.50502,1.598,-1,6
197,3.50660,1.588,-1,6
198,3.50820,1.598,-1,6
199,3.50981,1.612,-1,6
200,3.51143,1.615,-1,6
201,3.51303,1.602,-1,6
202,3.51462,1.588,-1,6
203,3.51622,1.600,-1,6
204,3.51784,1.622,-1,6
205,3.51946,1.619,-1,6
206,3.52107,1.606,-1,6
207,3.52267,1.602,-1,6
208,3.52591,1.632,-1,6
209,3.52754,1.632,-1,6
210,3.52916,1.614,-1,6
211,3.53077,1.614,-1,6
212,3.53240,1.631,-1,6
213,3.53405,1.647,-1,6
214,3.53569,1.644,-1,6
215,3.53732,1.630,-1,6
216,3.53895,1.632,-1,6
217,3.54062,1.661,-1,6
218,3.54228,1.670,-1,6
219,3.54394,1.656,-1,6
220,3.54559,1.649,-1,6
221,3.54725,1.661,-1,6
222,3.54894,1.689,-1,6
223,3.55064,1.698,-1,6
224,3.55232,1.678,-1,6
225,3.55399,1.671,-1,6
226,3.55568,1.695,-1,6
227,3.55740,1.720,-1,6
228,3.55913,1.724,-1,6
229,3.56083,1.702,-1,6
230,3.56253,1.699,-1,6
231,3.56426,1.731,-1,6
232,3.56601,1.751,-1,6
233,3.56775,1.746,-1,6
234,3.56949,1.734,-1,6
235,3.57122,1.764,-1,6
236,3.57477,1.785,-1,6
237,3.57654,1.773,-1,6
238,3.57831,1.764,-1,6
239,3.58008,1.774,-1,6
240,3.58189,1.803,-1,6
241,3.58370,1.814,-1,6
242,3.58550,1.799,-1,6
243,3.58730,1.799,-1,6
244,3.58912,1.820,-1,6
245,3.59095,1.835,-1,6
246,3.59279,1.837,-1,6
247,3.59462,1.827,-1,6
248,3.59646,1.841,-1,6
249,3.59832,1.860,-1,6
250,3.60018,1.858,-1,6
251,3.60203,1.858,-1,6
252,3.60390,1.864,-1,6
253,3.60578,1.883,-1,6
254,3.60767,1.887,-1,6
255,3.60955,1.879,-1,6
256,3.61144,1.890,-1,6
257,3.61334,1.903,-1,6
258,3.61525,1.909,-1,6
259,3.61716,1.906,-1,6
260,3.61906,1.907,-1,6
261,3.62099,1.924,-1,6
262,3.62291,1.927,-1,6
263,3.62484,1.929,-1,6
264,3.62677,1.929,-1,6
265,3.62871,1.939,-1,6
266,3.63066,1.946,-1,6
267,3.63260,1.945,-1,6
268,3.63455,1.950,-1,6
269,3.63651,1.959,-1,6
270,3.63847,1.961,-1,6
271,3.64043,1.964,-1,6
272,3.64240,1.978,-1,6
273,3.64438,1.977,-1,6
274,3.64832,1.969,-1,6
275,3.65030,1.974,-1,6
276,3.65228,1.990,-1,6
277,3.65428,1.998,-1,6
278,3.65627,1.982,-1,6
279,3.65825,1.981,-1,6
280,3.66024,1.996,-1,6
281,3.66225,2.010,-1,6
282,3.66425,2.001,-1,6
283,3.66624,1.989,-1,6
284,3.66824,2.002,-1,6
285,3.67026,2.016,-1,6
286,3.67227,2.014,-1,6
287,3.67428,2.002,-1,6
288,3.67628,2.007,-1,6
289,3.67830,2.014,-1,6
290,3.68031,2.016,-1,6
291,3.68233,2.020,-1,6
292,3.68435,2.016,-1,6
293,3.68636,2.012,-1,6
294,3.68837,2.014,-1,6
295,3.69040,2.029,-1,6
296,3.69244,2.033,-1,6
297,3.69445,2.013,-1,6
298,3.69646,2.011,-1,6
299,3.69849,2.028,-1,6
300,3.70053,2.029,-1,6
301,3.70256,2.010,-1,6
302,3.70457,2.022,-1,6
303,3.70864,2.044,-1,6
304,3.71068,2.044,-1,6
305,3.71270,2.020,-1,6
306,3.71472,2.020,-1,6
307,3.71676,2.038,-1,6
308,3.71881,2.052,-1,6
309,3.72085,2.042,-1,6
310,3.72288,2.025,-1,6
311,3.72491,2.033,-1,6
312,3.72696,2.049,-1,6
313,3.72901,2.056,-1,6
314,3.73106,2.046,-1,6
315,3.73309,2.031,-1,6
316,3.73513,2.042,-1,6
317,3.73720,2.064,-1,6
318,3.73927,2.069,-1,6
319,3.74131,2.045,-1,6
320,3.74335,2.036,-1,6
321,3.74541,2.063,-1,6
322,3.74749,2.082,-1,6
323,3.74956,2.071,-1,6
324,3.75161,2.046,-1,6
325,3.75367,2.061,-1,6
326,3.75575,2.084,-1,6
327,3.75785,2.094,-1,6
328,3.75992,2.068,-1,6
329,3.76198,2.064,-1,6
330,3.76406,2.081,-1,6
331,3.76617,2.104,-1,6
332,3.76826,2.098,-1,6
333,3.77035,2.086,-1,6
334,3.77243,2.103,-1,6
335,3.77666,2.125,-1,6
336,3.77877,2.112,-1,6
337,3.78087,2.100,-1,6
338,3.78298,2.108,-1,6
339,3.78511,2.135,-1,6
340,3.78726,2.143,-1,6
341,3.78938,2.127,-1,6
342,3.79150,2.119,-1,6
343,3.79364,2.139,-1,6
344,3.79580,2.165,-1,6
345,3.79796,2.159,-1,6
346,3.80011,2.143,-1,6
347,3.80225,2.147,-1,6
348,3.80443,2.177,-1,6
349,3.80662,2.187,-1,6
350,3.80879,2.174,-1,6
351,3.81096,2.169,-1,6
352,3.81315,2.188,-1,6
353,3.81536,2.208,-1,6
354,3.81757,2.208,-1,6
355,3.81976,2.196,-1,6
356,3.82196,2.199,-1,6
357,3.82419,2.227,-1,6
358,3.82865,2.226,-1,6
359,3.83087,2.221,-1,6
360,3.83312,2.246,-1,6
361,3.83538,2.262,-1,6
362,3.83764,2.256,-1,6
363,3.83988,2.246,-1,6
364,3.84215,2.265,-1,6
365,3.84443,2.282,-1,6
366,3.84671,2.281,-1,6
367,3.84899,2.276,-1,6
368,3.85127,2.286,-1,6
369,3.85357,2.298,-1,6
370,3.85588,2.306,-1,6
371,3.85818,2.305,-1,6
372,3.86049,2.309,-1,6
373,3.86281,2.318,-1,6
374,3.86514,2.329,-1,6
375,3.86747,2.332,-1,6
376,3.86980,2.329,-1,6
377,3.87214,2.345,-1,6
378,3.87449,2.349,-1,6
379,3.87684,2.352,-1,6
380,3.87920,2.351,-1,6
381,3.88156,2.370,-1,6
382,3.88393,2.365,-1,6
383,3.88630,2.368,-1,6
384,3.88867,2.377,-1,6
385,3.89106,2.383,-1,6
386,3.89344,2.385,-1,6
387,3.89583,2.395,-1,6
388,3.89822,2.400,-1,6
389,3.90062,2.398,-1,6
390,3.90542,2.402,-1,6
391,3.90783,2.409,-1,6
392,3.91025,2.415,-1,6
393,3.91266,2.415,-1,6
394,3.91507,2.411,-1,6
395,3.91750,2.421,-1,6
396,3.91992,2.429,-1,6
397,3.92235,2.427,-1,6
398,3.92477,2.420,-1,6
399,3.92720,2.432,-1,6
400,3.92964,2.438,-1,6
401,3.93208,2.436,-1,6
402,3.93451,2.431,-1,6
403,3.93695,2.439,-1,6
404,3.93939,2.440,-1,6
405,3.94183,2.444,-1,6
406,3.94427,2.440,-1,6
407,3.94672,2.445,-1,6
408,3.94916,2.443,-1,6
409,3.95161,2.445,-1,6
410,3.95405,2.443,-1,6
411,3.95650,2.447,-1,6
412,3.95894,2.448,-1,6
413,3.96139,2.444,-1,6
414,3.96383,2.443,-1,6
415,3.96628,2.448,-1,6
416,3.96872,2.440,-1,6
417,3.97116,2.443,-1,6
418,3.97361,2.448,-1,6
419,3.97850,2.442,-1,6
420,3.98093,2.436,-1,6
421,3.98337,2.441,-1,6
422,3.98581,2.439,-1,6
423,3.98825,2.435,-1,6
424,3.99068,2.430,-1,6
425,3.99311,2.434,-1,6
426,3.99554,2.428,-1,6
427,3.99797,2.426,-1,6
428,4.00039,2.421,-1,6
429,4.00281,2.422,-1,6
430,4.00523,2.420,-1,6
431,4.00764,2.414,-1,6
432,4.01005,2.407,-1,6
433,4.01246,2.410,-1,6
434,4.01487,2.406,-1,6
435,4.01727,2.399,-1,6
436,4.01966,2.395,-1,6
437,4.02206,2.398,-1,6
438,4.02445,2.390,-1,6
439,4.02683,2.385,-1,6
440,4.02921,2.380,-1,6
441,4.03160,2.381,-1,6
442,4.03397,2.377,-1,6
443,4.03634,2.363,-1,6
444,4.04107,2.363,-1,6
445,4.04342,2.357,-1,6
446,4.04578,2.352,-1,6
447,4.04812,2.341,-1,6
448,4.05046,2.341,-1,6
449,4.05280,2.338,-1,6
450,4.05513,2.333,-1,6
451,4.05745,2.320,-1,6
452,4.05977,2.317,-1,6
453,4.06208,2.318,-1,6
454,4.06439,2.310,-1,6
455,4.06669,2.299,-1,6
456,4.06899,2.301,-1,6
457,4.07129,2.294,-1,6
458,4.07357,2.286,-1,6
459,4.07586,2.281,-1,6
460,4.07814,2.282,-1,6
461,4.08041,2.275,-1,6
462,4.08268,2.265,-1,6
463,4.08494,2.263,-1,6
464,4.08720,2.261,-1,6
465,4.08946,2.255,-1,6
466,4.09170,2.248,-1,6
467,4.09394,2.242,-1,6
468,4.09618,2.239,-1,6
469,4.09842,2.234,-1,6
470,4.10065,2.231,-1,6
471,4.10287,2.222,-1,6
472,4.10508,2.217,-1,6
473,4.10951,2.210,-1,6
474,4.11171,2.199,-1,6
475,4.11390,2.193,-1,6
476,4.11610,2.198,-1,6
477,4.11829,2.190,-1,6
478,4.12047,2.180,-1,6
479,4.12264,2.171,-1,6
480,4.12482,2.174,-1,6
481,4.12699,2.171,-1,6
482,4.12915,2.158,-1,6
483,4.13129,2.149,-1,6
484,4.13344,2.151,-1,6
485,4.13560,2.152,-1,6
486,4.13773,2.138,-1,6
487,4.13987,2.131,-1,6
488,4.14199,2.125,-1,6
489,4.14412,2.127,-1,6
490,4.14624,2.123,-1,6
491,4.14836,2.116,-1,6
492,4.15046,2.102,-1,6
493,4.15256,2.102,-1,6
494,4.15467,2.110,-1,6
495,4.15677,2.097,-1,6
496,4.15885,2.083,-1,6
497,4.16093,2.079,-1,6
498,4.16302,2.091,-1,6
499,4.16510,2.083,-1,6
500,4.16717,2.063,-1,6
501,4.16922,2.057,-1,6
502,4.17336,2.068,-1,6
503,4.17541,2.048,-1,6
504,4.17745,2.038,-1,6
505,4.17949,2.044,-1,6
506,4.18154,2.048,-1,6
507,4.18358,2.036,-1,6
508,4.18560,2.022,-1,6
509,4.18762,2.019,-1,6
510,4.18964,2.024,-1,6
511,4.19166,2.023,-1,6
512,4.19367,2.010,-1,6
513,4.19567,2.002,-1,6
514,4.19767,1.998,-1,6
515,4.19968,2.004,-1,6
516,4.20168,2.003,-1,6
517,4.20367,1.987,-1,6
518,4.20564,1.976,-1,6
519,4.20762,1.979,-1,6
520,4.20961,1.991,-1,6
521,4.21159,1.981,-1,6
522,4.21355,1.959,-1,6
523,4.21551,1.953,-1,6
524,4.21747,1.967,-1,6
525,4.21945,1.975,-1,6
526,4.22140,1.952,-1,6
527,4.22333,1.936,-1,6
528,4.22528,1.942,-1,6
529,4.22723,1.956,-1,6
530,4.22918,1.950,-1,6
531,4.23111,1.927,-1,6
532,4.23303,1.935,-1,6
533,4.23691,1.938,-1,6
534,4.23883,1.928,-1,6
535,4.24075,1.911,-1,6
536,4.24266,1.913,-1,6
537,4.24458,1.918,-1,6
538,4.24650,1.921,-1,6
539,4.24841,1.913,-1,6
540,4.25031,1.898,-1,6
541,4.25221,1.898,-1,6
542,4.25411,1.905,-1,6
543,4.25602,1.912,-1,6
544,4.25793,1.904,-1,6
545,4.25981,1.883,-1,6
546,4.26169,1.884,-1,6
547,4.26359,1.896,-1,6
548,4.26549,1.904,-1,6
549,4.26738,1.890,-1,6
550,4.26925,1.870,-1,6
551,4.27113,1.876,-1,6
552,4.27302,1.892,-1,6
553,4.27492,1.894,-1,6
554,4.27679,1.874,-1,6
555,4.27865,1.861,-1,6
556,4.28053,1.875,-1,6
557,4.28242,1.890,-1,6
558,4.28430,1.883,-1,6
559,4.28616,1.864,-1,6
560,4.28802,1.861,-1,6
561,4.28990,1.876,-1,6
562,4.29365,1.873,-1,6
563,4.29552,1.865,-1,6
564,4.29738,1.864,-1,6
565,4.29926,1.873,-1,6
566,4.30113,1.875,-1,6
567,4.30300,1.870,-1,6
568,4.30487,1.869,-1,6
569,4.30674,1.864,-1,6
570,4.30861,1.870,-1,6
571,4.31048,1.873,-1,6
572,4.31236,1.876,-1,6
573,4.31423,1.873,-1,6
574,4.31609,1.865,-1,6
575,4.31796,1.872,-1,6
576,4.31985,1.881,-1,6
577,4.32173,1.882,-1,6
578,4.32360,1.873,-1,6
579,4.32547,1.865,-1,6
580,4.32734,1.879,-1,6
581,4.32923,1.888,-1,6
582,4.33112,1.885,-1,6
583,4.33299,1.875,-1,6
584,4.33487,1.873,-1,6
585,4.33675,1.889,-1,6
586,4.33865,1.892,-1,6
587,4.34053,1.889,-1,6
588,4.34242,1.886,-1,6
589,4.34431,1.885,-1,6
590,4.34620,1.896,-1,6
591,4.34810,1.899,-1,6
592,4.35000,1.897,-1,6
593,4.35379,1.897,-1,6
594,4.35570,1.902,-1,6
595,4.35760,1.909,-1,6
596,4.35952,1.913,-1,6
597,4.36143,1.910,-1,6
598,4.36333,1.905,-1,6
599,4.36524,1.913,-1,6
600,4.36717,1.922,-1,6
601,4.36909,1.927,-1,6
602,4.37102,1.922,-1,6
603,4.37293,1.917,-1,6
604,4.37486,1.928,-1,6
605,4.37680,1.935,-1,6
606,4.37873,1.937,-1,6
607,4.38067,1.936,-1,6
608,4.38261,1.935,-1,6
609,4.38454,1.940,-1,6
610,4.38649,1.942,-1,6
611,4.38844,1.953,-1,6
612,4.39040,1.956,-1,6
613,4.39234,1.949,-1,6
614,4.39429,1.948,-1,6
615,4.39625,1.961,-1,6
616,4.39823,1.976,-1,6
617,4.40020,1.971,-1,6
618,4.40216,1.959,-1,6
619,4.40413,1.967,-1,6
620,4.40611,1.988,-1,6
621,4.40811,2.001,-1,6
622,4.41010,1.986,-1,6
623,4.41208,1.979,-1,6
624,4.41408,2.016,-1,6
625,4.41609,2.022,-1,6
626,4.41811,2.006,-1,6
627,4.42213,2.010,-1,6
628,4.42416,2.027,-1,6
629,4.42621,2.048,-1,6
630,4.42825,2.048,-1,6
631,4.43029,2.035,-1,6
632,4.43233,2.044,-1,6
633,4.43440,2.065,-1,6
634,4.43648,2.086,-1,6
635,4.43856,2.078,-1,6
636,4.44063,2.070,-1,6
637,4.44271,2.083,-1,6
638,4.44483,2.118,-1,6
639,4.44696,2.125,-1,6
640,4.44907,2.109,-1,6
641,4.45118,2.112,-1,6
642,4.45332,2.143,-1,6
643,4.45549,2.168,-1,6
644,4.45765,2.158,-1,6
645,4.45980,2.155,-1,6
646,4.46198,2.174,-1,6
647,4.46418,2.203,-1,6
648,4.46639,2.211,-1,6
649,4.46860,2.207,-1,6
650,4.47081,2.212,-1,6
651,4.47304,2.235,-1,6
652,4.47531,2.261,-1,6
653,4.47757,2.267,-1,6
654,4.47983,2.260,-1,6
655,4.48211,2.275,-1,6
656,4.48442,2.309,-1,6
657,4.48674,2.326,-1,6
658,4.48906,2.318,-1,6
659,4.49375,2.358,-1,6
660,4.49613,2.380,-1,6
661,4.49851,2.381,-1,6
662,4.50090,2.388,-1,6
663,4.50330,2.408,-1,6
664,4.50573,2.431,-1,6
665,4.50818,2.448,-1,6
666,4.51064,2.458,-1,6
667,4.51311,2.467,-1,6
668,4.51560,2.491,-1,6
669,4.51811,2.514,-1,6
670,4.52064,2.526,-1,6
671,4.52317,2.536,-1,6
672,4.52573,2.556,-1,6
673,4.52831,2.576,-1,6
674,4.53090,2.599,-1,6
675,4.53352,2.611,-1,6
676,4.53614,2.620,-1,6
677,4.53878,2.642,-1,6
678,4.54145,2.674,-1,6
679,4.54414,2.683,-1,6
680,4.54683,2.690,-1,6
681,4.54954,2.716,-1,6
682,4.55228,2.738,-1,6
683,4.55504,2.757,-1,6
684,4.55781,2.769,-1,6
685,4.56059,2.783,-1,6
686,4.56339,2.804,-1,6
687,4.56622,2.829,-1,6
688,4.56907,2.846,-1,6
689,4.57192,2.872,-1,6
690,4.57769,2.896,-1,6
691,4.58061,2.919,-1,6
692,4.58354,2.927,-1,6
693,4.58648,2.943,-1,6
694,4.58944,2.963,-1,6
695,4.59243,2.982,-1,6
696,4.59542,2.997,-1,6
697,4.59843,3.011,-1,6
698,4.60146,3.025,-1,6
699,4.60450,3.046,-1,6
700,4.60756,3.060,-1,6
701,4.61063,3.070,-1,6
702,4.61372,3.083,-1,6
703,4.61682,3.099,-1,6
704,4.61993,3.118,-1,6
705,4.62306,3.125,-1,6
706,4.62620,3.140,-1,6
707,4.62935,3.147,-1,6
708,4.63251,3.160,-1,6
709,4.63568,3.178,-1,6
710,4.63887,3.187,-1,6
711,4.64206,3.189,-1,6
712,4.64526,3.202,-1,6
713,4.64848,3.216,-1,6
714,4.65171,3.228,-1,6
715,4.65494,3.232,-1,6
716,4.65818,3.237,-1,6
717,4.66142,3.248,-1,6
718,4.66469,3.263,-1,6
719,4.66795,3.267,-1,6
720,4.67122,3.279,-1,6
721,4.67779,3.285,-1,6
722,4.68108,3.292,-1,6
723,4.68437,3.295,-1,6
724,4.68767,3.297,-1,6
725,4.69098,3.306,-1,6
726,4.69429,3.310,-1,6
727,4.69760,3.314,-1,6
728,4.70092,3.318,-1,6
729,4.70424,3.319,-1,6
730,4.70756,3.324,-1,6
731,4.71089,3.329,-1,6
732,4.71422,3.330,-1,6
733,4.71755,3.330,-1,6
734,4.72088,3.335,-1,6
735,4.72422,3.340,-1,6
736,4.72756,3.336,-1,6
737,4.73090,3.341,-1,6
738,4.73424,3.339,-1,6
739,4.73758,3.342,-1,6
740,4.74092,3.341,-1,6
741,4.74426,3.339,-1,6
742,4.74760,3.341,-1,6
743,4.75094,3.340,-1,6
744,4.75428,3.338,-1,6
745,4.75762,3.336,-1,6
746,4.76096,3.338,-1,6
747,4.76429,3.332,-1,6
748,4.76762,3.329,-1,6
749,4.77094,3.325,-1,6
750,4.77759,3.323,-1,6
751,4.78091,3.317,-1,6
752,4.78421,3.310,-1,6
753,4.78752,3.309,-1,6
754,4.79083,3.304,-1,6
755,4.79413,3.300,-1,6
756,4.79742,3.292,-1,6
757,4.80071,3.287,-1,6
758,4.80399,3.280,-1,6
759,4.80726,3.277,-1,6
760,4.81053,3.269,-1,6
761,4.81380,3.264,-1,6
762,4.81705,3.255,-1,6
763,4.82030,3.247,-1,6
764,4.82354,3.243,-1,6
765,4.82678,3.233,-1,6
766,4.83000,3.222,-1,6
767,4.83322,3.217,-1,6
768,4.83643,3.211,-1,6
769,4.83963,3.199,-1,6
770,4.84281,3.189,-1,6
771,4.84599,3.180,-1,6
772,4.84917,3.171,-1,6
773,4.85233,3.164,-1,6
774,4.85548,3.153,-1,6
775,4.85862,3.138,-1,6
776,4.86175,3.123,-1,6
777,4.86799,3.110,-1,6
778,4.87109,3.104,-1,6
779,4.87418,3.089,-1,6
780,4.87726,3.080,-1,6
781,4.88033,3.070,-1,6
782,4.88339,3.060,-1,6
783,4.88643,3.046,-1,6
784,4.88947,3.037,-1,6
785,4.89249,3.023,-1,6
786,4.89551,3.012,-1,6
787,4.89851,3.001,-1,6
788,4.90150,2.990,-1,6
789,4.90448,2.978,-1,6
790,4.90744,2.963,-1,6
791,4.91040,2.957,-1,6
792,4.91334,2.942,-1,6
793,4.91627,2.929,-1,6
794,4.91919,2.922,-1,6
795,4.92209,2.905,-1,6
796,4.92499,2.893,-1,6
797,4.92787,2.883,-1,6
798,4.93074,2.876,-1,6
799,4.93361,2.862,-1,6
800,4.93645,2.847,-1,6
801,4.93929,2.836,-1,6
802,4.94211,2.825,-1,6
803,4.94493,2.815,-1,6
804,4.94773,2.804,-1,6
805,4.95052,2.791,-1,6
806,4.95330,2.776,-1,6
807,4.95607,2.770,-1,6
808,4.95883,2.747,-1,6
809,4.96432,2.736,-1,6
810,4.96704,2.726,-1,6
811,4.96976,2.716,-1,6
812,4.97246,2.705,-1,6
813,4.97516,2.697,-1,6
814,4.97784,2.682,-1,6
815,4.98052,2.674,-1,6
816,4.98318,2.666,-1,6
817,4.98584,2.656,-1,6
818,4.98848,2.646,-1,6
819,4.99112,2.632,-1,6
820,4.99374,2.629,-1,6
821,4.99636,2.620,-1,6
822,4.99897,2.609,-1,6
823,5.00157,2.598,-1,6
824,5.00417,2.594,-1,6
825,5.00675,2.587,-1,6
826,5.00933,2.574,-1,6
827,5.01190,2.574,-1,6
828,5.01447,2.564,-1,6
829,5.01702,2.551,-1,6
830,5.01956,2.548,-1,6
831,5.02211,2.546,-1,6
832,5.02465,2.536,-1,6
833,5.02717,2.527,-1,6
834,5.02970,2.523,-1,6
835,5.03221,2.517,-1,6
836,5.03473,2.513,-1,6
837,5.03723,2.503,-1,6
838,5.03973,2.497,-1,6
839,5.04222,2.497,-1,6
840,5.04720,2.481,-1,6
841,5.04968,2.480,-1,6
842,5.05215,2.477,-1,6
843,5.05462,2.468,-1,6
844,5.05709,2.466,-1,6
845,5.05956,2.469,-1,6
846,5.06202,2.459,-1,6
847,5.06447,2.452,-1,6
848,5.06692,2.454,-1,6
849,5.06938,2.453,-1,6
850,5.07182,2.447,-1,6
851,5.07426,2.440,-1,6
852,5.07671,2.443,-1,6
853,5.07915,2.443,-1,6
854,5.08159,2.441,-1,6
855,5.08403,2.436,-1,6
856,5.08646,2.434,-1,6
857,5.08890,2.436,-1,6
858,5.09133,2.437,-1,6
859,5.09376,2.429,-1,6
860,5.09620,2.433,-1,6
861,5.09863,2.436,-1,6
862,5.10106,2.432,-1,6
863,5.10349,2.426,-1,6
864,5.10593,2.438,-1,6
865,5.10837,2.437,-1,6
866,5.11080,2.432,-1,6
867,5.11323,2.431,-1,6
868,5.11567,2.441,-1,6
869,5.12055,2.437,-1,6
870,5.12299,2.440,-1,6
871,5.12543,2.445,-1,6
872,5.12788,2.445,-1,6
873,5.13032,2.445,-1,6
