cnt,pos,speed,Dir,Force,
1,3.23139,1.012,-1,6
2,3.23243,1.041,-1,6
3,3.23349,1.054,-1,6
4,3.23454,1.051,-1,6
5,3.23559,1.056,-1,6
6,3.23667,1.080,-1,6
7,3.23778,1.110,-1,6
8,3.23890,1.118,-1,6
9,3.24002,1.114,-1,6
10,3.24114,1.125,-1,6
11,3.24230,1.157,-1,6
12,3.24348,1.179,-1,6
13,3.24465,1.172,-1,6
14,3.24582,1.169,-1,6
15,3.24702,1.197,-1,6
16,3.24825,1.230,-1,6
17,3.24948,1.238,-1,6
18,3.25071,1.231,-1,6
19,3.25196,1.244,-1,6
20,3.25323,1.271,-1,6
21,3.25452,1.290,-1,6
22,3.25581,1.294,-1,6
23,3.25712,1.304,-1,6
24,3.25844,1.322,-1,6
25,3.25977,1.336,-1,6
26,3.26113,1.352,-1,6
27,3.26249,1.364,-1,6
28,3.26386,1.370,-1,6
29,3.26525,1.413,-1,6
30,3.26808,1.422,-1,6
31,3.26950,1.421,-1,6
32,3.27094,1.439,-1,6
33,3.27241,1.464,-1,6
34,3.27388,1.476,-1,6
35,3.27537,1.487,-1,6
36,3.27687,1.497,-1,6
37,3.27837,1.503,-1,6
38,3.27990,1.526,-1,6
39,3.28144,1.546,-1,6
40,3.28299,1.553,-1,6
41,3.28455,1.559,-1,6
42,3.28613,1.576,-1,6
43,3.28772,1.590,-1,6
44,3.28932,1.605,-1,6
45,3.29094,1.619,-1,6
46,3.29257,1.624,-1,6
47,3.29421,1.638,-1,6
48,3.29586,1.657,-1,6
49,3.29753,1.668,-1,6
50,3.29921,1.679,-1,6
51,3.30090,1.688,-1,6
52,3.30259,1.695,-1,6
53,3.30431,1.718,-1,6
54,3.30604,1.735,-1,6
55,3.30778,1.736,-1,6
56,3.31128,1.755,-1,6
57,3.31305,1.779,-1,6
58,3.31485,1.793,-1,6
59,3.31664,1.787,-1,6
60,3.31842,1.789,-1,6
61,3.32024,1.814,-1,6
62,3.32208,1.838,-1,6
63,3.32392,1.844,-1,6
64,3.32575,1.833,-1,6
65,3.32759,1.841,-1,6
66,3.32947,1.873,-1,6
67,3.33135,1.888,-1,6
68,3.33324,1.887,-1,6
69,3.33512,1.878,-1,6
70,3.33701,1.894,-1,6
71,3.33894,1.925,-1,6
72,3.34087,1.927,-1,6
73,3.34279,1.923,-1,6
74,3.34471,1.925,-1,6
75,3.34666,1.949,-1,6
76,3.34862,1.961,-1,6
77,3.35058,1.960,-1,6
78,3.35255,1.965,-1,6
79,3.35452,1.971,-1,6
80,3.35650,1.984,-1,6
81,3.35850,1.992,-1,6
82,3.36049,1.998,-1,6
83,3.36250,2.004,-1,6
84,3.36450,2.005,-1,6
85,3.36652,2.013,-1,6
86,3.36854,2.021,-1,6
87,3.37057,2.032,-1,6
88,3.37260,2.034,-1,6
89,3.37463,2.029,-1,6
90,3.37667,2.037,-1,6
91,3.37872,2.052,-1,6
92,3.38078,2.059,-1,6
93,3.38283,2.051,-1,6
94,3.38489,2.054,-1,6
95,3.38695,2.064,-1,6
96,3.38902,2.073,-1,6
97,3.39110,2.074,-1,6
98,3.39316,2.069,-1,6
99,3.39523,2.069,-1,6
100,3.39731,2.073,-1,6
101,3.39940,2.089,-1,6
102,3.40148,2.084,-1,6
103,3.40356,2.077,-1,6
104,3.40563,2.074,-1,6
105,3.40772,2.091,-1,6
106,3.40982,2.101,-1,6
107,3.41191,2.090,-1,6
108,3.41399,2.077,-1,6
109,3.41607,2.084,-1,6
110,3.41818,2.103,-1,6
111,3.42027,2.096,-1,6
112,3.42236,2.083,-1,6
113,3.42443,2.077,-1,6
114,3.42653,2.093,-1,6
115,3.42863,2.100,-1,6
116,3.43072,2.089,-1,6
117,3.43279,2.077,-1,6
118,3.43487,2.080,-1,6
119,3.43696,2.092,-1,6
120,3.43906,2.091,-1,6
121,3.44113,2.078,-1,6
122,3.44320,2.066,-1,6
123,3.44527,2.072,-1,6
124,3.44736,2.087,-1,6
125,3.44944,2.079,-1,6
126,3.45150,2.059,-1,6
127,3.45355,2.063,-1,6
128,3.45768,2.073,-1,6
129,3.45974,2.056,-1,6
130,3.46177,2.036,-1,6
131,3.46381,2.038,-1,6
132,3.46587,2.054,-1,6
133,3.46792,2.050,-1,6
134,3.46995,2.032,-1,6
135,3.47197,2.020,-1,6
136,3.47400,2.028,-1,6
137,3.47603,2.033,-1,6
138,3.47806,2.026,-1,6
139,3.48007,2.013,-1,6
140,3.48207,2.002,-1,6
141,3.48408,2.007,-1,6
142,3.48609,2.013,-1,6
143,3.48810,2.006,-1,6
144,3.49008,1.987,-1,6
145,3.49206,1.977,-1,6
146,3.49405,1.989,-1,6
147,3.49604,1.989,-1,6
148,3.49802,1.978,-1,6
149,3.49998,1.954,-1,6
150,3.50389,1.962,-1,6
151,3.50585,1.957,-1,6
152,3.50780,1.946,-1,6
153,3.50973,1.930,-1,6
154,3.51166,1.931,-1,6
155,3.51359,1.930,-1,6
156,3.51551,1.922,-1,6
157,3.51742,1.913,-1,6
158,3.51932,1.903,-1,6
159,3.52122,1.896,-1,6
160,3.52311,1.891,-1,6
161,3.52500,1.888,-1,6
162,3.52688,1.881,-1,6
163,3.52874,1.865,-1,6
164,3.53060,1.857,-1,6
165,3.53246,1.856,-1,6
166,3.53431,1.850,-1,6
167,3.53615,1.841,-1,6
168,3.53797,1.818,-1,6
169,3.53979,1.819,-1,6
170,3.54161,1.824,-1,6
171,3.54342,1.811,-1,6
172,3.54521,1.794,-1,6
173,3.54699,1.777,-1,6
174,3.54877,1.781,-1,6
175,3.55056,1.788,-1,6
176,3.55233,1.766,-1,6
177,3.55407,1.744,-1,6
178,3.55581,1.735,-1,6
179,3.55755,1.742,-1,6
180,3.55930,1.747,-1,6
181,3.56101,1.718,-1,6
182,3.56271,1.695,-1,6
183,3.56440,1.692,-1,6
184,3.56610,1.699,-1,6
185,3.56780,1.696,-1,6
186,3.56947,1.675,-1,6
187,3.57112,1.647,-1,6
188,3.57276,1.645,-1,6
189,3.57442,1.653,-1,6
190,3.57606,1.646,-1,6
191,3.57769,1.627,-1,6
192,3.57930,1.608,-1,6
193,3.58090,1.603,-1,6
194,3.58251,1.609,-1,6
195,3.58411,1.600,-1,6
196,3.58569,1.577,-1,6
197,3.58726,1.572,-1,6
198,3.58883,1.568,-1,6
199,3.59039,1.561,-1,6
200,3.59194,1.553,-1,6
201,3.59348,1.538,-1,6
202,3.59501,1.531,-1,6
203,3.59654,1.536,-1,6
204,3.59807,1.523,-1,6
205,3.59957,1.495,-1,6
206,3.60257,1.504,-1,6
207,3.60407,1.500,-1,6
208,3.60555,1.482,-1,6
209,3.60701,1.466,-1,6
210,3.60847,1.459,-1,6
211,3.60995,1.472,-1,6
212,3.61142,1.472,-1,6
213,3.61286,1.446,-1,6
214,3.61429,1.428,-1,6
215,3.61573,1.434,-1,6
216,3.61717,1.443,-1,6
217,3.62002,1.417,-1,6
218,3.62142,1.405,-1,6
219,3.62283,1.406,-1,6
220,3.62424,1.414,-1,6
221,3.62565,1.408,-1,6
222,3.62704,1.389,-1,6
223,3.62842,1.381,-1,6
224,3.62981,1.391,-1,6
225,3.63120,1.389,-1,6
226,3.63258,1.377,-1,6
227,3.63395,1.373,-1,6
228,3.63533,1.376,-1,6
229,3.63670,1.371,-1,6
230,3.63806,1.366,-1,6
231,3.63943,1.363,-1,6
232,3.64079,1.360,-1,6
233,3.64215,1.362,-1,6
234,3.64351,1.365,-1,6
235,3.64487,1.357,-1,6
236,3.64621,1.342,-1,6
237,3.64756,1.347,-1,6
238,3.64892,1.362,-1,6
239,3.65028,1.358,-1,6
240,3.65162,1.344,-1,6
241,3.65297,1.344,-1,6
242,3.65432,1.350,-1,6
243,3.65567,1.350,-1,6
244,3.65702,1.352,-1,6
245,3.65837,1.354,-1,6
246,3.65972,1.348,-1,6
247,3.66107,1.347,-1,6
248,3.66242,1.358,-1,6
249,3.66378,1.359,-1,6
250,3.66514,1.355,-1,6
251,3.66650,1.359,-1,6
252,3.66787,1.369,-1,6
253,3.66923,1.362,-1,6
254,3.67059,1.358,-1,6
255,3.67196,1.368,-1,6
256,3.67471,1.377,-1,6
257,3.67609,1.376,-1,6
258,3.67746,1.376,-1,6
259,3.67884,1.378,-1,6
260,3.68023,1.393,-1,6
261,3.68164,1.403,-1,6
262,3.68303,1.395,-1,6
263,3.68442,1.386,-1,6
264,3.68582,1.398,-1,6
265,3.68723,1.416,-1,6
266,3.68865,1.417,-1,6
267,3.69007,1.417,-1,6
268,3.69291,1.422,-1,6
269,3.69434,1.430,-1,6
270,3.69578,1.441,-1,6
271,3.69722,1.442,-1,6
272,3.69866,1.443,-1,6
273,3.70012,1.453,-1,6
274,3.70157,1.457,-1,6
275,3.70303,1.453,-1,6
276,3.70449,1.466,-1,6
277,3.70597,1.477,-1,6
278,3.70744,1.474,-1,6
279,3.70892,1.480,-1,6
280,3.71041,1.483,-1,6
281,3.71189,1.486,-1,6
282,3.71339,1.499,-1,6
283,3.71490,1.507,-1,6
284,3.71640,1.506,-1,6
285,3.71791,1.501,-1,6
286,3.71942,1.518,-1,6
287,3.72095,1.530,-1,6
288,3.72249,1.532,-1,6
289,3.72402,1.530,-1,6
290,3.72555,1.532,-1,6
291,3.72709,1.544,-1,6
292,3.72866,1.565,-1,6
293,3.73022,1.564,-1,6
294,3.73177,1.549,-1,6
295,3.73333,1.561,-1,6
296,3.73491,1.580,-1,6
297,3.73650,1.593,-1,6
298,3.73810,1.591,-1,6
299,3.73968,1.585,-1,6
300,3.74127,1.589,-1,6
301,3.74289,1.616,-1,6
302,3.74451,1.628,-1,6
303,3.74613,1.620,-1,6
304,3.74939,1.633,-1,6
305,3.75104,1.653,-1,6
306,3.75271,1.667,-1,6
307,3.75437,1.660,-1,6
308,3.75603,1.660,-1,6
309,3.75771,1.680,-1,6
310,3.75940,1.695,-1,6
311,3.76111,1.705,-1,6
312,3.76281,1.705,-1,6
313,3.76452,1.708,-1,6
314,3.76625,1.728,-1,6
315,3.76799,1.746,-1,6
316,3.76975,1.751,-1,6
317,3.77327,1.765,-1,6
318,3.77505,1.784,-1,6
319,3.77685,1.805,-1,6
320,3.77866,1.804,-1,6
321,3.78047,1.812,-1,6
322,3.78230,1.825,-1,6
323,3.78415,1.849,-1,6
324,3.78602,1.870,-1,6
325,3.78788,1.867,-1,6
326,3.78975,1.871,-1,6
327,3.79165,1.894,-1,6
328,3.79357,1.923,-1,6
329,3.79551,1.939,-1,6
330,3.79744,1.931,-1,6
331,3.79938,1.943,-1,6
332,3.80136,1.975,-1,6
333,3.80336,2.002,-1,6
334,3.80537,2.009,-1,6
335,3.80737,2.003,-1,6
336,3.80940,2.031,-1,6
337,3.81147,2.064,-1,6
338,3.81355,2.082,-1,6
339,3.81563,2.082,-1,6
340,3.81773,2.095,-1,6
341,3.81985,2.121,-1,6
342,3.82200,2.149,-1,6
343,3.82416,2.165,-1,6
344,3.82633,2.171,-1,6
345,3.82852,2.186,-1,6
346,3.83298,2.249,-1,6
347,3.83524,2.256,-1,6
348,3.83750,2.256,-1,6
349,3.83978,2.287,-1,6
350,3.84211,2.326,-1,6
351,3.84445,2.341,-1,6
352,3.84679,2.344,-1,6
353,3.84916,2.363,-1,6
354,3.85156,2.401,-1,6
355,3.85398,2.425,-1,6
356,3.85642,2.434,-1,6
357,3.85886,2.444,-1,6
358,3.86134,2.478,-1,6
359,3.86385,2.525,-1,6
360,3.86637,2.528,-1,6
361,3.87146,2.560,-1,6
362,3.87405,2.594,-1,6
363,3.87666,2.609,-1,6
364,3.87928,2.620,-1,6
365,3.88193,2.676,-1,6
366,3.88461,2.676,-1,6
367,3.88730,2.693,-1,6
368,3.89001,2.716,-1,6
369,3.89275,2.731,-1,6
370,3.89550,2.758,-1,6
371,3.89829,2.786,-1,6
372,3.90109,2.802,-1,6
373,3.90391,2.818,-1,6
374,3.90675,2.840,-1,6
375,3.90962,2.872,-1,6
376,3.91251,2.893,-1,6
377,3.91542,2.901,-1,6
378,3.91834,2.923,-1,6
379,3.92129,2.952,-1,6
380,3.92426,2.974,-1,6
381,3.92725,2.986,-1,6
382,3.93026,3.006,-1,6
383,3.93328,3.026,-1,6
384,3.93633,3.051,-1,6
385,3.93940,3.069,-1,6
386,3.94249,3.100,-1,6
387,3.94559,3.123,-1,6
388,3.94871,3.143,-1,6
389,3.95500,3.152,-1,6
390,3.95817,3.167,-1,6
391,3.96136,3.191,-1,6
392,3.96457,3.207,-1,6
393,3.96779,3.221,-1,6
394,3.97102,3.229,-1,6
395,3.97426,3.245,-1,6
396,3.97753,3.265,-1,6
397,3.98080,3.273,-1,6
398,3.98409,3.284,-1,6
399,3.98738,3.296,-1,6
400,3.99069,3.312,-1,6
401,3.99402,3.323,-1,6
402,3.99735,3.328,-1,6
403,4.00403,3.350,-1,6
404,4.00739,3.363,-1,6
405,4.01076,3.366,-1,6
406,4.01413,3.373,-1,6
407,4.01751,3.379,-1,6
408,4.02090,3.390,-1,6
409,4.02430,3.400,-1,6
410,4.02770,3.402,-1,6
411,4.03111,3.405,-1,6
412,4.03452,3.413,-1,6
413,4.03794,3.419,-1,6
414,4.04136,3.423,-1,6
415,4.04479,3.424,-1,6
416,4.04821,3.426,-1,6
417,4.05165,3.433,-1,6
418,4.05508,3.434,-1,6
419,4.05852,3.439,-1,6
420,4.06195,3.434,-1,6
421,4.06539,3.435,-1,6
422,4.06883,3.437,-1,6
423,4.07227,3.440,-1,6
424,4.07570,3.436,-1,6
425,4.07914,3.435,-1,6
426,4.08257,3.434,-1,6
427,4.08600,3.432,-1,6
428,4.08944,3.435,-1,6
429,4.09286,3.427,-1,6
430,4.09629,3.423,-1,6
431,4.09971,3.424,-1,6
432,4.10313,3.417,-1,6
433,4.10996,3.412,-1,6
434,4.11336,3.402,-1,6
435,4.11676,3.405,-1,6
436,4.12016,3.397,-1,6
437,4.12355,3.390,-1,6
438,4.12694,3.386,-1,6
439,4.13031,3.377,-1,6
440,4.13368,3.370,-1,6
441,4.14041,3.357,-1,6
442,4.14376,3.350,-1,6
443,4.15044,3.336,-1,6
444,4.15376,3.328,-1,6
445,4.15708,3.318,-1,6
446,4.16039,3.308,-1,6
447,4.16369,3.303,-1,6
448,4.16699,3.293,-1,6
449,4.17027,3.282,-1,6
450,4.17354,3.274,-1,6
451,4.17680,3.263,-1,6
452,4.18006,3.253,-1,6
453,4.18330,3.245,-1,6
454,4.18654,3.233,-1,6
455,4.18975,3.219,-1,6
456,4.19297,3.210,-1,6
457,4.19616,3.199,-1,6
458,4.19935,3.189,-1,6
459,4.20253,3.173,-1,6
460,4.20569,3.163,-1,6
461,4.20884,3.147,-1,6
462,4.21197,3.139,-1,6
463,4.21510,3.127,-1,6
464,4.21821,3.110,-1,6
465,4.22131,3.096,-1,6
466,4.22439,3.084,-1,6
467,4.23052,3.058,-1,6
468,4.23356,3.043,-1,6
469,4.23659,3.029,-1,6
470,4.23961,3.019,-1,6
471,4.24262,3.005,-1,6
472,4.24560,2.984,-1,6
473,4.24858,2.974,-1,6
474,4.25154,2.962,-1,6
475,4.25448,2.946,-1,6
476,4.25742,2.933,-1,6
477,4.26034,2.919,-1,6
478,4.26324,2.902,-1,6
479,4.26613,2.890,-1,6
480,4.26901,2.877,-1,6
481,4.27187,2.846,-1,6
482,4.27755,2.834,-1,6
483,4.28037,2.820,-1,6
484,4.28318,2.794,-1,6
485,4.28597,2.794,-1,6
486,4.28875,2.779,-1,6
487,4.29152,2.765,-1,6
488,4.29427,2.754,-1,6
489,4.29701,2.743,-1,6
490,4.29974,2.729,-1,6
491,4.30245,2.710,-1,6
492,4.30516,2.703,-1,6
493,4.30785,2.693,-1,6
494,4.31053,2.677,-1,6
495,4.31319,2.664,-1,6
496,4.31584,2.652,-1,6
497,4.31848,2.640,-1,6
498,4.32111,2.632,-1,6
499,4.32373,2.619,-1,6
500,4.32634,2.604,-1,6
501,4.32893,2.592,-1,6
502,4.33151,2.582,-1,6
503,4.33409,2.576,-1,6
504,4.33665,2.562,-1,6
505,4.33919,2.545,-1,6
506,4.34173,2.537,-1,6
507,4.34426,2.531,-1,6
508,4.34678,2.522,-1,6
509,4.34929,2.507,-1,6
510,4.35179,2.498,-1,6
511,4.35676,2.480,-1,6
512,4.35923,2.471,-1,6
513,4.36169,2.466,-1,6
514,4.36414,2.451,-1,6
515,4.36659,2.445,-1,6
516,4.36903,2.437,-1,6
517,4.37146,2.435,-1,6
518,4.37389,2.425,-1,6
519,4.37630,2.415,-1,6
520,4.37871,2.406,-1,6
521,4.38111,2.406,-1,6
522,4.38351,2.401,-1,6
523,4.38590,2.387,-1,6
524,4.39066,2.382,-1,6
525,4.39304,2.377,-1,6
526,4.39541,2.371,-1,6
527,4.39777,2.362,-1,6
528,4.40014,2.363,-1,6
529,4.40249,2.356,-1,6
530,4.40484,2.350,-1,6
531,4.40720,2.352,-1,6
532,4.40954,2.349,-1,6
533,4.41189,2.342,-1,6
534,4.41422,2.338,-1,6
535,4.41657,2.341,-1,6
536,4.41891,2.341,-1,6
537,4.42124,2.335,-1,6
538,4.42357,2.332,-1,6
539,4.42590,2.330,-1,6
540,4.42824,2.340,-1,6
541,4.43058,2.334,-1,6
542,4.43291,2.332,-1,6
543,4.43524,2.329,-1,6
544,4.43758,2.340,-1,6
545,4.43992,2.339,-1,6
546,4.44225,2.335,-1,6
547,4.44459,2.339,-1,6
548,4.44694,2.349,-1,6
549,4.44929,2.346,-1,6
550,4.45163,2.345,-1,6
551,4.45635,2.362,-1,6
552,4.45871,2.361,-1,6
553,4.46107,2.365,-1,6
554,4.46344,2.368,-1,6
555,4.46582,2.379,-1,6
556,4.46820,2.382,-1,6
557,4.47059,2.387,-1,6
558,4.47298,2.390,-1,6
559,4.47537,2.398,-1,6
560,4.47778,2.409,-1,6
561,4.48019,2.411,-1,6
562,4.48261,2.414,-1,6
563,4.48503,2.426,-1,6
564,4.48991,2.438,-1,6
565,4.49236,2.448,-1,6
566,4.49481,2.458,-1,6
567,4.49727,2.461,-1,6
568,4.49974,2.465,-1,6
569,4.50222,2.481,-1,6
570,4.50471,2.485,-1,6
571,4.50720,2.490,-1,6
572,4.50970,2.499,-1,6
573,4.51221,2.512,-1,6
574,4.51472,2.515,-1,6
575,4.51725,2.524,-1,6
576,4.51977,2.528,-1,6
577,4.52232,2.540,-1,6
578,4.52487,2.551,-1,6
579,4.52742,2.553,-1,6
580,4.52998,2.558,-1,6
581,4.53255,2.571,-1,6
582,4.53513,2.579,-1,6
583,4.53770,2.576,-1,6
584,4.54030,2.593,-1,6
585,4.54290,2.600,-1,6
586,4.54550,2.602,-1,6
587,4.54811,2.608,-1,6
588,4.55072,2.616,-1,6
589,4.55335,2.624,-1,6
590,4.55597,2.627,-1,6
591,4.55861,2.636,-1,6
592,4.56389,2.646,-1,6
593,4.56654,2.650,-1,6
594,4.56920,2.656,-1,6
595,4.57186,2.665,-1,6
596,4.57453,2.665,-1,6
597,4.57720,2.672,-1,6
598,4.57988,2.682,-1,6
599,4.58256,2.683,-1,6
600,4.58525,2.687,-1,6
601,4.58795,2.698,-1,6
602,4.59065,2.703,-1,6
603,4.59336,2.704,-1,6
604,4.59607,2.719,-1,6
605,4.60151,2.725,-1,6
606,4.60424,2.730,-1,6
607,4.60697,2.736,-1,6
608,4.60972,2.741,-1,6
609,4.61246,2.747,-1,6
610,4.61522,2.755,-1,6
611,4.61798,2.761,-1,6
612,4.62075,2.769,-1,6
613,4.62352,2.771,-1,6
614,4.62630,2.782,-1,6
615,4.62909,2.789,-1,6
616,4.63188,2.794,-1,6
617,4.63469,2.808,-1,6
618,4.63751,2.814,-1,6
619,4.64033,2.821,-1,6
620,4.64316,2.832,-1,6
621,4.64600,2.843,-1,6
622,4.64885,2.851,-1,6
623,4.65171,2.860,-1,6
624,4.65459,2.873,-1,6
625,4.65747,2.886,-1,6
626,4.66037,2.895,-1,6
627,4.66328,2.910,-1,6
628,4.66620,2.920,-1,6
629,4.66913,2.931,-1,6
630,4.67207,2.947,-1,6
631,4.67801,2.971,-1,6
632,4.68100,2.989,-1,6
633,4.68400,3.005,-1,6
634,4.68702,3.017,-1,6
635,4.69006,3.037,-1,6
636,4.69311,3.053,-1,6
637,4.69618,3.069,-1,6
638,4.69926,3.084,-1,6
639,4.70237,3.108,-1,6
640,4.70549,3.122,-1,6
641,4.70863,3.139,-1,6
642,4.71179,3.162,-1,6
643,4.71817,3.199,-1,6
644,4.72139,3.222,-1,6
645,4.72139,3.241,-1,6
646,4.72790,3.261,-1,6
647,4.73118,3.286,-1,6
648,4.73449,3.306,-1,6
649,4.73781,3.326,-1,6
650,4.74116,3.347,-1,6
651,4.74453,3.371,-1,6
652,4.74793,3.398,-1,6
653,4.75134,3.415,-1,6
654,4.75478,3.433,-1,6
655,4.75824,3.464,-1,6
656,4.76173,3.486,-1,6
657,4.76523,3.505,-1,6
658,4.76876,3.525,-1,6
659,4.77231,3.551,-1,6
660,4.77589,3.576,-1,6
661,4.77948,3.599,-1,6
662,4.78310,3.614,-1,6
663,4.78674,3.640,-1,6
664,4.79040,3.663,-1,6
665,4.79409,3.688,-1,6
666,4.79779,3.704,-1,6
667,4.80152,3.722,-1,6
668,4.80526,3.747,-1,6
669,4.80904,3.774,-1,6
670,4.81282,3.786,-1,6
671,4.81663,3.805,-1,6
672,4.82045,3.825,-1,6
673,4.82430,3.848,-1,6
674,4.82817,3.865,-1,6
675,4.83204,3.878,-1,6
676,4.83594,3.895,-1,6
677,4.83985,3.914,-1,6
678,4.84379,3.943,-1,6
679,4.85169,3.957,-1,6
680,4.85566,3.973,-1,6
681,4.85965,3.988,-1,6
682,4.86365,4.001,-1,6
683,4.86766,4.008,-1,6
684,4.87168,4.026,-1,6
685,4.87572,4.037,-1,6
686,4.87977,4.048,-1,6
687,4.88382,4.053,-1,6
688,4.88788,4.063,-1,6
689,4.89195,4.072,-1,6
690,4.90012,4.086,-1,6
691,4.90422,4.094,-1,6
692,4.90832,4.099,-1,6
693,4.91242,4.106,-1,6
694,4.91653,4.108,-1,6
695,4.92064,4.113,-1,6
696,4.92476,4.115,-1,6
697,4.92888,4.119,-1,6
698,4.93300,4.123,-1,6
699,4.93713,4.126,-1,6
700,4.94125,4.123,-1,6
701,4.94537,4.120,-1,6
702,4.94949,4.126,-1,6
703,4.95362,4.124,-1,6
704,4.95774,4.125,-1,6
705,4.96186,4.118,-1,6
706,4.96598,4.119,-1,6
707,4.97010,4.115,-1,6
708,4.97421,4.113,-1,6
709,4.97832,4.107,-1,6
710,4.98242,4.102,-1,6
711,4.98651,4.095,-1,6
712,4.99060,4.092,-1,6
713,4.99469,4.084,-1,6
714,4.99877,4.077,-1,6
715,5.00284,4.071,-1,6
716,5.00690,4.066,-1,6
717,5.01096,4.052,-1,6
718,5.01905,4.042,-1,6
719,5.02309,4.033,-1,6
720,5.02711,4.026,-1,6
721,5.03113,4.016,-1,6
722,5.03514,4.010,-1,6
723,5.03913,3.995,-1,6
724,5.04312,3.989,-1,6
725,5.04710,3.976,-1,6
726,5.05107,3.969,-1,6
727,5.05502,3.955,-1,6
728,5.05897,3.942,-1,6
729,5.06290,3.932,-1,6
730,5.06682,3.911,-1,6
731,5.07463,3.899,-1,6
732,5.07851,3.885,-1,6
733,5.08238,3.870,-1,6
734,5.08624,3.860,-1,6
735,5.09009,3.848,-1,6
736,5.09392,3.832,-1,6
737,5.09774,3.818,-1,6
738,5.10155,3.806,-1,6
739,5.10534,3.794,-1,6
740,5.10912,3.781,-1,6
741,5.11288,3.761,-1,6
742,5.11663,3.751,-1,6
743,5.12037,3.732,-1,6
744,5.12409,3.726,-1,6
745,5.12780,3.705,-1,6
746,5.13149,3.690,-1,6
747,5.13516,3.676,-1,6
748,5.13883,3.664,-1,6
749,5.14248,3.649,-1,6
750,5.14611,3.636,-1,6
751,5.14973,3.619,-1,6
752,5.15334,3.605,-1,6
753,5.15693,3.594,-1,6
754,5.16051,3.580,-1,6
755,5.16408,3.567,-1,6
756,5.16763,3.548,-1,6
757,5.17116,3.536,-1,6
758,5.17469,3.525,-1,6
759,5.17820,3.512,-1,6
760,5.18169,3.496,-1,6
761,5.18518,3.483,-1,6
762,5.18865,3.470,-1,6
763,5.19211,3.458,-1,6
764,5.19555,3.444,-1,6
765,5.19898,3.429,-1,6
766,5.20240,3.420,-1,6
767,5.20580,3.406,-1,6
768,5.20920,3.396,-1,6
769,5.21258,3.382,-1,6
770,5.21596,3.375,-1,6
771,5.21932,3.361,-1,6
772,5.22267,3.349,-1,6
773,5.22600,3.336,-1,6
774,5.22933,3.330,-1,6
775,5.23265,3.320,-1,6
776,5.23596,3.307,-1,6
777,5.23926,3.299,-1,6
778,5.24255,3.282,-1,6
779,5.24911,3.277,-1,6
780,5.25237,3.262,-1,6
781,5.25562,3.253,-1,6
782,5.25887,3.252,-1,6
783,5.26212,3.244,-1,6
784,5.26536,3.237,-1,6
785,5.26858,3.228,-1,6
786,5.27181,3.223,-1,6
787,5.27502,3.217,-1,6
788,5.27824,3.215,-1,6
789,5.28145,3.207,-1,6
790,5.28784,3.199,-1,6
791,5.29104,3.194,-1,6
792,5.29423,3.195,-1,6
793,5.29743,3.192,-1,6
794,5.30061,3.183,-1,6
795,5.30379,3.183,-1,6
796,5.30697,3.182,-1,6
797,5.31016,3.183,-1,6
798,5.31333,3.178,-1,6
799,5.31651,3.178,-1,6
800,5.31968,3.174,-1,6
801,5.32286,3.178,-1,6
802,5.32604,3.177,-1,6
803,5.32922,3.176,-1,6
804,5.33239,3.173,-1,6
805,5.33557,3.178,-1,6
806,5.33874,3.174,-1,6
807,5.34192,3.183,-1,6
808,5.34510,3.177,-1,6
809,5.34828,3.178,-1,6
810,5.35146,3.181,-1,6
811,5.35465,3.188,-1,6
812,5.35783,3.187,-1,6
813,5.36102,3.188,-1,6
814,5.36421,3.188,-1,6
815,5.36740,3.194,-1,6
816,5.37060,3.199,-1,6
817,5.37380,3.199,-1,6
818,5.37700,3.199,-1,6
819,5.38342,3.210,-1,6
820,5.38663,3.210,-1,6
821,5.38984,3.213,-1,6
822,5.39306,3.219,-1,6
823,5.39628,3.218,-1,6
824,5.39950,3.223,-1,6
825,5.40273,3.226,-1,6
826,5.40595,3.226,-1,6
827,5.40918,3.230,-1,6
828,5.41242,3.237,-1,6
829,5.41565,3.236,-1,6
830,5.41889,3.238,-1,6
831,5.42213,3.241,-1,6
832,5.42538,3.246,-1,6
833,5.42863,3.251,-1,6
834,5.43188,3.250,-1,6
835,5.43513,3.254,-1,6
836,5.43839,3.261,-1,6
837,5.44492,3.264,-1,6
838,5.44818,3.266,-1,6
839,5.45145,3.268,-1,6
840,5.45472,3.272,-1,6
841,5.45800,3.277,-1,6
842,5.46128,3.277,-1,6
843,5.46456,3.279,-1,6
844,5.46784,3.285,-1,6
845,5.47113,3.288,-1,6
846,5.47442,3.290,-1,6
847,5.47771,3.289,-1,6
848,5.48100,3.293,-1,6
849,5.48431,3.302,-1,6
850,5.48761,3.302,-1,6
851,5.49091,3.301,-1,6
852,5.49421,3.304,-1,6
853,5.49752,3.311,-1,6
854,5.50084,3.315,-1,6
855,5.50416,3.316,-1,6
856,5.50747,3.316,-1,6
857,5.51079,3.322,-1,6
858,5.51412,3.330,-1,6
859,5.52078,3.330,-1,6
860,5.52412,3.333,-1,6
861,5.52746,3.339,-1,6
862,5.53080,3.345,-1,6
863,5.53415,3.344,-1,6
864,5.53749,3.345,-1,6
865,5.54084,3.353,-1,6
866,5.54420,3.357,-1,6
867,5.54756,3.362,-1,6
868,5.55093,3.362,-1,6
869,5.55429,3.366,-1,6
870,5.55766,3.372,-1,6
871,5.56104,3.376,-1,6
872,5.56442,3.380,-1,6
873,5.56780,3.382,-1,6
