cnt,pos,speed,Dir,Force,
1,0,2.8727,-1,5
2,0.00293994,2.8841,-1,5
3,0.00587988,2.8952,-1,5
4,0.00881982,2.9056,-1,5
5,0.0117698,2.9144,-1,5
6,0.01472,2.9228,-1,5
7,0.0176799,2.9306,-1,5
8,0.0206399,2.9379,-1,5
9,0.0235999,2.9442,-1,5
10,0.0265698,2.9497,-1,5
11,0.0295298,2.954,-1,5
12,0.0324998,2.9574,-1,5
13,0.0354698,2.9597,-1,5
14,0.03844,2.962,-1,5
15,0.04141,2.9644,-1,5
16,0.0443799,2.9661,-1,5
17,0.0473599,2.9678,-1,5
18,0.0503399,2.9701,-1,5
19,0.0533299,2.9723,-1,5
20,0.0563099,2.9745,-1,5
21,0.0592999,2.9769,-1,5
22,0.06229,2.9792,-1,5
23,0.06529,2.9822,-1,5
24,0.06829,2.9851,-1,5
25,0.0742898,2.988,-1,5
26,0.0772998,2.9912,-1,5
27,0.0772998,2.9945,-1,5
28,0.0802999,2.9969,-1,5
29,0.0833099,2.9992,-1,5
30,0.0863199,3.0018,-1,5
31,0.08934,3.0043,-1,5
32,0.09235,3.0068,-1,5
33,0.0953798,3.0101,-1,5
34,0.0984099,3.0131,-1,5
35,0.10144,3.016,-1,5
36,0.10448,3.0196,-1,5
37,0.10752,3.0228,-1,5
38,0.11056,3.0267,-1,5
39,0.11361,3.0307,-1,5
40,0.11971,3.0346,-1,5
41,0.11971,3.0382,-1,5
42,0.12276,3.0421,-1,5
43,0.12887,3.0448,-1,5
44,0.13192,3.0471,-1,5
45,0.13498,3.0494,-1,5
46,0.13803,3.0509,-1,5
47,0.14109,3.0523,-1,5
48,0.14415,3.0534,-1,5
49,0.1472,3.0543,-1,5
50,0.15026,3.0549,-1,5
51,0.15332,3.0556,-1,5
52,0.15638,3.056,-1,5
53,0.15944,3.0565,-1,5
54,0.16249,3.0566,-1,5
55,0.16555,3.0569,-1,5
56,0.16861,3.0571,-1,5
57,0.17166,3.0573,-1,5
58,0.17471,3.0567,-1,5
59,0.17776,3.0556,-1,5
60,0.1808,3.0541,-1,5
61,0.18384,3.0524,-1,5
62,0.18687,3.0498,-1,5
63,0.18991,3.047,-1,5
64,0.19293,3.0438,-1,5
65,0.19594,3.0396,-1,5
66,0.19896,3.0353,-1,5
67,0.20197,3.0308,-1,5
68,0.20497,3.0258,-1,5
69,0.20797,3.021,-1,5
70,0.21095,3.0155,-1,5
71,0.21394,3.0099,-1,5
72,0.21692,3.0044,-1,5
73,0.21989,2.9984,-1,5
74,0.22286,2.9926,-1,5
75,0.22581,2.9868,-1,5
76,0.22876,2.9805,-1,5
77,0.23171,2.9742,-1,5
78,0.23465,2.9676,-1,5
79,0.23758,2.9609,-1,5
80,0.2405,2.9546,-1,5
81,0.24341,2.9474,-1,5
82,0.24633,2.9409,-1,5
83,0.24923,2.9335,-1,5
84,0.25212,2.9264,-1,5
85,0.255,2.919,-1,5
86,0.25788,2.9116,-1,5
87,0.26075,2.9036,-1,5
88,0.26361,2.8962,-1,5
89,0.26646,2.8887,-1,5
90,0.26931,2.8813,-1,5
91,0.27215,2.8738,-1,5
92,0.27499,2.8659,-1,5
93,0.27782,2.8591,-1,5
94,0.28064,2.8518,-1,5
95,0.28345,2.8453,-1,5
96,0.28627,2.8388,-1,5
97,0.28907,2.8322,-1,5
98,0.29187,2.8259,-1,5
99,0.29466,2.82,-1,5
100,0.29745,2.8137,-1,5
101,0.30023,2.8082,-1,5
102,0.30301,2.8022,-1,5
103,0.30578,2.796,-1,5
104,0.30854,2.7901,-1,5
105,0.31129,2.7841,-1,5
106,0.31405,2.7779,-1,5
107,0.31952,2.7709,-1,5
108,0.32225,2.7641,-1,5
109,0.32225,2.7571,-1,5
110,0.32769,2.75,-1,5
111,0.32769,2.7428,-1,5
112,0.33311,2.7359,-1,5
113,0.33311,2.7288,-1,5
114,0.3385,2.7218,-1,5
115,0.34119,2.7151,-1,5
116,0.34387,2.7084,-1,5
117,0.34655,2.7027,-1,5
118,0.34922,2.6965,-1,5
119,0.35188,2.6905,-1,5
120,0.35455,2.6851,-1,5
121,0.3572,2.6793,-1,5
122,0.35985,2.6736,-1,5
123,0.36249,2.6682,-1,5
124,0.36513,2.6625,-1,5
125,0.36776,2.6566,-1,5
126,0.37038,2.6509,-1,5
127,0.373,2.6445,-1,5
128,0.37561,2.639,-1,5
129,0.38083,2.6329,-1,5
130,0.38342,2.6261,-1,5
131,0.38342,2.6202,-1,5
132,0.38861,2.6144,-1,5
133,0.38861,2.6086,-1,5
134,0.39378,2.6034,-1,5
135,0.39635,2.5978,-1,5
136,0.39893,2.5925,-1,5
137,0.4015,2.5889,-1,5
138,0.40407,2.5842,-1,5
139,0.40663,2.5802,-1,5
140,0.4092,2.5772,-1,5
141,0.41176,2.5739,-1,5
142,0.41432,2.5706,-1,5
143,0.41688,2.568,-1,5
144,0.41943,2.5653,-1,5
145,0.42198,2.5625,-1,5
146,0.42453,2.5604,-1,5
147,0.42708,2.558,-1,5
148,0.42963,2.5557,-1,5
149,0.43217,2.5533,-1,5
150,0.43471,2.5512,-1,5
151,0.43725,2.549,-1,5
152,0.43978,2.547,-1,5
153,0.44232,2.545,-1,5
154,0.44486,2.543,-1,5
155,0.44739,2.5415,-1,5
156,0.44993,2.5399,-1,5
157,0.45246,2.5382,-1,5
158,0.455,2.5371,-1,5
159,0.45753,2.5366,-1,5
160,0.46007,2.5355,-1,5
161,0.4626,2.535,-1,5
162,0.46513,2.5348,-1,5
163,0.46767,2.5341,-1,5
164,0.4702,2.5336,-1,5
165,0.47273,2.5341,-1,5
166,0.47527,2.534,-1,5
167,0.4778,2.5334,-1,5
168,0.48033,2.5331,-1,5
169,0.48286,2.5329,-1,5
170,0.48539,2.5327,-1,5
171,0.48792,2.5322,-1,5
172,0.49045,2.5319,-1,5
173,0.49298,2.5319,-1,5
174,0.49552,2.532,-1,5
175,0.49805,2.5317,-1,5
176,0.50059,2.532,-1,5
177,0.50313,2.5333,-1,5
178,0.50567,2.5346,-1,5
179,0.50822,2.5357,-1,5
180,0.51077,2.538,-1,5
181,0.51333,2.5407,-1,5
182,0.51588,2.5428,-1,5
183,0.51844,2.5461,-1,5
184,0.52101,2.5498,-1,5
185,0.52358,2.5533,-1,5
186,0.52615,2.5566,-1,5
187,0.53132,2.5609,-1,5
188,0.53391,2.5653,-1,5
189,0.5365,2.5701,-1,5
190,0.53909,2.5743,-1,5
191,0.54169,2.5785,-1,5
192,0.54429,2.5834,-1,5
193,0.5469,2.5876,-1,5
194,0.54951,2.5917,-1,5
195,0.55213,2.596,-1,5
196,0.55474,2.6006,-1,5
197,0.55736,2.6044,-1,5
198,0.55999,2.6082,-1,5
199,0.56261,2.6113,-1,5
200,0.56524,2.6149,-1,5
201,0.56788,2.6185,-1,5
202,0.57051,2.6219,-1,5
203,0.57315,2.6246,-1,5
204,0.57579,2.6278,-1,5
205,0.57844,2.6311,-1,5
206,0.58108,2.6339,-1,5
207,0.58373,2.6366,-1,5
208,0.58638,2.6393,-1,5
209,0.58904,2.6426,-1,5
210,0.5917,2.6457,-1,5
211,0.59436,2.6485,-1,5
212,0.59969,2.6515,-1,5
213,0.59969,2.6551,-1,5
214,0.60236,2.6588,-1,5
215,0.60504,2.6621,-1,5
216,0.6104,2.6655,-1,5
217,0.61309,2.6695,-1,5
218,0.61579,2.6738,-1,5
219,0.61848,2.6776,-1,5
220,0.62118,2.6813,-1,5
221,0.62389,2.6858,-1,5
222,0.6266,2.6903,-1,5
223,0.62931,2.6949,-1,5
224,0.63204,2.6993,-1,5
225,0.63476,2.7036,-1,5
226,0.63749,2.7086,-1,5
227,0.64022,2.7133,-1,5
228,0.64296,2.7178,-1,5
229,0.64571,2.7228,-1,5
230,0.64846,2.7277,-1,5
231,0.65121,2.7325,-1,5
232,0.65398,2.7379,-1,5
233,0.65674,2.743,-1,5
234,0.65952,2.7479,-1,5
235,0.6623,2.7538,-1,5
236,0.66508,2.7597,-1,5
237,0.66788,2.7651,-1,5
238,0.67068,2.7712,-1,5
239,0.67348,2.7771,-1,5
240,0.67629,2.7834,-1,5
241,0.67911,2.7898,-1,5
242,0.68194,2.796,-1,5
243,0.68477,2.8022,-1,5
244,0.68761,2.8088,-1,5
245,0.69045,2.8154,-1,5
246,0.69331,2.8224,-1,5
247,0.69617,2.8291,-1,5
248,0.69903,2.8354,-1,5
249,0.70191,2.8428,-1,5
250,0.70479,2.8496,-1,5
251,0.70768,2.857,-1,5
252,0.71058,2.8639,-1,5
253,0.71348,2.8713,-1,5
254,0.71639,2.8788,-1,5
255,0.71932,2.8867,-1,5
256,0.72225,2.8938,-1,5
257,0.72519,2.9019,-1,5
258,0.72813,2.9101,-1,5
259,0.73109,2.9181,-1,5
260,0.73405,2.9264,-1,5
261,0.73703,2.9346,-1,5
262,0.74001,2.9431,-1,5
263,0.743,2.9515,-1,5
264,0.746,2.9602,-1,5
265,0.749,2.9684,-1,5
266,0.75201,2.9766,-1,5
267,0.75504,2.9852,-1,5
268,0.75807,2.994,-1,5
269,0.76111,3.002,-1,5
270,0.76416,3.011,-1,5
271,0.76722,3.0193,-1,5
272,0.77029,3.0289,-1,5
273,0.77337,3.0379,-1,5
274,0.77645,3.0472,-1,5
275,0.78265,3.0566,-1,5
276,0.78576,3.0668,-1,5
277,0.78888,3.0766,-1,5
278,0.79201,3.0863,-1,5
279,0.79515,3.0965,-1,5
280,0.7983,3.106,-1,5
281,0.80145,3.1157,-1,5
282,0.80463,3.125,-1,5
283,0.8078,3.1348,-1,5
284,0.81099,3.1442,-1,5
285,0.81418,3.153,-1,5
286,0.81738,3.162,-1,5
287,0.82059,3.1711,-1,5
288,0.82381,3.1797,-1,5
289,0.82704,3.1883,-1,5
290,0.83027,3.197,-1,5
291,0.83351,3.2057,-1,5
292,0.84002,3.2145,-1,5
293,0.84002,3.2235,-1,5
294,0.84329,3.2316,-1,5
295,0.84656,3.2394,-1,5
296,0.84984,3.2472,-1,5
297,0.85312,3.2546,-1,5
298,0.85971,3.2627,-1,5
299,0.86301,3.2704,-1,5
300,0.86633,3.2783,-1,5
301,0.86965,3.2862,-1,5
302,0.87297,3.2926,-1,5
303,0.8763,3.2986,-1,5
304,0.87963,3.3052,-1,5
305,0.88297,3.3124,-1,5
306,0.88632,3.3189,-1,5
307,0.88966,3.325,-1,5
308,0.89301,3.3302,-1,5
309,0.89637,3.3356,-1,5
310,0.89973,3.3404,-1,5
311,0.9031,3.3447,-1,5
312,0.90646,3.3493,-1,5
313,0.90983,3.3535,-1,5
314,0.9132,3.3572,-1,5
315,0.91658,3.3607,-1,5
316,0.91996,3.364,-1,5
317,0.92333,3.367,-1,5
318,0.92671,3.3696,-1,5
319,0.93009,3.3721,-1,5
320,0.93348,3.3746,-1,5
321,0.93687,3.377,-1,5
322,0.94025,3.3785,-1,5
323,0.94364,3.3805,-1,5
324,0.94703,3.3826,-1,5
325,0.95042,3.3842,-1,5
326,0.95381,3.3852,-1,5
327,0.95719,3.386,-1,5
328,0.96058,3.3872,-1,5
329,0.96397,3.3881,-1,5
330,0.96736,3.3885,-1,5
331,0.97075,3.3885,-1,5
332,0.97414,3.389,-1,5
333,0.97753,3.3893,-1,5
334,0.98092,3.3892,-1,5
335,0.98432,3.3895,-1,5
336,0.9877,3.3893,-1,5
337,0.99109,3.3896,-1,5
338,0.99448,3.39,-1,5
339,0.99788,3.3903,-1,5
340,1.00127,3.3905,-1,5
341,1.00466,3.3905,-1,5
342,1.00805,3.3913,-1,5
343,1.01145,3.3917,-1,5
344,1.01484,3.392,-1,5
345,1.01823,3.3919,-1,5
346,1.02163,3.3929,-1,5
347,1.02503,3.3934,-1,5
348,1.02842,3.3937,-1,5
349,1.03182,3.3941,-1,5
350,1.03521,3.3944,-1,5
351,1.03861,3.3953,-1,5
352,1.04201,3.3956,-1,5
353,1.0454,3.3958,-1,5
354,1.0488,3.396,-1,5
355,1.0522,3.3963,-1,5
356,1.0556,3.3964,-1,5
357,1.05899,3.3968,-1,5
358,1.06239,3.397,-1,5
359,1.06579,3.397,-1,5
360,1.06918,3.3971,-1,5
361,1.07258,3.3971,-1,5
362,1.07598,3.3971,-1,5
363,1.08278,3.3971,-1,5
364,1.08618,3.3976,-1,5
365,1.08958,3.398,-1,5
366,1.09298,3.3982,-1,5
367,1.09638,3.3982,-1,5
368,1.09978,3.3987,-1,5
369,1.10318,3.3991,-1,5
370,1.10658,3.3995,-1,5
371,1.10998,3.3999,-1,5
372,1.11338,3.3999,-1,5
373,1.11678,3.4004,-1,5
374,1.12018,3.4005,-1,5
375,1.12358,3.4005,-1,5
376,1.12698,3.4002,-1,5
377,1.13038,3.4001,-1,5
378,1.13378,3.3998,-1,5
379,1.13718,3.3995,-1,5
380,1.14057,3.3992,-1,5
381,1.14397,3.3987,-1,5
382,1.14736,3.3982,-1,5
383,1.15076,3.3977,-1,5
384,1.15415,3.3971,-1,5
385,1.15755,3.3963,-1,5
386,1.16093,3.3954,-1,5
387,1.16433,3.3949,-1,5
388,1.16771,3.3937,-1,5
389,1.1711,3.3927,-1,5
390,1.17448,3.3913,-1,5
391,1.18125,3.3899,-1,5
392,1.18462,3.3883,-1,5
393,1.188,3.3861,-1,5
394,1.19137,3.3836,-1,5
395,1.19474,3.3815,-1,5
396,1.19811,3.3795,-1,5
397,1.20147,3.3768,-1,5
398,1.20483,3.3741,-1,5
399,1.20819,3.3711,-1,5
400,1.21155,3.3685,-1,5
401,1.2149,3.3656,-1,5
402,1.21825,3.3628,-1,5
403,1.2216,3.3602,-1,5
404,1.22495,3.3577,-1,5
405,1.22829,3.3554,-1,5
406,1.23164,3.3527,-1,5
407,1.23497,3.3502,-1,5
408,1.23831,3.3481,-1,5
409,1.24165,3.3461,-1,5
410,1.24499,3.3441,-1,5
411,1.24832,3.3421,-1,5
412,1.25165,3.3402,-1,5
413,1.25498,3.3384,-1,5
414,1.25832,3.337,-1,5
415,1.26165,3.3351,-1,5
416,1.26498,3.334,-1,5
417,1.2683,3.3326,-1,5
418,1.27163,3.3313,-1,5
419,1.27496,3.3304,-1,5
420,1.27829,3.3294,-1,5
421,1.28161,3.3286,-1,5
422,1.28494,3.3283,-1,5
423,1.28827,3.3282,-1,5
424,1.2916,3.3284,-1,5
425,1.29493,3.3285,-1,5
426,1.29826,3.3285,-1,5
427,1.3016,3.3295,-1,5
428,1.30494,3.3309,-1,5
429,1.30828,3.3317,-1,5
430,1.31161,3.3327,-1,5
431,1.31496,3.3345,-1,5
432,1.3183,3.336,-1,5
433,1.32165,3.3381,-1,5
434,1.325,3.3398,-1,5
435,1.32835,3.342,-1,5
436,1.33171,3.3445,-1,5
437,1.33506,3.3467,-1,5
438,1.33843,3.349,-1,5
439,1.34179,3.3515,-1,5
440,1.34516,3.3544,-1,5
441,1.34853,3.3574,-1,5
442,1.35191,3.3607,-1,5
443,1.35529,3.3637,-1,5
444,1.36206,3.3673,-1,5
445,1.36545,3.3713,-1,5
446,1.36545,3.375,-1,5
447,1.36885,3.3792,-1,5
448,1.37225,3.3833,-1,5
449,1.37566,3.3876,-1,5
450,1.37907,3.392,-1,5
451,1.38591,3.3972,-1,5
452,1.38934,3.4023,-1,5
453,1.39277,3.4075,-1,5
454,1.3962,3.412,-1,5
455,1.39965,3.4174,-1,5
456,1.4031,3.423,-1,5
457,1.40655,3.4286,-1,5
458,1.41001,3.4335,-1,5
459,1.41347,3.4392,-1,5
460,1.41694,3.4451,-1,5
461,1.42041,3.4502,-1,5
462,1.42389,3.4556,-1,5
463,1.42738,3.4609,-1,5
464,1.43087,3.4669,-1,5
465,1.43437,3.4722,-1,5
466,1.43788,3.478,-1,5
467,1.44138,3.4833,-1,5
468,1.4449,3.4898,-1,5
469,1.44843,3.4958,-1,5
470,1.45196,3.502,-1,5
471,1.45549,3.508,-1,5
472,1.45903,3.514,-1,5
473,1.46258,3.5204,-1,5
474,1.46614,3.527,-1,5
475,1.4697,3.5337,-1,5
476,1.47326,3.5401,-1,5
477,1.47683,3.5462,-1,5
478,1.48399,3.5529,-1,5
479,1.48759,3.5597,-1,5
480,1.48759,3.5659,-1,5
481,1.49478,3.5723,-1,5
482,1.49839,3.5791,-1,5
483,1.502,3.5858,-1,5
484,1.50562,3.592,-1,5
485,1.50925,3.5981,-1,5
486,1.51289,3.6048,-1,5
487,1.51653,3.6118,-1,5
488,1.52017,3.6179,-1,5
489,1.52383,3.624,-1,5
490,1.52749,3.631,-1,5
491,1.53116,3.6377,-1,5
492,1.53483,3.644,-1,5
493,1.53851,3.6504,-1,5
494,1.54219,3.657,-1,5
495,1.54589,3.6637,-1,5
496,1.54959,3.6703,-1,5
497,1.55329,3.6765,-1,5
498,1.55701,3.6833,-1,5
499,1.56073,3.6903,-1,5
500,1.56446,3.6967,-1,5
501,1.56819,3.7034,-1,5
502,1.57193,3.7103,-1,5
503,1.57568,3.7174,-1,5
504,1.57944,3.7246,-1,5
505,1.5832,3.7316,-1,5
506,1.58697,3.7382,-1,5
507,1.59075,3.7461,-1,5
508,1.59454,3.7534,-1,5
509,1.59833,3.7606,-1,5
510,1.60213,3.7678,-1,5
511,1.60594,3.7753,-1,5
512,1.60976,3.7825,-1,5
513,1.61358,3.7895,-1,5
514,1.6174,3.7965,-1,5
515,1.62124,3.8036,-1,5
516,1.62508,3.8108,-1,5
517,1.62893,3.8175,-1,5
518,1.63278,3.8244,-1,5
519,1.63664,3.831,-1,5
520,1.64051,3.8379,-1,5
521,1.64438,3.8444,-1,5
522,1.64826,3.8511,-1,5
523,1.65215,3.8578,-1,5
524,1.65605,3.8645,-1,5
525,1.65995,3.8711,-1,5
526,1.66386,3.8777,-1,5
527,1.66777,3.8842,-1,5
528,1.67169,3.8905,-1,5
529,1.67561,3.8969,-1,5
530,1.67954,3.9031,-1,5
531,1.68348,3.9092,-1,5
532,1.68742,3.9152,-1,5
533,1.69136,3.9211,-1,5
534,1.69531,3.9266,-1,5
535,1.69927,3.932,-1,5
536,1.70322,3.9368,-1,5
537,1.70719,3.942,-1,5
538,1.71116,3.9469,-1,5
539,1.71513,3.9517,-1,5
540,1.7191,3.9563,-1,5
541,1.72308,3.9605,-1,5
542,1.72706,3.9646,-1,5
543,1.73105,3.9687,-1,5
544,1.73504,3.9727,-1,5
545,1.73903,3.9767,-1,5
546,1.74303,3.9804,-1,5
547,1.74702,3.9837,-1,5
548,1.75102,3.9867,-1,5
549,1.75503,3.9901,-1,5
550,1.75903,3.9926,-1,5
551,1.76304,3.9954,-1,5
552,1.76704,3.9979,-1,5
553,1.77105,4.0001,-1,5
554,1.77506,4.0019,-1,5
555,1.77907,4.0034,-1,5
556,1.78308,4.0052,-1,5
557,1.78709,4.0068,-1,5
558,1.79111,4.0086,-1,5
559,1.79513,4.0098,-1,5
560,1.79914,4.0114,-1,5
561,1.80316,4.0126,-1,5
562,1.80718,4.014,-1,5
563,1.8112,4.0149,-1,5
564,1.81522,4.0164,-1,5
565,1.81924,4.0171,-1,5
566,1.82326,4.018,-1,5
567,1.82728,4.0187,-1,5
568,1.8313,4.0195,-1,5
569,1.83532,4.0197,-1,5
570,1.83934,4.0197,-1,5
571,1.84336,4.0201,-1,5
572,1.84738,4.0199,-1,5
573,1.8514,4.0204,-1,5
574,1.85542,4.0198,-1,5
575,1.85944,4.02,-1,5
576,1.86346,4.0197,-1,5
577,1.86748,4.0196,-1,5
578,1.8715,4.0191,-1,5
579,1.87551,4.0184,-1,5
580,1.87952,4.0179,-1,5
581,1.88353,4.0166,-1,5
582,1.88754,4.0164,-1,5
583,1.89155,4.0151,-1,5
584,1.89556,4.014,-1,5
585,1.89956,4.0119,-1,5
586,1.90356,4.0107,-1,5
587,1.90756,4.0087,-1,5
588,1.91156,4.0069,-1,5
589,1.91555,4.0047,-1,5
590,1.91954,4.0025,-1,5
591,1.92353,4.0004,-1,5
592,1.92752,3.9976,-1,5
593,1.9315,3.9948,-1,5
594,1.93548,3.9921,-1,5
595,1.93946,3.9898,-1,5
596,1.94343,3.9867,-1,5
597,1.9474,3.9837,-1,5
598,1.95137,3.9805,-1,5
599,1.95533,3.9771,-1,5
600,1.95928,3.9734,-1,5
601,1.96323,3.97,-1,5
602,1.96718,3.9662,-1,5
603,1.97113,3.9623,-1,5
604,1.97506,3.9579,-1,5
605,1.97899,3.9531,-1,5
606,1.98291,3.9481,-1,5
607,1.98683,3.943,-1,5
608,1.99075,3.9376,-1,5
609,1.99465,3.9326,-1,5
610,1.99855,3.9271,-1,5
611,2.00244,3.9212,-1,5
612,2.00633,3.9147,-1,5
613,2.01021,3.9085,-1,5
614,2.01408,3.9021,-1,5
615,2.01795,3.8957,-1,5
616,2.0218,3.8892,-1,5
617,2.02565,3.8825,-1,5
618,2.0295,3.8755,-1,5
619,2.03333,3.8678,-1,5
620,2.03715,3.8604,-1,5
621,2.04097,3.8525,-1,5
622,2.04478,3.845,-1,5
623,2.04858,3.837,-1,5
624,2.05237,3.8291,-1,5
625,2.05615,3.8207,-1,5
626,2.05993,3.8123,-1,5
627,2.06369,3.8036,-1,5
628,2.06745,3.7948,-1,5
629,2.0712,3.7866,-1,5
630,2.07494,3.7782,-1,5
631,2.07867,3.77,-1,5
632,2.0824,3.7616,-1,5
633,2.08611,3.7529,-1,5
634,2.08981,3.7439,-1,5
635,2.09351,3.7361,-1,5
636,2.0972,3.7278,-1,5
637,2.10088,3.7191,-1,5
638,2.10455,3.7104,-1,5
639,2.10821,3.7019,-1,5
640,2.11187,3.6932,-1,5
641,2.11551,3.6844,-1,5
642,2.11914,3.6751,-1,5
643,2.12277,3.6663,-1,5
644,2.12639,3.6578,-1,5
645,2.13,3.6486,-1,5
646,2.1336,3.6394,-1,5
647,2.13719,3.6306,-1,5
648,2.14077,3.6218,-1,5
649,2.14434,3.6128,-1,5
650,2.14791,3.6038,-1,5
651,2.15146,3.5946,-1,5
652,2.15501,3.586,-1,5
653,2.15854,3.577,-1,5
654,2.16207,3.5681,-1,5
655,2.16559,3.5589,-1,5
656,2.1691,3.5499,-1,5
657,2.1726,3.5409,-1,5
658,2.17609,3.5317,-1,5
659,2.17957,3.5224,-1,5
660,2.18304,3.5132,-1,5
661,2.1865,3.504,-1,5
662,2.18995,3.4947,-1,5
663,2.19339,3.4852,-1,5
664,2.19683,3.4758,-1,5
665,2.20025,3.4662,-1,5
666,2.20366,3.4569,-1,5
667,2.20707,3.4475,-1,5
668,2.21047,3.4379,-1,5
669,2.21385,3.4286,-1,5
670,2.21723,3.4196,-1,5
671,2.2206,3.4103,-1,5
672,2.22396,3.4009,-1,5
673,2.22731,3.3917,-1,5
674,2.23065,3.3824,-1,5
675,2.23399,3.3739,-1,5
676,2.23731,3.3648,-1,5
677,2.24063,3.3557,-1,5
678,2.24393,3.3466,-1,5
679,2.24723,3.3376,-1,5
680,2.25052,3.3284,-1,5
681,2.2538,3.3198,-1,5
682,2.25707,3.3107,-1,5
683,2.26033,3.3016,-1,5
684,2.26358,3.2928,-1,5
685,2.26682,3.2836,-1,5
686,2.27006,3.2748,-1,5
687,2.27329,3.2659,-1,5
688,2.2765,3.2573,-1,5
689,2.27971,3.2485,-1,5
690,2.28292,3.24,-1,5
691,2.28611,3.2309,-1,5
692,2.28929,3.2224,-1,5
693,2.29247,3.2138,-1,5
694,2.29564,3.2056,-1,5
695,2.29879,3.1969,-1,5
696,2.30195,3.1883,-1,5
697,2.30508,3.1796,-1,5
698,2.30821,3.1708,-1,5
699,2.31134,3.1625,-1,5
700,2.31445,3.1534,-1,5
701,2.31755,3.1444,-1,5
702,2.32064,3.1351,-1,5
703,2.32373,3.1264,-1,5
704,2.32681,3.1171,-1,5
705,2.32987,3.108,-1,5
706,2.33293,3.0982,-1,5
707,2.33597,3.0888,-1,5
708,2.33901,3.0795,-1,5
709,2.34204,3.0696,-1,5
710,2.34505,3.0597,-1,5
711,2.34806,3.0503,-1,5
712,2.35106,3.0409,-1,5
713,2.35404,3.0303,-1,5
714,2.35702,3.0205,-1,5
715,2.35999,3.0109,-1,5
716,2.36294,3.0012,-1,5
717,2.36883,2.9908,-1,5
718,2.37176,2.9801,-1,5
719,2.37469,2.9697,-1,5
720,2.3776,2.9594,-1,5
721,2.3805,2.949,-1,5
722,2.3834,2.9389,-1,5
723,2.38629,2.93,-1,5
724,2.38917,2.9201,-1,5
725,2.39204,2.9102,-1,5
726,2.3949,2.9006,-1,5
727,2.39776,2.8926,-1,5
728,2.40061,2.8848,-1,5
729,2.40345,2.8765,-1,5
730,2.40629,2.8691,-1,5
731,2.40912,2.8616,-1,5
732,2.41194,2.8543,-1,5
733,2.41475,2.8469,-1,5
734,2.41756,2.8398,-1,5
735,2.42037,2.8332,-1,5
736,2.42317,2.8273,-1,5
737,2.42597,2.8208,-1,5
738,2.43154,2.814,-1,5
739,2.43432,2.808,-1,5
740,2.4371,2.8022,-1,5
741,2.43987,2.7967,-1,5
742,2.44264,2.7914,-1,5
743,2.44541,2.7864,-1,5
744,2.44817,2.7814,-1,5
745,2.45093,2.7772,-1,5
746,2.45369,2.773,-1,5
747,2.45644,2.7687,-1,5
748,2.4592,2.7654,-1,5
749,2.46195,2.7625,-1,5
750,2.4647,2.7595,-1,5
751,2.46744,2.7568,-1,5
752,2.47019,2.7543,-1,5
753,2.47293,2.7517,-1,5
754,2.47567,2.75,-1,5
755,2.47841,2.7478,-1,5
756,2.48115,2.746,-1,5
757,2.48389,2.7446,-1,5
758,2.48663,2.7433,-1,5
759,2.48937,2.7422,-1,5
760,2.49211,2.7414,-1,5
761,2.49485,2.7406,-1,5
762,2.49759,2.7404,-1,5
763,2.50033,2.7407,-1,5
764,2.50308,2.7407,-1,5
765,2.50582,2.7409,-1,5
766,2.50857,2.7415,-1,5
767,2.51132,2.7424,-1,5
768,2.51407,2.7437,-1,5
769,2.51682,2.7449,-1,5
770,2.51957,2.7459,-1,5
771,2.52232,2.7476,-1,5
772,2.52508,2.7489,-1,5
773,2.52784,2.7506,-1,5
774,2.53061,2.7528,-1,5
775,2.53337,2.755,-1,5
776,2.53614,2.7571,-1,5
777,2.53891,2.7595,-1,5
778,2.54168,2.7619,-1,5
779,2.54447,2.7647,-1,5
780,2.54725,2.7679,-1,5
781,2.55003,2.771,-1,5
782,2.55282,2.7741,-1,5
783,2.55562,2.7778,-1,5
784,2.55842,2.7817,-1,5
785,2.56123,2.7858,-1,5
786,2.56404,2.7904,-1,5
787,2.56686,2.7946,-1,5
788,2.56968,2.7994,-1,5
789,2.57251,2.8046,-1,5
790,2.57535,2.8102,-1,5
791,2.57819,2.8159,-1,5
792,2.58104,2.8218,-1,5
793,2.5839,2.8277,-1,5
794,2.58676,2.8343,-1,5
795,2.58963,2.8407,-1,5
796,2.59251,2.8472,-1,5
797,2.5954,2.8544,-1,5
798,2.59829,2.8616,-1,5
799,2.6041,2.8695,-1,5
800,2.60702,2.8773,-1,5
801,2.60994,2.8856,-1,5
802,2.61288,2.8946,-1,5
803,2.61582,2.9031,-1,5
804,2.61878,2.9115,-1,5
805,2.62174,2.9205,-1,5
806,2.62471,2.9297,-1,5
807,2.62768,2.9386,-1,5
808,2.63067,2.9481,-1,5
809,2.63367,2.9566,-1,5
810,2.63667,2.9652,-1,5
811,2.63968,2.9739,-1,5
812,2.64271,2.9828,-1,5
813,2.64574,2.9914,-1,5
814,2.64877,2.9998,-1,5
815,2.65182,3.0085,-1,5
816,2.65488,3.0171,-1,5
817,2.65794,3.0262,-1,5
818,2.66101,3.0342,-1,5
819,2.66409,3.0425,-1,5
820,2.66718,3.0508,-1,5
821,2.67028,3.0594,-1,5
822,2.67338,3.0673,-1,5
823,2.67649,3.0755,-1,5
824,2.67961,3.0844,-1,5
825,2.68274,3.0924,-1,5
826,2.68587,3.101,-1,5
827,2.68901,3.1087,-1,5
828,2.69216,3.1169,-1,5
829,2.69531,3.1241,-1,5
830,2.70165,3.1326,-1,5
831,2.70483,3.1406,-1,5
832,2.70801,3.1484,-1,5
833,2.7112,3.1567,-1,5
834,2.7144,3.1639,-1,5
835,2.71761,3.1723,-1,5
836,2.72083,3.1796,-1,5
837,2.72405,3.1871,-1,5
838,2.72728,3.1951,-1,5
839,2.73052,3.2039,-1,5
840,2.73376,3.2115,-1,5
841,2.73702,3.2189,-1,5
842,2.74027,3.2264,-1,5
