cnt,pos,speed,Dir,Force,
1,0,2.3525,-1,5
2,0.00229001,2.3405,-1,5
3,0.00455999,2.3292,-1,5
4,0.00681996,2.3165,-1,5
5,0.00905991,2.3036,-1,5
6,0.0112901,2.2903,-1,5
7,0.01351,2.2768,-1,5
8,0.0157099,2.2636,-1,5
9,0.0179,2.2509,-1,5
10,0.0200799,2.2381,-1,5
11,0.0222399,2.2246,-1,5
12,0.0244,2.211,-1,5
13,0.02653,2.1976,-1,5
14,0.0286701,2.1852,-1,5
15,0.0307798,2.1726,-1,5
16,0.0328898,2.1598,-1,5
17,0.03497,2.147,-1,5
18,0.03706,2.1349,-1,5
19,0.03914,2.1233,-1,5
20,0.0411899,2.1114,-1,5
21,0.0432401,2.0994,-1,5
22,0.04528,2.0879,-1,5
23,0.0473099,2.0773,-1,5
24,0.04933,2.0663,-1,5
25,0.0513399,2.0551,-1,5
26,0.0533299,2.0443,-1,5
27,0.05532,2.0349,-1,5
28,0.0573099,2.0252,-1,5
29,0.0592799,2.0145,-1,5
30,0.06124,2.0047,-1,5
31,0.0632,1.9956,-1,5
32,0.06515,1.9872,-1,5
33,0.06709,1.978,-1,5
34,0.06902,1.969,-1,5
35,0.07095,1.9609,-1,5
36,0.07286,1.9533,-1,5
37,0.07478,1.9453,-1,5
38,0.07669,1.9377,-1,5
39,0.0785799,1.9304,-1,5
40,0.0804698,1.923,-1,5
41,0.08235,1.9159,-1,5
42,0.08424,1.9091,-1,5
43,0.08799,1.9013,-1,5
44,0.0898399,1.8936,-1,5
45,0.0917099,1.8872,-1,5
46,0.09357,1.8823,-1,5
47,0.0954299,1.876,-1,5
48,0.09726,1.8682,-1,5
49,0.0990899,1.8622,-1,5
50,0.10094,1.8581,-1,5
51,0.10278,1.8539,-1,5
52,0.1046,1.8476,-1,5
53,0.10641,1.8423,-1,5
54,0.10823,1.839,-1,5
55,0.11006,1.8353,-1,5
56,0.11187,1.8296,-1,5
57,0.11367,1.8242,-1,5
58,0.11546,1.8206,-1,5
59,0.11727,1.8177,-1,5
60,0.11907,1.8128,-1,5
61,0.12086,1.8074,-1,5
62,0.12264,1.8035,-1,5
63,0.12443,1.8012,-1,5
64,0.12621,1.7972,-1,5
65,0.12798,1.7922,-1,5
66,0.12975,1.7876,-1,5
67,0.13152,1.7851,-1,5
68,0.13329,1.7824,-1,5
69,0.13504,1.777,-1,5
70,0.13679,1.7722,-1,5
71,0.13854,1.7685,-1,5
72,0.1403,1.7659,-1,5
73,0.14205,1.7621,-1,5
74,0.14377,1.7566,-1,5
75,0.1455,1.7525,-1,5
76,0.14723,1.7493,-1,5
77,0.14897,1.7458,-1,5
78,0.15069,1.7409,-1,5
79,0.15239,1.7355,-1,5
80,0.15409,1.7307,-1,5
81,0.1558,1.7272,-1,5
82,0.15751,1.7225,-1,5
83,0.1592,1.7166,-1,5
84,0.16088,1.712,-1,5
85,0.16256,1.7076,-1,5
86,0.16593,1.7021,-1,5
87,0.16759,1.6943,-1,5
88,0.16925,1.6881,-1,5
89,0.17091,1.6844,-1,5
90,0.17257,1.6801,-1,5
91,0.17422,1.6733,-1,5
92,0.17585,1.6659,-1,5
93,0.17749,1.6608,-1,5
94,0.17914,1.6573,-1,5
95,0.18077,1.6515,-1,5
96,0.18238,1.6452,-1,5
97,0.184,1.6406,-1,5
98,0.18562,1.6366,-1,5
99,0.18724,1.6327,-1,5
100,0.18885,1.6281,-1,5
101,0.19044,1.6224,-1,5
102,0.19203,1.618,-1,5
103,0.19363,1.6142,-1,5
104,0.19523,1.6096,-1,5
105,0.19682,1.6054,-1,5
106,0.19839,1.601,-1,5
107,0.19996,1.5965,-1,5
108,0.20155,1.5932,-1,5
109,0.20313,1.5891,-1,5
110,0.2047,1.5844,-1,5
111,0.20625,1.5808,-1,5
112,0.20781,1.5777,-1,5
113,0.20938,1.5742,-1,5
114,0.21094,1.5708,-1,5
115,0.21249,1.5669,-1,5
116,0.21403,1.5634,-1,5
117,0.21558,1.5624,-1,5
118,0.21714,1.5598,-1,5
119,0.21869,1.5564,-1,5
120,0.22022,1.5532,-1,5
121,0.22174,1.5503,-1,5
122,0.22328,1.5481,-1,5
123,0.22483,1.5465,-1,5
124,0.2279,1.5419,-1,5
125,0.22941,1.5384,-1,5
126,0.23094,1.538,-1,5
127,0.23249,1.5364,-1,5
128,0.23403,1.5344,-1,5
129,0.23555,1.5317,-1,5
130,0.23706,1.5296,-1,5
131,0.23858,1.5294,-1,5
132,0.24013,1.53,-1,5
133,0.24166,1.5288,-1,5
134,0.24319,1.5292,-1,5
135,0.2447,1.5288,-1,5
136,0.24622,1.5277,-1,5
137,0.24776,1.527,-1,5
138,0.2493,1.5275,-1,5
139,0.25083,1.5279,-1,5
140,0.25234,1.528,-1,5
141,0.25386,1.528,-1,5
142,0.2554,1.5276,-1,5
143,0.25695,1.5284,-1,5
144,0.25848,1.5292,-1,5
145,0.26,1.53,-1,5
146,0.26152,1.53,-1,5
147,0.26307,1.5314,-1,5
148,0.26463,1.5325,-1,5
149,0.26617,1.5338,-1,5
150,0.26769,1.535,-1,5
151,0.26922,1.5356,-1,5
152,0.27077,1.5367,-1,5
153,0.27234,1.5388,-1,5
154,0.27389,1.5412,-1,5
155,0.27543,1.5426,-1,5
156,0.27852,1.5463,-1,5
157,0.28009,1.5488,-1,5
158,0.28166,1.5505,-1,5
159,0.28322,1.5518,-1,5
160,0.28476,1.5533,-1,5
161,0.28632,1.5567,-1,5
162,0.28791,1.5602,-1,5
163,0.28948,1.5614,-1,5
164,0.29104,1.5616,-1,5
165,0.29259,1.5632,-1,5
166,0.29416,1.5638,-1,5
167,0.29574,1.5653,-1,5
168,0.29734,1.5676,-1,5
169,0.29891,1.5694,-1,5
170,0.30047,1.5716,-1,5
171,0.30205,1.5736,-1,5
172,0.30366,1.5754,-1,5
173,0.30526,1.5781,-1,5
174,0.30685,1.581,-1,5
175,0.30843,1.5837,-1,5
176,0.31003,1.5874,-1,5
177,0.31165,1.591,-1,5
178,0.31328,1.5937,-1,5
179,0.31488,1.5971,-1,5
180,0.31648,1.6005,-1,5
181,0.3181,1.6042,-1,5
182,0.31975,1.6087,-1,5
183,0.32139,1.6125,-1,5
184,0.32301,1.6159,-1,5
185,0.32463,1.62,-1,5
186,0.32627,1.6238,-1,5
187,0.32793,1.6279,-1,5
188,0.3296,1.6323,-1,5
189,0.33124,1.6361,-1,5
190,0.33288,1.64,-1,5
191,0.33454,1.6441,-1,5
192,0.33622,1.6475,-1,5
193,0.3379,1.6514,-1,5
194,0.33957,1.6558,-1,5
195,0.34123,1.6597,-1,5
196,0.3429,1.6636,-1,5
197,0.3446,1.6669,-1,5
198,0.3463,1.6701,-1,5
199,0.34799,1.6745,-1,5
200,0.34967,1.6791,-1,5
201,0.35136,1.6847,-1,5
202,0.35308,1.6877,-1,5
203,0.3565,1.6895,-1,5
204,0.3582,1.6936,-1,5
205,0.35992,1.7,-1,5
206,0.36165,1.7053,-1,5
207,0.36338,1.7079,-1,5
208,0.3651,1.7099,-1,5
209,0.36683,1.7146,-1,5
210,0.36857,1.7206,-1,5
211,0.37031,1.7229,-1,5
212,0.37205,1.7255,-1,5
213,0.37379,1.7297,-1,5
214,0.37555,1.7347,-1,5
215,0.37731,1.7388,-1,5
216,0.37906,1.7405,-1,5
217,0.38081,1.7433,-1,5
218,0.38258,1.7488,-1,5
219,0.38436,1.7532,-1,5
220,0.38613,1.7562,-1,5
221,0.3879,1.7586,-1,5
222,0.38967,1.7624,-1,5
223,0.39147,1.7676,-1,5
224,0.39326,1.771,-1,5
225,0.39504,1.7734,-1,5
226,0.39683,1.777,-1,5
227,0.39863,1.7821,-1,5
228,0.40045,1.7861,-1,5
229,0.40225,1.7888,-1,5
230,0.40405,1.7917,-1,5
231,0.40586,1.7967,-1,5
232,0.40769,1.8017,-1,5
233,0.41134,1.8041,-1,5
234,0.41316,1.8074,-1,5
235,0.41316,1.8132,-1,5
236,0.415,1.8191,-1,5
237,0.41685,1.8233,-1,5
238,0.41869,1.8256,-1,5
239,0.42052,1.8288,-1,5
240,0.42238,1.8343,-1,5
241,0.42424,1.8397,-1,5
242,0.4261,1.8422,-1,5
243,0.42795,1.8467,-1,5
244,0.42982,1.8527,-1,5
245,0.43359,1.857,-1,5
246,0.43359,1.8598,-1,5
247,0.43546,1.8622,-1,5
248,0.43733,1.8664,-1,5
249,0.43923,1.8724,-1,5
250,0.44113,1.8772,-1,5
251,0.44303,1.8802,-1,5
252,0.44493,1.8844,-1,5
253,0.44683,1.8887,-1,5
254,0.44875,1.8921,-1,5
255,0.45067,1.8953,-1,5
256,0.45258,1.9,-1,5
257,0.45451,1.9052,-1,5
258,0.45644,1.9102,-1,5
259,0.45837,1.9137,-1,5
260,0.4603,1.9172,-1,5
261,0.46225,1.9221,-1,5
262,0.46419,1.927,-1,5
263,0.46614,1.9305,-1,5
264,0.46808,1.9338,-1,5
265,0.47005,1.9385,-1,5
266,0.47202,1.9433,-1,5
267,0.47397,1.9464,-1,5
268,0.47593,1.9493,-1,5
269,0.4779,1.9535,-1,5
270,0.47989,1.9583,-1,5
271,0.48186,1.9611,-1,5
272,0.48383,1.9635,-1,5
273,0.48581,1.9672,-1,5
274,0.4878,1.9717,-1,5
275,0.4898,1.975,-1,5
276,0.49178,1.9767,-1,5
277,0.49377,1.98,-1,5
278,0.49577,1.9841,-1,5
279,0.49778,1.9877,-1,5
280,0.49979,1.99,-1,5
281,0.50179,1.9925,-1,5
282,0.50379,1.9958,-1,5
283,0.5058,1.999,-1,5
284,0.50782,2.0019,-1,5
285,0.50984,2.0043,-1,5
286,0.51185,2.007,-1,5
287,0.51386,2.0092,-1,5
288,0.51589,2.0122,-1,5
289,0.51793,2.0153,-1,5
290,0.51996,2.017,-1,5
291,0.52198,2.0189,-1,5
292,0.524,2.0216,-1,5
293,0.52604,2.0246,-1,5
294,0.52809,2.027,-1,5
295,0.53013,2.0281,-1,5
296,0.53215,2.0299,-1,5
297,0.53419,2.0329,-1,5
298,0.53624,2.0352,-1,5
299,0.5383,2.0365,-1,5
300,0.54034,2.038,-1,5
301,0.54238,2.04,-1,5
302,0.54442,2.0421,-1,5
303,0.54648,2.0441,-1,5
304,0.54855,2.0453,-1,5
305,0.55059,2.0469,-1,5
306,0.55264,2.0487,-1,5
307,0.5547,2.0508,-1,5
308,0.55677,2.053,-1,5
309,0.55884,2.0542,-1,5
310,0.56089,2.0553,-1,5
311,0.56294,2.0567,-1,5
312,0.56502,2.0593,-1,5
313,0.5671,2.0612,-1,5
314,0.56916,2.0619,-1,5
315,0.57122,2.063,-1,5
316,0.57329,2.0651,-1,5
317,0.57538,2.0673,-1,5
318,0.57746,2.0682,-1,5
319,0.5816,2.0687,-1,5
320,0.5816,2.0718,-1,5
321,0.58368,2.0748,-1,5
322,0.58577,2.0766,-1,5
323,0.58786,2.0772,-1,5
324,0.59202,2.0782,-1,5
325,0.59411,2.0817,-1,5
326,0.59621,2.0848,-1,5
327,0.5983,2.0855,-1,5
328,0.60038,2.0854,-1,5
329,0.60247,2.0877,-1,5
330,0.60458,2.09,-1,5
331,0.60668,2.0916,-1,5
332,0.60877,2.0914,-1,5
333,0.61086,2.0918,-1,5
334,0.61296,2.0949,-1,5
335,0.61507,2.0961,-1,5
336,0.61717,2.0961,-1,5
337,0.61927,2.0968,-1,5
338,0.62137,2.0994,-1,5
339,0.62348,2.1012,-1,5
340,0.62559,2.1012,-1,5
341,0.62769,2.1014,-1,5
342,0.6298,2.103,-1,5
343,0.63191,2.1053,-1,5
344,0.63402,2.1057,-1,5
345,0.63613,2.106,-1,5
346,0.63824,2.1068,-1,5
347,0.64035,2.1083,-1,5
348,0.64247,2.1096,-1,5
349,0.64459,2.1102,-1,5
350,0.64669,2.1102,-1,5
351,0.6488,2.1113,-1,5
352,0.65093,2.1133,-1,5
353,0.65305,2.1141,-1,5
354,0.65516,2.114,-1,5
355,0.65727,2.1139,-1,5
356,0.6594,2.1159,-1,5
357,0.66152,2.1175,-1,5
358,0.66364,2.1166,-1,5
359,0.66575,2.116,-1,5
360,0.67,2.1184,-1,5
361,0.67,2.1191,-1,5
362,0.67212,2.1181,-1,5
363,0.67424,2.1176,-1,5
364,0.67848,2.1191,-1,5
365,0.68061,2.1205,-1,5
366,0.68273,2.1199,-1,5
367,0.68484,2.1187,-1,5
368,0.68696,2.1196,-1,5
369,0.68909,2.1211,-1,5
370,0.69121,2.1205,-1,5
371,0.69333,2.1201,-1,5
372,0.69544,2.1196,-1,5
373,0.69756,2.1205,-1,5
374,0.69969,2.1205,-1,5
375,0.7018,2.1197,-1,5
376,0.70391,2.1182,-1,5
377,0.70603,2.1185,-1,5
378,0.70815,2.1188,-1,5
379,0.71026,2.1176,-1,5
380,0.71237,2.116,-1,5
381,0.71448,2.1153,-1,5
382,0.71659,2.1158,-1,5
383,0.71871,2.1146,-1,5
384,0.72082,2.1128,-1,5
385,0.72291,2.1112,-1,5
386,0.72502,2.1112,-1,5
387,0.72713,2.1101,-1,5
388,0.72923,2.1082,-1,5
389,0.73132,2.1062,-1,5
390,0.73341,2.1042,-1,5
391,0.73551,2.1034,-1,5
392,0.73761,2.1016,-1,5
393,0.7397,2.0991,-1,5
394,0.74178,2.0961,-1,5
395,0.74386,2.0948,-1,5
396,0.74595,2.0936,-1,5
397,0.74804,2.0911,-1,5
398,0.75011,2.0877,-1,5
399,0.75218,2.0854,-1,5
400,0.75426,2.0851,-1,5
401,0.75634,2.0826,-1,5
402,0.7584,2.0794,-1,5
403,0.76046,2.0766,-1,5
404,0.76253,2.0759,-1,5
405,0.7646,2.0742,-1,5
406,0.76666,2.0704,-1,5
407,0.76872,2.0678,-1,5
408,0.77077,2.067,-1,5
409,0.7749,2.0658,-1,5
410,0.77695,2.0625,-1,5
411,0.77899,2.0594,-1,5
412,0.78104,2.0578,-1,5
413,0.78309,2.0572,-1,5
414,0.78515,2.0552,-1,5
415,0.78719,2.0523,-1,5
416,0.78922,2.0503,-1,5
417,0.79127,2.0495,-1,5
418,0.79332,2.048,-1,5
419,0.79535,2.046,-1,5
420,0.79738,2.0436,-1,5
421,0.79942,2.0425,-1,5
422,0.80146,2.0419,-1,5
423,0.8035,2.0402,-1,5
424,0.80552,2.0379,-1,5
425,0.80755,2.0364,-1,5
426,0.80958,2.036,-1,5
427,0.81161,2.0346,-1,5
428,0.81364,2.0326,-1,5
429,0.81566,2.0305,-1,5
430,0.81768,2.0295,-1,5
431,0.8197,2.0288,-1,5
432,0.82173,2.0268,-1,5
433,0.82375,2.0249,-1,5
434,0.82576,2.0234,-1,5
435,0.82777,2.0221,-1,5
436,0.82979,2.0208,-1,5
437,0.83181,2.0192,-1,5
438,0.83382,2.0176,-1,5
439,0.83582,2.0158,-1,5
440,0.83782,2.0148,-1,5
441,0.83984,2.0136,-1,5
442,0.84185,2.012,-1,5
443,0.84384,2.0099,-1,5
444,0.84584,2.0081,-1,5
445,0.84784,2.0075,-1,5
446,0.84985,2.0062,-1,5
447,0.85184,2.004,-1,5
448,0.85384,2.0022,-1,5
449,0.85583,2.0016,-1,5
450,0.85982,2.0001,-1,5
451,0.85982,1.9977,-1,5
452,0.86181,1.9959,-1,5
453,0.8638,1.995,-1,5
454,0.86579,1.9943,-1,5
455,0.86778,1.9926,-1,5
456,0.86976,1.9908,-1,5
457,0.87175,1.9896,-1,5
458,0.87373,1.9883,-1,5
459,0.87571,1.9871,-1,5
460,0.8777,1.9865,-1,5
461,0.87968,1.9857,-1,5
462,0.88165,1.9842,-1,5
463,0.88363,1.9827,-1,5
464,0.88561,1.9822,-1,5
465,0.88759,1.9817,-1,5
466,0.88957,1.9807,-1,5
467,0.89154,1.9791,-1,5
468,0.89351,1.9786,-1,5
469,0.8955,1.9788,-1,5
470,0.89748,1.9781,-1,5
471,0.89945,1.9771,-1,5
472,0.90142,1.9767,-1,5
473,0.9034,1.9775,-1,5
474,0.90539,1.9777,-1,5
475,0.90736,1.9768,-1,5
476,0.90934,1.9765,-1,5
477,0.91132,1.9776,-1,5
478,0.9133,1.9789,-1,5
479,0.91529,1.979,-1,5
480,0.91727,1.9791,-1,5
481,0.91925,1.9803,-1,5
482,0.92124,1.9828,-1,5
483,0.92323,1.9843,-1,5
484,0.92523,1.9854,-1,5
485,0.92921,1.9868,-1,5
486,0.92921,1.9893,-1,5
487,0.93121,1.9913,-1,5
488,0.93322,1.9939,-1,5
489,0.93723,1.9953,-1,5
490,0.93723,1.9975,-1,5
491,0.93923,2.0015,-1,5
492,0.94328,2.0048,-1,5
493,0.9453,2.0067,-1,5
494,0.94731,2.0086,-1,5
495,0.94935,2.0127,-1,5
496,0.95139,2.0174,-1,5
497,0.95343,2.0212,-1,5
498,0.95546,2.023,-1,5
499,0.9575,2.0273,-1,5
500,0.95955,2.0322,-1,5
501,0.96161,2.0358,-1,5
502,0.96367,2.0384,-1,5
503,0.96573,2.0428,-1,5
504,0.96779,2.0476,-1,5
505,0.96987,2.0523,-1,5
506,0.97195,2.056,-1,5
507,0.97403,2.0602,-1,5
508,0.97611,2.0646,-1,5
509,0.97819,2.0692,-1,5
510,0.9803,2.0746,-1,5
511,0.98241,2.0792,-1,5
512,0.9845,2.0832,-1,5
513,0.9866,2.0871,-1,5
514,0.98872,2.093,-1,5
515,0.99085,2.0984,-1,5
516,0.99297,2.1022,-1,5
517,0.99509,2.1061,-1,5
518,0.99722,2.1117,-1,5
519,0.99937,2.1178,-1,5
520,1.00152,2.1219,-1,5
521,1.00366,2.1257,-1,5
522,1.00581,2.1308,-1,5
523,1.00797,2.1372,-1,5
524,1.01014,2.1419,-1,5
525,1.01231,2.1456,-1,5
526,1.01447,2.1495,-1,5
527,1.01664,2.1546,-1,5
528,1.01882,2.1601,-1,5
529,1.02102,2.1644,-1,5
530,1.0232,2.1679,-1,5
531,1.02538,2.1716,-1,5
532,1.02758,2.177,-1,5
533,1.02979,2.1817,-1,5
534,1.03199,2.1853,-1,5
535,1.03419,2.1883,-1,5
536,1.0364,2.1933,-1,5
537,1.03862,2.1985,-1,5
538,1.04084,2.2022,-1,5
539,1.04306,2.2048,-1,5
540,1.04528,2.2087,-1,5
541,1.04751,2.2134,-1,5
542,1.04975,2.217,-1,5
543,1.05199,2.2199,-1,5
544,1.05422,2.2228,-1,5
545,1.05646,2.2266,-1,5
546,1.0587,2.2302,-1,5
547,1.06095,2.2332,-1,5
548,1.0632,2.2357,-1,5
549,1.06546,2.2392,-1,5
550,1.06771,2.2424,-1,5
551,1.06996,2.2452,-1,5
552,1.07222,2.2476,-1,5
553,1.07449,2.2506,-1,5
554,1.07676,2.2538,-1,5
555,1.07902,2.2566,-1,5
556,1.08129,2.2585,-1,5
557,1.08356,2.2613,-1,5
558,1.08584,2.2643,-1,5
559,1.08812,2.2664,-1,5
560,1.09039,2.2685,-1,5
561,1.09268,2.2715,-1,5
562,1.09496,2.2741,-1,5
563,1.09725,2.2757,-1,5
564,1.09953,2.2773,-1,5
565,1.10182,2.28,-1,5
566,1.10412,2.2831,-1,5
567,1.10641,2.2847,-1,5
568,1.1087,2.2861,-1,5
569,1.111,2.2882,-1,5
570,1.1133,2.2911,-1,5
571,1.11561,2.2932,-1,5
572,1.11791,2.2949,-1,5
573,1.12021,2.2968,-1,5
574,1.12253,2.2998,-1,5
575,1.12484,2.302,-1,5
576,1.12715,2.3036,-1,5
577,1.12947,2.3059,-1,5
578,1.13179,2.3088,-1,5
579,1.13411,2.3112,-1,5
580,1.13644,2.3134,-1,5
581,1.13876,2.3155,-1,5
582,1.1411,2.3187,-1,5
583,1.14343,2.3213,-1,5
584,1.14577,2.3241,-1,5
585,1.1481,2.3264,-1,5
586,1.15045,2.3297,-1,5
587,1.1528,2.3327,-1,5
588,1.15515,2.3356,-1,5
589,1.15749,2.3382,-1,5
590,1.15985,2.3415,-1,5
591,1.16221,2.3448,-1,5
592,1.16458,2.3479,-1,5
593,1.16694,2.3511,-1,5
594,1.16931,2.3541,-1,5
595,1.17168,2.3577,-1,5
596,1.17406,2.3606,-1,5
597,1.17643,2.3636,-1,5
598,1.17882,2.3669,-1,5
599,1.1812,2.3708,-1,5
600,1.18359,2.3738,-1,5
601,1.18598,2.3768,-1,5
602,1.18838,2.38,-1,5
603,1.19078,2.3839,-1,5
604,1.19318,2.3869,-1,5
605,1.19558,2.3902,-1,5
606,1.19799,2.3939,-1,5
607,1.20041,2.3975,-1,5
608,1.20282,2.4006,-1,5
609,1.20524,2.4041,-1,5
610,1.20767,2.4079,-1,5
611,1.2101,2.4119,-1,5
612,1.21253,2.415,-1,5
613,1.21497,2.4186,-1,5
614,1.21741,2.4229,-1,5
615,1.21985,2.4269,-1,5
616,1.2223,2.4303,-1,5
617,1.22475,2.4344,-1,5
618,1.22721,2.4384,-1,5
619,1.22967,2.4424,-1,5
620,1.23213,2.446,-1,5
621,1.2346,2.4497,-1,5
622,1.23707,2.4539,-1,5
623,1.23954,2.4577,-1,5
624,1.24202,2.4609,-1,5
625,1.2445,2.4645,-1,5
626,1.24699,2.4686,-1,5
627,1.25196,2.4718,-1,5
628,1.25196,2.4758,-1,5
629,1.25446,2.4794,-1,5
630,1.25696,2.4831,-1,5
631,1.25945,2.486,-1,5
632,1.26196,2.4891,-1,5
633,1.26446,2.4925,-1,5
634,1.26697,2.4958,-1,5
635,1.26948,2.4983,-1,5
636,1.27199,2.5013,-1,5
637,1.27451,2.5041,-1,5
638,1.27703,2.5063,-1,5
639,1.27954,2.5085,-1,5
640,1.28207,2.5111,-1,5
641,1.28459,2.5137,-1,5
642,1.28712,2.5163,-1,5
643,1.28965,2.5182,-1,5
644,1.29217,2.5202,-1,5
645,1.29471,2.5228,-1,5
646,1.29724,2.5244,-1,5
647,1.29977,2.526,-1,5
648,1.30231,2.528,-1,5
649,1.30484,2.5301,-1,5
650,1.30737,2.5305,-1,5
651,1.30991,2.5318,-1,5
652,1.31245,2.533,-1,5
653,1.31499,2.534,-1,5
654,1.31752,2.5344,-1,5
655,1.32006,2.535,-1,5
656,1.32259,2.5355,-1,5
657,1.32513,2.5357,-1,5
658,1.32766,2.5353,-1,5
659,1.3302,2.5351,-1,5
660,1.33273,2.5353,-1,5
661,1.33526,2.5347,-1,5
662,1.33779,2.5337,-1,5
663,1.34032,2.5329,-1,5
664,1.34284,2.5325,-1,5
665,1.34537,2.5311,-1,5
666,1.34789,2.5299,-1,5
667,1.35042,2.529,-1,5
668,1.35293,2.5274,-1,5
669,1.35545,2.5252,-1,5
670,1.35796,2.5238,-1,5
671,1.36048,2.5222,-1,5
672,1.36299,2.5199,-1,5
673,1.36549,2.5175,-1,5
674,1.368,2.5153,-1,5
675,1.3705,2.513,-1,5
676,1.37299,2.51,-1,5
677,1.37549,2.507,-1,5
678,1.37798,2.5042,-1,5
679,1.38046,2.5013,-1,5
680,1.38294,2.4976,-1,5
681,1.38542,2.494,-1,5
682,1.38789,2.4905,-1,5
683,1.39036,2.4868,-1,5
684,1.39282,2.4824,-1,5
685,1.39528,2.4783,-1,5
686,1.39773,2.474,-1,5
687,1.40018,2.4695,-1,5
688,1.40263,2.4648,-1,5
689,1.40506,2.4603,-1,5
690,1.4075,2.4556,-1,5
691,1.40992,2.4501,-1,5
692,1.41234,2.4449,-1,5
693,1.41476,2.44,-1,5
694,1.41717,2.435,-1,5
695,1.41958,2.4292,-1,5
696,1.42197,2.4239,-1,5
697,1.42437,2.4184,-1,5
698,1.42675,2.4129,-1,5
699,1.42914,2.4072,-1,5
700,1.43151,2.4015,-1,5
701,1.43388,2.3962,-1,5
702,1.43625,2.3907,-1,5
703,1.4386,2.3841,-1,5
704,1.44095,2.3781,-1,5
705,1.4433,2.3724,-1,5
706,1.44564,2.3667,-1,5
707,1.44797,2.3599,-1,5
708,1.45029,2.3537,-1,5
709,1.45262,2.3478,-1,5
710,1.45493,2.3415,-1,5
711,1.45723,2.3346,-1,5
712,1.45953,2.3279,-1,5
713,1.46182,2.3224,-1,5
714,1.46411,2.3158,-1,5
715,1.46638,2.3086,-1,5
716,1.46866,2.3016,-1,5
717,1.47093,2.296,-1,5
718,1.47318,2.2891,-1,5
719,1.47543,2.2816,-1,5
720,1.47767,2.2745,-1,5
721,1.47991,2.2683,-1,5
722,1.48214,2.2613,-1,5
723,1.48436,2.2537,-1,5
724,1.48657,2.2462,-1,5
725,1.48878,2.2397,-1,5
726,1.49099,2.2328,-1,5
727,1.49318,2.2254,-1,5
728,1.49536,2.2178,-1,5
729,1.49754,2.2106,-1,5
730,1.49972,2.2042,-1,5
731,1.50188,2.197,-1,5
732,1.50403,2.1891,-1,5
733,1.50618,2.1816,-1,5
734,1.50833,2.1754,-1,5
735,1.51047,2.1683,-1,5
736,1.51259,2.1604,-1,5
737,1.51471,2.1526,-1,5
738,1.51682,2.1462,-1,5
739,1.51893,2.1392,-1,5
740,1.52103,2.1311,-1,5
741,1.52312,2.1231,-1,5
742,1.5252,2.1167,-1,5
743,1.52728,2.1099,-1,5
744,1.52935,2.102,-1,5
745,1.53141,2.0942,-1,5
746,1.53346,2.0869,-1,5
747,1.5355,2.0798,-1,5
748,1.53755,2.0727,-1,5
749,1.53958,2.0653,-1,5
750,1.5416,2.0575,-1,5
751,1.54361,2.0501,-1,5
752,1.54563,2.0435,-1,5
753,1.54764,2.0362,-1,5
754,1.54963,2.0285,-1,5
755,1.55161,2.0204,-1,5
756,1.5536,2.0137,-1,5
757,1.55558,2.0076,-1,5
758,1.55755,1.9996,-1,5
759,1.5595,1.9913,-1,5
760,1.56144,1.9842,-1,5
761,1.5634,1.9783,-1,5
762,1.56534,1.971,-1,5
763,1.56727,1.963,-1,5
764,1.56919,1.9556,-1,5
765,1.5711,1.9495,-1,5
766,1.57302,1.9429,-1,5
767,1.57493,1.9352,-1,5
768,1.57682,1.928,-1,5
769,1.57871,1.9213,-1,5
770,1.58059,1.9145,-1,5
771,1.58247,1.9074,-1,5
772,1.58434,1.9004,-1,5
773,1.5862,1.8935,-1,5
774,1.58805,1.8861,-1,5
775,1.58989,1.879,-1,5
776,1.59175,1.8726,-1,5
777,1.59359,1.8659,-1,5
778,1.59541,1.8585,-1,5
779,1.59722,1.8513,-1,5
780,1.59903,1.8448,-1,5
781,1.60086,1.839,-1,5
782,1.60267,1.8322,-1,5
783,1.60445,1.8248,-1,5
784,1.60623,1.8178,-1,5
785,1.60801,1.8121,-1,5
786,1.6098,1.8057,-1,5
787,1.61158,1.7991,-1,5
788,1.61333,1.792,-1,5
789,1.61507,1.7856,-1,5
790,1.61683,1.7802,-1,5
791,1.61859,1.7736,-1,5
792,1.62033,1.7669,-1,5
793,1.62206,1.7611,-1,5
794,1.62378,1.7558,-1,5
795,1.62551,1.7502,-1,5
796,1.62724,1.744,-1,5
797,1.62896,1.738,-1,5
798,1.63066,1.7337,-1,5
799,1.63236,1.729,-1,5
800,1.63407,1.7234,-1,5
801,1.63577,1.7178,-1,5
802,1.63746,1.7129,-1,5
803,1.63915,1.7092,-1,5
804,1.64084,1.7054,-1,5
805,1.64252,1.7002,-1,5
806,1.6442,1.6954,-1,5
807,1.64587,1.6911,-1,5
808,1.64754,1.6878,-1,5
809,1.64921,1.685,-1,5
810,1.65088,1.6808,-1,5
811,1.65254,1.6764,-1,5
812,1.6542,1.6734,-1,5
813,1.65586,1.6706,-1,5
814,1.65752,1.6681,-1,5
815,1.65917,1.665,-1,5
816,1.66081,1.6612,-1,5
817,1.66246,1.6588,-1,5
818,1.66411,1.6568,-1,5
819,1.66576,1.6541,-1,5
820,1.6674,1.6518,-1,5
821,1.66903,1.6495,-1,5
822,1.67067,1.6473,-1,5
823,1.67232,1.6459,-1,5
824,1.67396,1.6439,-1,5
825,1.67559,1.6421,-1,5
826,1.67722,1.6415,-1,5
827,1.67886,1.6405,-1,5
828,1.6805,1.6392,-1,5
829,1.68214,1.6382,-1,5
830,1.68377,1.6372,-1,5
831,1.6854,1.6372,-1,5
832,1.68705,1.6376,-1,5
833,1.68869,1.6368,-1,5
834,1.69032,1.6361,-1,5
835,1.69195,1.6361,-1,5
836,1.69358,1.636,-1,5
837,1.69523,1.6369,-1,5
838,1.69688,1.6376,-1,5
839,1.69851,1.6374,-1,5
840,1.70014,1.6376,-1,5
841,1.70179,1.6384,-1,5
842,1.70344,1.6394,-1,5
843,1.70509,1.641,-1,5
