cnt,pos,speed,Dir,Force,
1,3.20449,1.319,-1,5
2,3.20581,1.318,-1,5
3,3.20712,1.312,-1,5
4,3.20843,1.310,-1,5
5,3.20974,1.309,-1,5
6,3.21105,1.309,-1,5
7,3.21237,1.313,-1,5
8,3.21368,1.310,-1,5
9,3.21497,1.298,-1,5
10,3.21627,1.294,-1,5
11,3.21756,1.293,-1,5
12,3.21885,1.290,-1,5
13,3.22014,1.287,-1,5
14,3.22142,1.282,-1,5
15,3.22270,1.281,-1,5
16,3.22397,1.269,-1,5
17,3.22523,1.257,-1,5
18,3.22649,1.260,-1,5
19,3.22775,1.261,-1,5
20,3.22900,1.241,-1,5
21,3.23024,1.241,-1,5
22,3.23148,1.237,-1,5
23,3.23271,1.231,-1,5
24,3.23393,1.222,-1,5
25,3.23514,1.214,-1,5
26,3.23636,1.218,-1,5
27,3.23757,1.208,-1,5
28,3.23876,1.185,-1,5
29,3.24113,1.184,-1,5
30,3.24230,1.173,-1,5
31,3.24346,1.161,-1,5
32,3.24462,1.157,-1,5
33,3.24577,1.156,-1,5
34,3.24692,1.142,-1,5
35,3.24804,1.121,-1,5
36,3.24916,1.119,-1,5
37,3.25028,1.124,-1,5
38,3.25140,1.116,-1,5
39,3.25249,1.097,-1,5
40,3.25358,1.088,-1,5
41,3.25467,1.090,-1,5
42,3.25576,1.085,-1,5
43,3.25682,1.066,-1,5
44,3.25788,1.055,-1,5
45,3.25894,1.060,-1,5
46,3.26000,1.061,-1,5
47,3.26104,1.046,-1,5
48,3.26207,1.023,-1,5
49,3.26308,1.019,-1,5
50,3.26411,1.027,-1,5
51,3.26513,1.022,-1,5
52,3.26613,0.996,-1,5
53,3.26711,0.983,-1,5
54,3.26810,0.990,-1,5
55,3.26910,0.994,-1,5
56,3.27007,0.978,-1,5
57,3.27102,0.948,-1,5
58,3.27197,0.945,-1,5
59,3.27292,0.954,-1,5
60,3.27388,0.955,-1,5
61,3.27481,0.932,-1,5
62,3.27572,0.907,-1,5
63,3.27663,0.913,-1,5
64,3.27756,0.926,-1,5
65,3.27847,0.917,-1,5
66,3.27936,0.892,-1,5
67,3.28024,0.872,-1,5
68,3.28112,0.880,-1,5
69,3.28201,0.894,-1,5
70,3.28290,0.887,-1,5
71,3.28376,0.863,-1,5
72,3.28461,0.844,-1,5
73,3.28546,0.850,-1,5
74,3.28632,0.864,-1,5
75,3.28718,0.857,-1,5
76,3.28801,0.832,-1,5
77,3.28882,0.814,-1,5
78,3.28964,0.820,-1,5
79,3.29048,0.833,-1,5
80,3.29130,0.828,-1,5
81,3.29211,0.807,-1,5
82,3.29290,0.792,-1,5
83,3.29370,0.793,-1,5
84,3.29449,0.800,-1,5
85,3.29529,0.797,-1,5
86,3.29607,0.781,-1,5
87,3.29684,0.772,-1,5
88,3.29762,0.774,-1,5
89,3.29840,0.777,-1,5
90,3.29917,0.771,-1,5
91,3.29993,0.761,-1,5
92,3.30068,0.757,-1,5
93,3.30220,0.757,-1,5
94,3.30295,0.747,-1,5
95,3.30369,0.740,-1,5
96,3.30443,0.743,-1,5
97,3.30518,0.750,-1,5
98,3.30593,0.744,-1,5
99,3.30666,0.732,-1,5
100,3.30739,0.730,-1,5
101,3.30812,0.729,-1,5
102,3.30885,0.733,-1,5
103,3.30958,0.733,-1,5
104,3.31031,0.722,-1,5
105,3.31102,0.718,-1,5
106,3.31175,0.722,-1,5
107,3.31319,0.719,-1,5
108,3.31319,0.714,-1,5
109,3.31462,0.718,-1,5
110,3.31462,0.721,-1,5
111,3.31606,0.716,-1,5
112,3.31677,0.713,-1,5
113,3.31748,0.708,-1,5
114,3.31819,0.713,-1,5
115,3.31891,0.718,-1,5
116,3.31962,0.714,-1,5
117,3.32033,0.709,-1,5
118,3.32104,0.706,-1,5
119,3.32175,0.711,-1,5
120,3.32246,0.711,-1,5
121,3.32317,0.709,-1,5
122,3.32387,0.706,-1,5
123,3.32458,0.706,-1,5
124,3.32529,0.707,-1,5
125,3.32599,0.704,-1,5
126,3.32669,0.702,-1,5
127,3.32739,0.698,-1,5
128,3.32809,0.704,-1,5
129,3.32880,0.703,-1,5
130,3.33020,0.697,-1,5
131,3.33089,0.696,-1,5
132,3.33159,0.699,-1,5
133,3.33230,0.701,-1,5
134,3.33300,0.700,-1,5
135,3.33369,0.695,-1,5
136,3.33439,0.695,-1,5
137,3.33508,0.695,-1,5
138,3.33578,0.696,-1,5
139,3.33647,0.692,-1,5
140,3.33716,0.694,-1,5
141,3.33786,0.694,-1,5
142,3.33855,0.695,-1,5
143,3.33924,0.691,-1,5
144,3.33993,0.688,-1,5
145,3.34062,0.685,-1,5
146,3.34130,0.688,-1,5
147,3.34199,0.686,-1,5
148,3.34268,0.687,-1,5
149,3.34336,0.683,-1,5
150,3.34404,0.683,-1,5
151,3.34541,0.683,-1,5
152,3.34541,0.679,-1,5
153,3.34677,0.678,-1,5
154,3.34677,0.680,-1,5
155,3.34745,0.680,-1,5
156,3.34813,0.681,-1,5
157,3.34880,0.677,-1,5
158,3.34947,0.670,-1,5
159,3.35014,0.670,-1,5
160,3.35081,0.669,-1,5
161,3.35148,0.673,-1,5
162,3.35216,0.671,-1,5
163,3.35282,0.667,-1,5
164,3.35349,0.665,-1,5
165,3.35415,0.663,-1,5
166,3.35482,0.665,-1,5
167,3.35548,0.662,-1,5
168,3.35614,0.659,-1,5
169,3.35679,0.658,-1,5
170,3.35745,0.657,-1,5
171,3.35811,0.660,-1,5
172,3.35877,0.655,-1,5
173,3.35942,0.652,-1,5
174,3.36007,0.652,-1,5
175,3.36072,0.654,-1,5
176,3.36138,0.657,-1,5
177,3.36204,0.656,-1,5
178,3.36269,0.651,-1,5
179,3.36334,0.652,-1,5
180,3.36399,0.652,-1,5
181,3.36464,0.651,-1,5
182,3.36530,0.654,-1,5
183,3.36595,0.654,-1,5
184,3.36660,0.654,-1,5
185,3.36726,0.655,-1,5
186,3.36857,0.653,-1,5
187,3.36922,0.656,-1,5
188,3.36988,0.656,-1,5
189,3.36988,0.660,-1,5
190,3.37120,0.659,-1,5
191,3.37120,0.660,-1,5
192,3.37252,0.660,-1,5
193,3.37252,0.660,-1,5
194,3.37384,0.662,-1,5
195,3.37450,0.664,-1,5
196,3.37517,0.669,-1,5
197,3.37584,0.671,-1,5
198,3.37651,0.671,-1,5
199,3.37719,0.674,-1,5
200,3.37786,0.673,-1,5
201,3.37854,0.676,-1,5
202,3.37921,0.677,-1,5
203,3.37989,0.680,-1,5
204,3.38058,0.683,-1,5
205,3.38126,0.684,-1,5
206,3.38195,0.685,-1,5
207,3.38263,0.685,-1,5
208,3.38332,0.690,-1,5
209,3.38401,0.693,-1,5
210,3.38471,0.699,-1,5
211,3.38542,0.702,-1,5
212,3.38612,0.704,-1,5
213,3.38683,0.706,-1,5
214,3.38753,0.708,-1,5
215,3.38824,0.711,-1,5
216,3.38896,0.715,-1,5
217,3.38968,0.724,-1,5
218,3.39041,0.728,-1,5
219,3.39114,0.730,-1,5
220,3.39188,0.736,-1,5
221,3.39261,0.737,-1,5
222,3.39336,0.744,-1,5
223,3.39411,0.757,-1,5
224,3.39564,0.761,-1,5
225,3.39640,0.762,-1,5
226,3.39717,0.769,-1,5
227,3.39717,0.778,-1,5
228,3.39795,0.786,-1,5
229,3.39873,0.795,-1,5
230,3.39953,0.795,-1,5
231,3.40033,0.800,-1,5
232,3.40113,0.808,-1,5
233,3.40194,0.815,-1,5
234,3.40358,0.825,-1,5
235,3.40441,0.834,-1,5
236,3.40525,0.840,-1,5
237,3.40609,0.842,-1,5
238,3.40694,0.847,-1,5
239,3.40780,0.857,-1,5
240,3.40867,0.871,-1,5
241,3.40955,0.881,-1,5
242,3.41043,0.882,-1,5
243,3.41131,0.882,-1,5
244,3.41220,0.889,-1,5
245,3.41311,0.904,-1,5
246,3.41403,0.921,-1,5
247,3.41496,0.929,-1,5
248,3.41588,0.927,-1,5
249,3.41681,0.927,-1,5
250,3.41776,0.948,-1,5
251,3.41873,0.968,-1,5
252,3.41971,0.981,-1,5
253,3.42068,0.973,-1,5
254,3.42165,0.974,-1,5
255,3.42265,0.991,-1,5
256,3.42367,1.025,-1,5
257,3.42471,1.040,-1,5
258,3.42574,1.032,-1,5
259,3.42677,1.025,-1,5
260,3.42782,1.049,-1,5
261,3.42890,1.081,-1,5
262,3.43000,1.096,-1,5
263,3.43109,1.090,-1,5
264,3.43217,1.089,-1,5
265,3.43329,1.114,-1,5
266,3.43443,1.145,-1,5
267,3.43559,1.152,-1,5
268,3.43673,1.141,-1,5
269,3.43788,1.151,-1,5
270,3.43906,1.180,-1,5
271,3.44026,1.206,-1,5
272,3.44147,1.208,-1,5
273,3.44268,1.205,-1,5
274,3.44389,1.210,-1,5
275,3.44512,1.232,-1,5
276,3.44637,1.251,-1,5
277,3.44764,1.268,-1,5
278,3.44890,1.267,-1,5
279,3.45017,1.265,-1,5
280,3.45145,1.279,-1,5
281,3.45275,1.302,-1,5
282,3.45407,1.316,-1,5
283,3.45538,1.314,-1,5
284,3.45670,1.319,-1,5
285,3.45804,1.337,-1,5
286,3.45938,1.349,-1,5
287,3.46074,1.351,-1,5
288,3.46209,1.356,-1,5
289,3.46346,1.368,-1,5
290,3.46484,1.381,-1,5
291,3.46623,1.391,-1,5
292,3.46763,1.398,-1,5
293,3.46902,1.393,-1,5
294,3.47042,1.397,-1,5
295,3.47184,1.420,-1,5
296,3.47327,1.434,-1,5
297,3.47470,1.429,-1,5
298,3.47613,1.424,-1,5
299,3.47756,1.432,-1,5
300,3.47901,1.447,-1,5
301,3.48046,1.459,-1,5
302,3.48193,1.462,-1,5
303,3.48338,1.458,-1,5
304,3.48631,1.475,-1,5
305,3.48779,1.482,-1,5
306,3.48928,1.484,-1,5
307,3.49076,1.478,-1,5
308,3.49224,1.481,-1,5
309,3.49373,1.490,-1,5
310,3.49523,1.502,-1,5
311,3.49674,1.505,-1,5
312,3.49823,1.493,-1,5
313,3.49972,1.496,-1,5
314,3.50123,1.509,-1,5
315,3.50275,1.515,-1,5
316,3.50426,1.516,-1,5
317,3.50578,1.514,-1,5
318,3.50729,1.511,-1,5
319,3.50880,1.513,-1,5
320,3.51033,1.528,-1,5
321,3.51186,1.529,-1,5
322,3.51338,1.525,-1,5
323,3.51491,1.525,-1,5
324,3.51643,1.524,-1,5
325,3.51796,1.531,-1,5
326,3.51951,1.544,-1,5
327,3.52105,1.541,-1,5
328,3.52258,1.528,-1,5
329,3.52411,1.537,-1,5
330,3.52566,1.543,-1,5
331,3.52720,1.547,-1,5
332,3.52875,1.548,-1,5
333,3.53029,1.540,-1,5
334,3.53183,1.541,-1,5
335,3.53338,1.551,-1,5
336,3.53494,1.558,-1,5
337,3.53649,1.552,-1,5
338,3.53804,1.550,-1,5
339,3.53960,1.554,-1,5
340,3.54115,1.556,-1,5
341,3.54272,1.565,-1,5
342,3.54428,1.558,-1,5
343,3.54584,1.562,-1,5
344,3.54897,1.570,-1,5
345,3.54897,1.572,-1,5
346,3.55212,1.577,-1,5
347,3.55212,1.576,-1,5
348,3.55527,1.570,-1,5
349,3.55527,1.577,-1,5
350,3.55843,1.589,-1,5
351,3.56003,1.591,-1,5
352,3.56162,1.592,-1,5
353,3.56320,1.587,-1,5
354,3.56479,1.590,-1,5
355,3.56640,1.608,-1,5
356,3.56802,1.616,-1,5
357,3.56963,1.609,-1,5
358,3.57123,1.607,-1,5
359,3.57285,1.613,-1,5
360,3.57448,1.630,-1,5
361,3.57612,1.643,-1,5
362,3.57775,1.634,-1,5
363,3.57938,1.627,-1,5
364,3.58102,1.642,-1,5
365,3.58268,1.660,-1,5
366,3.58435,1.666,-1,5
367,3.58601,1.658,-1,5
368,3.58766,1.651,-1,5
369,3.58933,1.671,-1,5
370,3.59102,1.697,-1,5
371,3.59272,1.692,-1,5
372,3.59440,1.679,-1,5
373,3.59608,1.681,-1,5
374,3.59778,1.706,-1,5
375,3.59951,1.729,-1,5
376,3.60123,1.723,-1,5
377,3.60294,1.703,-1,5
378,3.60465,1.713,-1,5
379,3.60639,1.740,-1,5
380,3.60815,1.759,-1,5
381,3.60990,1.752,-1,5
382,3.61164,1.734,-1,5
383,3.61338,1.743,-1,5
384,3.61515,1.774,-1,5
385,3.61694,1.789,-1,5
386,3.61872,1.781,-1,5
387,3.62049,1.763,-1,5
388,3.62226,1.775,-1,5
389,3.62589,1.816,-1,5
390,3.62769,1.804,-1,5
391,3.62949,1.793,-1,5
392,3.62949,1.813,-1,5
393,3.63314,1.841,-1,5
394,3.63314,1.837,-1,5
395,3.63680,1.827,-1,5
396,3.63863,1.831,-1,5
397,3.64048,1.845,-1,5
398,3.64234,1.861,-1,5
399,3.64420,1.857,-1,5
400,3.64605,1.854,-1,5
401,3.64791,1.861,-1,5
402,3.64978,1.872,-1,5
403,3.65166,1.877,-1,5
404,3.65354,1.877,-1,5
405,3.65542,1.879,-1,5
406,3.65730,1.885,-1,5
407,3.65919,1.896,-1,5
408,3.66108,1.896,-1,5
409,3.66298,1.896,-1,5
410,3.66488,1.899,-1,5
411,3.66678,1.900,-1,5
412,3.66868,1.899,-1,5
413,3.67059,1.907,-1,5
414,3.67250,1.911,-1,5
415,3.67441,1.911,-1,5
416,3.67632,1.909,-1,5
417,3.67823,1.911,-1,5
418,3.68015,1.919,-1,5
419,3.68206,1.918,-1,5
420,3.68398,1.916,-1,5
421,3.68590,1.917,-1,5
422,3.68781,1.917,-1,5
423,3.68973,1.921,-1,5
424,3.69165,1.920,-1,5
425,3.69358,1.923,-1,5
426,3.69742,1.917,-1,5
427,3.69933,1.919,-1,5
428,3.70125,1.917,-1,5
429,3.70125,1.922,-1,5
430,3.70509,1.919,-1,5
431,3.70509,1.913,-1,5
432,3.70892,1.912,-1,5
433,3.70892,1.914,-1,5
434,3.71275,1.919,-1,5
435,3.71466,1.912,-1,5
436,3.71657,1.903,-1,5
437,3.71847,1.903,-1,5
438,3.72038,1.908,-1,5
439,3.72229,1.910,-1,5
440,3.72419,1.899,-1,5
441,3.72608,1.891,-1,5
442,3.72797,1.896,-1,5
443,3.72987,1.895,-1,5
444,3.73176,1.896,-1,5
445,3.73365,1.879,-1,5
446,3.73740,1.876,-1,5
447,3.73928,1.881,-1,5
448,3.74117,1.884,-1,5
449,3.74304,1.871,-1,5
450,3.74490,1.858,-1,5
451,3.74676,1.859,-1,5
452,3.74862,1.868,-1,5
453,3.75049,1.868,-1,5
454,3.75234,1.851,-1,5
455,3.75418,1.838,-1,5
456,3.75602,1.843,-1,5
457,3.75788,1.852,-1,5
458,3.75973,1.849,-1,5
459,3.76155,1.827,-1,5
460,3.76337,1.815,-1,5
461,3.76520,1.831,-1,5
462,3.76703,1.836,-1,5
463,3.76886,1.821,-1,5
464,3.77066,1.803,-1,5
465,3.77246,1.798,-1,5
466,3.77427,1.817,-1,5
467,3.77608,1.808,-1,5
468,3.77787,1.793,-1,5
469,3.77965,1.781,-1,5
470,3.78144,1.788,-1,5
471,3.78323,1.790,-1,5
472,3.78501,1.779,-1,5
473,3.78678,1.766,-1,5
474,3.78855,1.768,-1,5
475,3.79032,1.771,-1,5
476,3.79208,1.760,-1,5
477,3.79383,1.752,-1,5
478,3.79558,1.749,-1,5
479,3.79734,1.758,-1,5
480,3.79909,1.750,-1,5
481,3.80082,1.732,-1,5
482,3.80255,1.733,-1,5
483,3.80604,1.742,-1,5
484,3.80776,1.726,-1,5
485,3.80947,1.710,-1,5
486,3.81119,1.721,-1,5
487,3.81293,1.733,-1,5
488,3.81465,1.720,-1,5
489,3.81635,1.705,-1,5
490,3.81805,1.701,-1,5
491,3.81977,1.716,-1,5
492,3.82149,1.720,-1,5
493,3.82319,1.702,-1,5
494,3.82488,1.691,-1,5
495,3.82658,1.698,-1,5
496,3.82829,1.709,-1,5
497,3.83000,1.708,-1,5
498,3.83169,1.689,-1,5
499,3.83337,1.681,-1,5
500,3.83506,1.697,-1,5
501,3.83677,1.708,-1,5
502,3.83846,1.692,-1,5
503,3.84014,1.678,-1,5
504,3.84182,1.678,-1,5
505,3.84352,1.700,-1,5
506,3.84523,1.706,-1,5
507,3.84691,1.681,-1,5
508,3.84858,1.668,-1,5
509,3.85026,1.681,-1,5
510,3.85196,1.701,-1,5
511,3.85365,1.696,-1,5
512,3.85533,1.675,-1,5
513,3.85700,1.666,-1,5
514,3.85868,1.687,-1,5
515,3.86038,1.699,-1,5
516,3.86207,1.685,-1,5
517,3.86374,1.670,-1,5
518,3.86541,1.669,-1,5
519,3.86709,1.685,-1,5
520,3.86878,1.692,-1,5
521,3.87045,1.662,-1,5
522,3.87212,1.674,-1,5
523,3.87379,1.674,-1,5
524,3.87547,1.681,-1,5
525,3.87715,1.676,-1,5
526,3.87881,1.662,-1,5
527,3.88047,1.659,-1,5
528,3.88214,1.678,-1,5
529,3.88548,1.660,-1,5
530,3.88713,1.651,-1,5
531,3.88879,1.655,-1,5
532,3.89046,1.670,-1,5
533,3.89212,1.668,-1,5
534,3.89377,1.646,-1,5
535,3.89541,1.636,-1,5
536,3.89706,1.650,-1,5
537,3.89872,1.659,-1,5
538,3.90037,1.651,-1,5
539,3.90362,1.622,-1,5
540,3.90362,1.638,-1,5
541,3.90526,1.638,-1,5
542,3.90691,1.648,-1,5
543,3.90854,1.632,-1,5
544,3.91015,1.615,-1,5
545,3.91176,1.612,-1,5
546,3.91339,1.621,-1,5
547,3.91501,1.626,-1,5
548,3.91662,1.609,-1,5
549,3.91821,1.593,-1,5
550,3.91981,1.595,-1,5
551,3.92141,1.602,-1,5
552,3.92301,1.597,-1,5
553,3.92459,1.581,-1,5
554,3.92616,1.568,-1,5
555,3.92772,1.564,-1,5
556,3.92930,1.576,-1,5
557,3.93087,1.572,-1,5
558,3.93242,1.532,-1,5
559,3.93395,1.534,-1,5
560,3.93702,1.541,-1,5
561,3.93856,1.539,-1,5
562,3.94007,1.513,-1,5
563,3.94157,1.495,-1,5
564,3.94306,1.495,-1,5
565,3.94457,1.504,-1,5
566,3.94607,1.497,-1,5
567,3.94754,1.477,-1,5
568,3.94900,1.459,-1,5
569,3.95045,1.449,-1,5
570,3.95191,1.457,-1,5
571,3.95336,1.457,-1,5
572,3.95480,1.436,-1,5
573,3.95621,1.412,-1,5
574,3.95762,1.410,-1,5
575,3.96044,1.408,-1,5
576,3.96183,1.395,-1,5
577,3.96321,1.374,-1,5
578,3.96457,1.358,-1,5
579,3.96593,1.361,-1,5
580,3.96729,1.367,-1,5
581,3.96864,1.351,-1,5
582,3.96997,1.326,-1,5
583,3.97128,1.313,-1,5
584,3.97260,1.312,-1,5
585,3.97391,1.312,-1,5
586,3.97521,1.304,-1,5
587,3.97650,1.290,-1,5
588,3.97777,1.270,-1,5
589,3.97902,1.253,-1,5
590,3.98028,1.258,-1,5
591,3.98154,1.255,-1,5
592,3.98278,1.242,-1,5
593,3.98400,1.222,-1,5
594,3.98521,1.213,-1,5
595,3.98642,1.208,-1,5
596,3.98762,1.198,-1,5
597,3.98881,1.187,-1,5
598,3.98999,1.179,-1,5
599,3.99116,1.171,-1,5
600,3.99231,1.158,-1,5
601,3.99346,1.148,-1,5
602,3.99574,1.132,-1,5
603,3.99574,1.116,-1,5
604,3.99685,1.108,-1,5
605,3.99796,1.108,-1,5
606,3.99907,1.107,-1,5
607,4.00017,1.100,-1,5
608,4.00125,1.081,-1,5
609,4.00231,1.062,-1,5
610,4.00444,1.065,-1,5
611,4.00549,1.052,-1,5
612,4.00652,1.032,-1,5
613,4.00754,1.018,-1,5
614,4.00856,1.019,-1,5
615,4.00957,1.016,-1,5
616,4.01057,0.999,-1,5
617,4.01155,0.981,-1,5
618,4.01253,0.978,-1,5
619,4.01351,0.979,-1,5
620,4.01449,0.974,-1,5
621,4.01544,0.951,-1,5
622,4.01637,0.938,-1,5
623,4.01731,0.935,-1,5
624,4.01825,0.939,-1,5
625,4.01918,0.930,-1,5
626,4.02009,0.908,-1,5
627,4.02098,0.897,-1,5
628,4.02189,0.902,-1,5
629,4.02279,0.906,-1,5
630,4.02368,0.893,-1,5
631,4.02455,0.870,-1,5
632,4.02541,0.857,-1,5
633,4.02627,0.864,-1,5
634,4.02715,0.871,-1,5
635,4.02801,0.862,-1,5
636,4.02885,0.839,-1,5
637,4.02967,0.825,-1,5
638,4.03050,0.830,-1,5
639,4.03134,0.841,-1,5
640,4.03218,0.835,-1,5
641,4.03299,0.812,-1,5
642,4.03379,0.795,-1,5
643,4.03458,0.795,-1,5
644,4.03539,0.809,-1,5
645,4.03620,0.810,-1,5
646,4.03699,0.792,-1,5
647,4.03776,0.773,-1,5
648,4.03853,0.769,-1,5
649,4.03931,0.779,-1,5
650,4.04010,0.785,-1,5
651,4.04087,0.772,-1,5
652,4.04162,0.754,-1,5
653,4.04237,0.747,-1,5
654,4.04312,0.753,-1,5
655,4.04388,0.759,-1,5
656,4.04464,0.755,-1,5
657,4.04538,0.740,-1,5
658,4.04611,0.734,-1,5
659,4.04685,0.740,-1,5
660,4.04832,0.732,-1,5
661,4.04905,0.723,-1,5
662,4.04977,0.723,-1,5
663,4.05050,0.726,-1,5
664,4.05122,0.728,-1,5
665,4.05194,0.717,-1,5
666,4.05265,0.709,-1,5
667,4.05336,0.713,-1,5
668,4.05408,0.720,-1,5
669,4.05480,0.719,-1,5
670,4.05551,0.706,-1,5
671,4.05621,0.700,-1,5
672,4.05691,0.700,-1,5
673,4.05761,0.704,-1,5
674,4.05832,0.705,-1,5
675,4.05902,0.700,-1,5
676,4.05971,0.695,-1,5
677,4.06041,0.696,-1,5
678,4.06111,0.699,-1,5
679,4.06180,0.695,-1,5
680,4.06249,0.688,-1,5
681,4.06318,0.688,-1,5
682,4.06387,0.690,-1,5
683,4.06456,0.690,-1,5
684,4.06524,0.684,-1,5
685,4.06592,0.678,-1,5
686,4.06660,0.679,-1,5
687,4.06728,0.682,-1,5
688,4.06797,0.683,-1,5
689,4.06864,0.679,-1,5
690,4.06932,0.673,-1,5
691,4.06999,0.675,-1,5
692,4.07067,0.674,-1,5
693,4.07134,0.673,-1,5
694,4.07201,0.669,-1,5
695,4.07268,0.667,-1,5
696,4.07335,0.670,-1,5
697,4.07468,0.667,-1,5
698,4.07534,0.662,-1,5
699,4.07601,0.664,-1,5
700,4.07667,0.665,-1,5
701,4.07734,0.665,-1,5
702,4.07800,0.661,-1,5
703,4.07866,0.658,-1,5
704,4.07931,0.657,-1,5
705,4.07997,0.658,-1,5
706,4.08062,0.654,-1,5
707,4.08128,0.653,-1,5
708,4.08193,0.653,-1,5
709,4.08258,0.655,-1,5
710,4.08324,0.655,-1,5
711,4.08389,0.651,-1,5
712,4.08454,0.647,-1,5
713,4.08518,0.646,-1,5
714,4.08583,0.646,-1,5
715,4.08712,0.642,-1,5
716,4.08776,0.640,-1,5
717,4.08839,0.636,-1,5
718,4.08903,0.637,-1,5
719,4.08966,0.634,-1,5
720,4.09030,0.633,-1,5
721,4.09093,0.632,-1,5
722,4.09156,0.632,-1,5
723,4.09219,0.630,-1,5
724,4.09282,0.627,-1,5
725,4.09344,0.624,-1,5
726,4.09406,0.620,-1,5
727,4.09468,0.618,-1,5
728,4.09530,0.616,-1,5
729,4.09591,0.614,-1,5
730,4.09652,0.613,-1,5
731,4.09713,0.611,-1,5
732,4.09774,0.608,-1,5
733,4.09835,0.606,-1,5
734,4.09895,0.604,-1,5
735,4.09956,0.604,-1,5
736,4.10016,0.601,-1,5
737,4.10075,0.598,-1,5
738,4.10135,0.597,-1,5
739,4.10194,0.593,-1,5
740,4.10254,0.591,-1,5
741,4.10312,0.588,-1,5
742,4.10371,0.584,-1,5
743,4.10429,0.580,-1,5
744,4.10487,0.577,-1,5
745,4.10544,0.577,-1,5
746,4.10602,0.576,-1,5
747,4.10716,0.570,-1,5
748,4.10716,0.568,-1,5
749,4.10829,0.566,-1,5
750,4.10829,0.561,-1,5
751,4.10941,0.556,-1,5
752,4.10996,0.553,-1,5
753,4.11052,0.553,-1,5
754,4.11107,0.550,-1,5
755,4.11161,0.544,-1,5
756,4.11215,0.539,-1,5
757,4.11269,0.538,-1,5
758,4.11322,0.535,-1,5
759,4.11375,0.530,-1,5
760,4.11428,0.524,-1,5
761,4.11480,0.524,-1,5
762,4.11533,0.523,-1,5
763,4.11584,0.519,-1,5
764,4.11635,0.506,-1,5
765,4.11686,0.506,-1,5
766,4.11737,0.505,-1,5
767,4.11787,0.505,-1,5
768,4.11837,0.498,-1,5
769,4.11886,0.492,-1,5
770,4.11935,0.488,-1,5
771,4.11984,0.488,-1,5
772,4.12032,0.486,-1,5
773,4.12080,0.478,-1,5
774,4.12127,0.471,-1,5
775,4.12174,0.470,-1,5
776,4.12222,0.472,-1,5
777,4.12268,0.466,-1,5
778,4.12314,0.457,-1,5
779,4.12359,0.455,-1,5
780,4.12405,0.453,-1,5
781,4.12450,0.452,-1,5
782,4.12495,0.447,-1,5
783,4.12539,0.440,-1,5
784,4.12582,0.438,-1,5
785,4.12626,0.439,-1,5
786,4.12670,0.436,-1,5
787,4.12713,0.431,-1,5
788,4.12755,0.424,-1,5
789,4.12798,0.425,-1,5
790,4.12840,0.424,-1,5
791,4.12883,0.415,-1,5
792,4.12966,0.413,-1,5
793,4.13007,0.413,-1,5
794,4.13048,0.415,-1,5
795,4.13089,0.410,-1,5
796,4.13130,0.406,-1,5
797,4.13170,0.401,-1,5
798,4.13211,0.406,-1,5
799,4.13251,0.402,-1,5
800,4.13291,0.400,-1,5
801,4.13330,0.395,-1,5
802,4.13370,0.395,-1,5
803,4.13409,0.396,-1,5
804,4.13449,0.393,-1,5
805,4.13488,0.390,-1,5
806,4.13526,0.388,-1,5
807,4.13566,0.391,-1,5
808,4.13605,0.391,-1,5
809,4.13644,0.390,-1,5
810,4.13683,0.387,-1,5
811,4.13721,0.385,-1,5
812,4.13760,0.390,-1,5
813,4.13799,0.390,-1,5
814,4.13838,0.387,-1,5
815,4.13876,0.385,-1,5
816,4.13915,0.384,-1,5
817,4.13954,0.389,-1,5
818,4.13993,0.389,-1,5
819,4.14031,0.387,-1,5
820,4.14070,0.387,-1,5
821,4.14109,0.387,-1,5
822,4.14148,0.390,-1,5
823,4.14187,0.390,-1,5
824,4.14225,0.387,-1,5
825,4.14264,0.388,-1,5
826,4.14303,0.390,-1,5
827,4.14342,0.393,-1,5
828,4.14382,0.391,-1,5
829,4.14421,0.393,-1,5
830,4.14460,0.395,-1,5
831,4.14500,0.399,-1,5
832,4.14540,0.402,-1,5
833,4.14581,0.401,-1,5
834,4.14621,0.403,-1,5
835,4.14661,0.403,-1,5
836,4.14702,0.410,-1,5
837,4.14743,0.410,-1,5
838,4.14784,0.412,-1,5
839,4.14825,0.410,-1,5
840,4.14867,0.415,-1,5
841,4.14909,0.417,-1,5
842,4.14951,0.421,-1,5
843,4.14993,0.419,-1,5
844,4.15035,0.423,-1,5
845,4.15077,0.424,-1,5
846,4.15120,0.428,-1,5
847,4.15163,0.428,-1,5
848,4.15249,0.432,-1,5
849,4.15249,0.435,-1,5
850,4.15337,0.439,-1,5
851,4.15337,0.438,-1,5
852,4.15425,0.443,-1,5
853,4.15425,0.445,-1,5
854,4.15514,0.448,-1,5
855,4.15559,0.450,-1,5
856,4.15604,0.449,-1,5
857,4.15649,0.450,-1,5
858,4.15694,0.454,-1,5
859,4.15740,0.455,-1,5
860,4.15785,0.456,-1,5
861,4.15831,0.455,-1,5
862,4.15876,0.456,-1,5
863,4.15922,0.460,-1,5
864,4.15968,0.461,-1,5
865,4.16014,0.458,-1,5
866,4.16060,0.459,-1,5
867,4.16106,0.459,-1,5
868,4.16152,0.460,-1,5
869,4.16198,0.463,-1,5
870,4.16245,0.461,-1,5
871,4.16290,0.458,-1,5
872,4.16336,0.459,-1,5
873,4.16382,0.460,-1,5
