cnt,pos,speed,Dir,Force,
1,3.20833,1.731,-1,5
2,3.21007,1.739,-1,5
3,3.21180,1.737,-1,5
4,3.21354,1.735,-1,5
5,3.21528,1.740,-1,5
6,3.21703,1.751,-1,5
7,3.21878,1.754,-1,5
8,3.22054,1.752,-1,5
9,3.22230,1.761,-1,5
10,3.22407,1.768,-1,5
11,3.22583,1.764,-1,5
12,3.22760,1.767,-1,5
13,3.22937,1.772,-1,5
14,3.23116,1.787,-1,5
15,3.23294,1.786,-1,5
16,3.23472,1.776,-1,5
17,3.23650,1.798,-1,5
18,3.24010,1.803,-1,5
19,3.24010,1.797,-1,5
20,3.24368,1.785,-1,5
21,3.24368,1.785,-1,5
22,3.24548,1.813,-1,5
23,3.24729,1.813,-1,5
24,3.24910,1.800,-1,5
25,3.25090,1.801,-1,5
26,3.25452,1.812,-1,5
27,3.25634,1.823,-1,5
28,3.25815,1.811,-1,5
29,3.25996,1.807,-1,5
30,3.26177,1.814,-1,5
31,3.26359,1.821,-1,5
32,3.26541,1.822,-1,5
33,3.26722,1.807,-1,5
34,3.26903,1.813,-1,5
35,3.27086,1.825,-1,5
36,3.27268,1.821,-1,5
37,3.27630,1.807,-1,5
38,3.27630,1.820,-1,5
39,3.27812,1.820,-1,5
40,3.27995,1.828,-1,5
41,3.28176,1.816,-1,5
42,3.28357,1.804,-1,5
43,3.28538,1.810,-1,5
44,3.28720,1.826,-1,5
45,3.28903,1.825,-1,5
46,3.29084,1.807,-1,5
47,3.29264,1.804,-1,5
48,3.29446,1.817,-1,5
49,3.29628,1.826,-1,5
50,3.29810,1.817,-1,5
51,3.29991,1.806,-1,5
52,3.30171,1.807,-1,5
53,3.30353,1.821,-1,5
54,3.30535,1.817,-1,5
55,3.30716,1.812,-1,5
56,3.30897,1.812,-1,5
57,3.31079,1.812,-1,5
58,3.31442,1.812,-1,5
59,3.31623,1.818,-1,5
60,3.31623,1.820,-1,5
61,3.31987,1.815,-1,5
62,3.31987,1.814,-1,5
63,3.32350,1.816,-1,5
64,3.32533,1.827,-1,5
65,3.32716,1.828,-1,5
66,3.32897,1.817,-1,5
67,3.33079,1.816,-1,5
68,3.33261,1.824,-1,5
69,3.33445,1.836,-1,5
70,3.33628,1.834,-1,5
71,3.33810,1.821,-1,5
72,3.33993,1.822,-1,5
73,3.34176,1.836,-1,5
74,3.34361,1.845,-1,5
75,3.34545,1.841,-1,5
76,3.34728,1.829,-1,5
77,3.34911,1.835,-1,5
78,3.35096,1.851,-1,5
79,3.35282,1.852,-1,5
80,3.35467,1.851,-1,5
81,3.35651,1.847,-1,5
82,3.35836,1.849,-1,5
83,3.36022,1.865,-1,5
84,3.36209,1.865,-1,5
85,3.36395,1.868,-1,5
86,3.36582,1.863,-1,5
87,3.36768,1.862,-1,5
88,3.36955,1.871,-1,5
89,3.37143,1.882,-1,5
90,3.37332,1.887,-1,5
91,3.37520,1.881,-1,5
92,3.37707,1.874,-1,5
93,3.37896,1.888,-1,5
94,3.38086,1.902,-1,5
95,3.38277,1.908,-1,5
96,3.38467,1.894,-1,5
97,3.38656,1.890,-1,5
98,3.38846,1.905,-1,5
99,3.39038,1.920,-1,5
100,3.39230,1.923,-1,5
101,3.39422,1.913,-1,5
102,3.39613,1.912,-1,5
103,3.39805,1.923,-1,5
104,3.39998,1.933,-1,5
105,3.40193,1.942,-1,5
106,3.40386,1.938,-1,5
107,3.40580,1.932,-1,5
108,3.40773,1.937,-1,5
109,3.40968,1.951,-1,5
110,3.41165,1.967,-1,5
111,3.41361,1.959,-1,5
112,3.41556,1.949,-1,5
113,3.41751,1.953,-1,5
114,3.41949,1.976,-1,5
115,3.42148,1.987,-1,5
116,3.42345,1.974,-1,5
117,3.42542,1.968,-1,5
118,3.42739,1.976,-1,5
119,3.42939,1.998,-1,5
120,3.43139,2.003,-1,5
121,3.43339,1.992,-1,5
122,3.43538,1.991,-1,5
123,3.43737,1.996,-1,5
124,3.43938,2.012,-1,5
125,3.44140,2.019,-1,5
126,3.44342,2.016,-1,5
127,3.44543,2.006,-1,5
128,3.44743,2.006,-1,5
129,3.44946,2.031,-1,5
130,3.45150,2.040,-1,5
131,3.45353,2.027,-1,5
132,3.45555,2.016,-1,5
133,3.45757,2.027,-1,5
134,3.45962,2.048,-1,5
135,3.46167,2.050,-1,5
136,3.46371,2.036,-1,5
137,3.46573,2.028,-1,5
138,3.46778,2.047,-1,5
139,3.46984,2.056,-1,5
140,3.47189,2.055,-1,5
141,3.47394,2.045,-1,5
142,3.47598,2.044,-1,5
143,3.47804,2.055,-1,5
144,3.48010,2.060,-1,5
145,3.48216,2.062,-1,5
146,3.48421,2.051,-1,5
147,3.48626,2.052,-1,5
148,3.48832,2.059,-1,5
149,3.49039,2.067,-1,5
150,3.49245,2.062,-1,5
151,3.49450,2.054,-1,5
152,3.49656,2.058,-1,5
153,3.49863,2.064,-1,5
154,3.50069,2.064,-1,5
155,3.50274,2.056,-1,5
156,3.50480,2.059,-1,5
157,3.50687,2.064,-1,5
158,3.50893,2.061,-1,5
159,3.51098,2.053,-1,5
160,3.51304,2.057,-1,5
161,3.51510,2.056,-1,5
162,3.51716,2.056,-1,5
163,3.51921,2.051,-1,5
164,3.52331,2.055,-1,5
165,3.52536,2.050,-1,5
166,3.52741,2.044,-1,5
167,3.52945,2.043,-1,5
168,3.53149,2.043,-1,5
169,3.53354,2.041,-1,5
170,3.53557,2.034,-1,5
171,3.53760,2.032,-1,5
172,3.53963,2.029,-1,5
173,3.54165,2.023,-1,5
174,3.54368,2.025,-1,5
175,3.54570,2.018,-1,5
176,3.54771,2.011,-1,5
177,3.54971,2.005,-1,5
178,3.55172,2.004,-1,5
179,3.55372,2.005,-1,5
180,3.55571,1.990,-1,5
181,3.55769,1.981,-1,5
182,3.55967,1.975,-1,5
183,3.56165,1.983,-1,5
184,3.56363,1.975,-1,5
185,3.56558,1.953,-1,5
186,3.56753,1.946,-1,5
187,3.56948,1.950,-1,5
188,3.57143,1.951,-1,5
189,3.57336,1.930,-1,5
190,3.57527,1.915,-1,5
191,3.57719,1.916,-1,5
192,3.57911,1.918,-1,5
193,3.58101,1.905,-1,5
194,3.58290,1.885,-1,5
195,3.58478,1.880,-1,5
196,3.58666,1.880,-1,5
197,3.58853,1.869,-1,5
198,3.59038,1.858,-1,5
199,3.59223,1.847,-1,5
200,3.59407,1.840,-1,5
201,3.59590,1.830,-1,5
202,3.59772,1.818,-1,5
203,3.59954,1.819,-1,5
204,3.60135,1.808,-1,5
205,3.60313,1.789,-1,5
206,3.60491,1.777,-1,5
207,3.60846,1.776,-1,5
208,3.61023,1.764,-1,5
209,3.61196,1.734,-1,5
210,3.61369,1.728,-1,5
211,3.61542,1.733,-1,5
212,3.61716,1.732,-1,5
213,3.61887,1.710,-1,5
214,3.62055,1.682,-1,5
215,3.62223,1.679,-1,5
216,3.62392,1.690,-1,5
217,3.62560,1.681,-1,5
218,3.62725,1.654,-1,5
219,3.62889,1.635,-1,5
220,3.63052,1.635,-1,5
221,3.63217,1.646,-1,5
222,3.63380,1.629,-1,5
223,3.63540,1.599,-1,5
224,3.63699,1.591,-1,5
225,3.63859,1.598,-1,5
226,3.64018,1.592,-1,5
227,3.64175,1.574,-1,5
228,3.64330,1.550,-1,5
229,3.64485,1.549,-1,5
230,3.64641,1.559,-1,5
231,3.64795,1.543,-1,5
232,3.64947,1.517,-1,5
233,3.65098,1.504,-1,5
234,3.65249,1.513,-1,5
235,3.65400,1.511,-1,5
236,3.65698,1.474,-1,5
237,3.65843,1.459,-1,5
238,3.65991,1.472,-1,5
239,3.66138,1.476,-1,5
240,3.66283,1.453,-1,5
241,3.66427,1.432,-1,5
242,3.66569,1.427,-1,5
243,3.66712,1.429,-1,5
244,3.66855,1.428,-1,5
245,3.66997,1.415,-1,5
246,3.67136,1.396,-1,5
247,3.67274,1.384,-1,5
248,3.67414,1.391,-1,5
249,3.67553,1.390,-1,5
250,3.67690,1.375,-1,5
251,3.67826,1.358,-1,5
252,3.67961,1.356,-1,5
253,3.68097,1.351,-1,5
254,3.68366,1.342,-1,5
255,3.68366,1.333,-1,5
256,3.68632,1.321,-1,5
257,3.68764,1.322,-1,5
258,3.68897,1.324,-1,5
259,3.69028,1.312,-1,5
260,3.69028,1.298,-1,5
261,3.69287,1.298,-1,5
262,3.69417,1.300,-1,5
263,3.69546,1.290,-1,5
264,3.69674,1.279,-1,5
265,3.69802,1.276,-1,5
266,3.69929,1.272,-1,5
267,3.70056,1.270,-1,5
268,3.70182,1.265,-1,5
269,3.70309,1.261,-1,5
270,3.70434,1.251,-1,5
271,3.70558,1.242,-1,5
272,3.70682,1.246,-1,5
273,3.70807,1.247,-1,5
274,3.70931,1.237,-1,5
275,3.71053,1.225,-1,5
276,3.71176,1.227,-1,5
277,3.71299,1.231,-1,5
278,3.71421,1.218,-1,5
279,3.71542,1.213,-1,5
280,3.71664,1.214,-1,5
281,3.71906,1.207,-1,5
282,3.72026,1.197,-1,5
283,3.72026,1.202,-1,5
284,3.72266,1.201,-1,5
285,3.72266,1.190,-1,5
286,3.72504,1.190,-1,5
287,3.72504,1.191,-1,5
288,3.72741,1.185,-1,5
289,3.72859,1.174,-1,5
290,3.72976,1.176,-1,5
291,3.73095,1.183,-1,5
292,3.73213,1.178,-1,5
293,3.73329,1.165,-1,5
294,3.73445,1.159,-1,5
295,3.73562,1.168,-1,5
296,3.73679,1.168,-1,5
297,3.73794,1.158,-1,5
298,3.73910,1.153,-1,5
299,3.74026,1.159,-1,5
300,3.74142,1.161,-1,5
301,3.74257,1.149,-1,5
302,3.74371,1.142,-1,5
303,3.74485,1.146,-1,5
304,3.74600,1.151,-1,5
305,3.74715,1.145,-1,5
306,3.74829,1.138,-1,5
307,3.74943,1.141,-1,5
308,3.75057,1.139,-1,5
309,3.75170,1.131,-1,5
310,3.75283,1.127,-1,5
311,3.75396,1.133,-1,5
312,3.75510,1.138,-1,5
313,3.75623,1.128,-1,5
314,3.75734,1.118,-1,5
315,3.75847,1.123,-1,5
316,3.75959,1.129,-1,5
317,3.76072,1.120,-1,5
318,3.76183,1.111,-1,5
319,3.76294,1.115,-1,5
320,3.76407,1.126,-1,5
321,3.76519,1.119,-1,5
322,3.76629,1.105,-1,5
323,3.76739,1.104,-1,5
324,3.76851,1.116,-1,5
325,3.76963,1.118,-1,5
326,3.77073,1.105,-1,5
327,3.77183,1.099,-1,5
328,3.77406,1.115,-1,5
329,3.77516,1.103,-1,5
330,3.77516,1.103,-1,5
331,3.77625,1.093,-1,5
332,3.77735,1.102,-1,5
333,3.77847,1.115,-1,5
334,3.77958,1.107,-1,5
335,3.78067,1.091,-1,5
336,3.78176,1.091,-1,5
337,3.78287,1.106,-1,5
338,3.78506,1.093,-1,5
339,3.78615,1.090,-1,5
340,3.78726,1.102,-1,5
341,3.78836,1.107,-1,5
342,3.78946,1.093,-1,5
343,3.79054,1.083,-1,5
344,3.79163,1.095,-1,5
345,3.79274,1.107,-1,5
346,3.79384,1.100,-1,5
347,3.79493,1.089,-1,5
348,3.79602,1.106,-1,5
349,3.79713,1.106,-1,5
350,3.79823,1.092,-1,5
351,3.79932,1.092,-1,5
352,3.80042,1.095,-1,5
353,3.80153,1.111,-1,5
354,3.80265,1.115,-1,5
355,3.80375,1.101,-1,5
356,3.80484,1.096,-1,5
357,3.80595,1.111,-1,5
358,3.80707,1.121,-1,5
359,3.80819,1.112,-1,5
360,3.80929,1.104,-1,5
361,3.81041,1.117,-1,5
362,3.81154,1.135,-1,5
363,3.81267,1.128,-1,5
364,3.81379,1.116,-1,5
365,3.81491,1.122,-1,5
366,3.81720,1.147,-1,5
367,3.81720,1.140,-1,5
368,3.81948,1.142,-1,5
369,3.81948,1.158,-1,5
370,3.82180,1.167,-1,5
371,3.82297,1.161,-1,5
372,3.82413,1.165,-1,5
373,3.82531,1.184,-1,5
374,3.82651,1.195,-1,5
375,3.82771,1.195,-1,5
376,3.82890,1.197,-1,5
377,3.83011,1.210,-1,5
378,3.83133,1.222,-1,5
379,3.83257,1.230,-1,5
380,3.83380,1.239,-1,5
381,3.83506,1.253,-1,5
382,3.83632,1.260,-1,5
383,3.83758,1.266,-1,5
384,3.83886,1.280,-1,5
385,3.84016,1.296,-1,5
386,3.84146,1.306,-1,5
387,3.84278,1.333,-1,5
388,3.84411,1.333,-1,5
389,3.84545,1.348,-1,5
390,3.84680,1.348,-1,5
391,3.84817,1.393,-1,5
392,3.84956,1.393,-1,5
393,3.85097,1.406,-1,5
394,3.85380,1.424,-1,5
395,3.85524,1.445,-1,5
396,3.85524,1.462,-1,5
397,3.85670,1.462,-1,5
398,3.85818,1.487,-1,5
399,3.85967,1.487,-1,5
400,3.86117,1.498,-1,5
401,3.86269,1.524,-1,5
402,3.86424,1.548,-1,5
403,3.86579,1.555,-1,5
404,3.86736,1.568,-1,5
405,3.86895,1.585,-1,5
406,3.87055,1.606,-1,5
407,3.87218,1.628,-1,5
408,3.87383,1.644,-1,5
409,3.87548,1.652,-1,5
410,3.87715,1.669,-1,5
411,3.87884,1.694,-1,5
412,3.88056,1.716,-1,5
413,3.88229,1.731,-1,5
414,3.88403,1.739,-1,5
415,3.88578,1.752,-1,5
416,3.88756,1.779,-1,5
417,3.88936,1.802,-1,5
418,3.89118,1.817,-1,5
419,3.89300,1.824,-1,5
420,3.89483,1.832,-1,5
421,3.89669,1.862,-1,5
422,3.89858,1.887,-1,5
423,3.90048,1.898,-1,5
424,3.90238,1.899,-1,5
425,3.90429,1.914,-1,5
426,3.90624,1.947,-1,5
427,3.90821,1.968,-1,5
428,3.91017,1.969,-1,5
429,3.91215,1.977,-1,5
430,3.91415,1.998,-1,5
431,3.91618,2.027,-1,5
432,3.91821,2.037,-1,5
433,3.92026,2.044,-1,5
434,3.92231,2.055,-1,5
435,3.92439,2.077,-1,5
436,3.92649,2.096,-1,5
437,3.92859,2.108,-1,5
438,3.93071,2.119,-1,5
439,3.93284,2.126,-1,5
440,3.93499,2.145,-1,5
441,3.93715,2.164,-1,5
442,3.93933,2.179,-1,5
443,3.94151,2.181,-1,5
444,3.94370,2.191,-1,5
445,3.94591,2.209,-1,5
446,3.94814,2.230,-1,5
447,3.95038,2.236,-1,5
448,3.95261,2.239,-1,5
449,3.95486,2.248,-1,5
450,3.95713,2.267,-1,5
451,3.95941,2.282,-1,5
452,3.96170,2.290,-1,5
453,3.96399,2.290,-1,5
454,3.96629,2.296,-1,5
455,3.96861,2.320,-1,5
456,3.97094,2.329,-1,5
457,3.97327,2.330,-1,5
458,3.97560,2.331,-1,5
459,3.97794,2.346,-1,5
460,3.98266,2.362,-1,5
461,3.98502,2.363,-1,5
462,3.98740,2.373,-1,5
463,3.98977,2.373,-1,5
464,3.99216,2.387,-1,5
465,3.99455,2.389,-1,5
466,3.99694,2.392,-1,5
467,3.99933,2.395,-1,5
468,4.00173,2.398,-1,5
469,4.00413,2.402,-1,5
470,4.00654,2.410,-1,5
471,4.00896,2.411,-1,5
472,4.01136,2.409,-1,5
473,4.01378,2.411,-1,5
474,4.01619,2.419,-1,5
475,4.01862,2.423,-1,5
476,4.02103,2.417,-1,5
477,4.02345,2.419,-1,5
478,4.02588,2.428,-1,5
479,4.02831,2.430,-1,5
480,4.03074,2.424,-1,5
481,4.03316,2.430,-1,5
482,4.03560,2.432,-1,5
483,4.03803,2.435,-1,5
484,4.04046,2.434,-1,5
485,4.04290,2.439,-1,5
486,4.04534,2.438,-1,5
487,4.04778,2.438,-1,5
488,4.05022,2.441,-1,5
489,4.05267,2.445,-1,5
490,4.05511,2.444,-1,5
491,4.05756,2.445,-1,5
492,4.06000,2.442,-1,5
493,4.06244,2.445,-1,5
494,4.06489,2.446,-1,5
495,4.06733,2.442,-1,5
496,4.06977,2.438,-1,5
497,4.07221,2.444,-1,5
498,4.07465,2.428,-1,5
499,4.07950,2.424,-1,5
500,4.08193,2.427,-1,5
501,4.08435,2.417,-1,5
502,4.08675,2.406,-1,5
503,4.08915,2.399,-1,5
504,4.09154,2.393,-1,5
505,4.09392,2.379,-1,5
506,4.09629,2.370,-1,5
507,4.09865,2.358,-1,5
508,4.10100,2.345,-1,5
509,4.10333,2.335,-1,5
510,4.10565,2.321,-1,5
511,4.10796,2.302,-1,5
512,4.11025,2.297,-1,5
513,4.11253,2.279,-1,5
514,4.11479,2.259,-1,5
515,4.11703,2.243,-1,5
516,4.11927,2.237,-1,5
517,4.12149,2.219,-1,5
518,4.12368,2.195,-1,5
519,4.12586,2.178,-1,5
520,4.12803,2.171,-1,5
521,4.13019,2.154,-1,5
522,4.13232,2.133,-1,5
523,4.13443,2.112,-1,5
524,4.13653,2.103,-1,5
525,4.13862,2.087,-1,5
526,4.14069,2.069,-1,5
527,4.14274,2.049,-1,5
528,4.14477,2.034,-1,5
529,4.14679,2.019,-1,5
530,4.14879,2.000,-1,5
531,4.15078,1.987,-1,5
532,4.15274,1.962,-1,5
533,4.15468,1.944,-1,5
534,4.15662,1.934,-1,5
535,4.15854,1.918,-1,5
536,4.16230,1.869,-1,5
537,4.16416,1.858,-1,5
538,4.16601,1.851,-1,5
539,4.16784,1.827,-1,5
540,4.16963,1.796,-1,5
541,4.17140,1.774,-1,5
542,4.17317,1.770,-1,5
543,4.17494,1.764,-1,5
544,4.17667,1.728,-1,5
545,4.17836,1.694,-1,5
546,4.18004,1.681,-1,5
547,4.18172,1.665,-1,5
548,4.18338,1.665,-1,5
549,4.18502,1.631,-1,5
550,4.18661,1.597,-1,5
551,4.18820,1.586,-1,5
552,4.18978,1.582,-1,5
553,4.19135,1.564,-1,5
554,4.19439,1.504,-1,5
555,4.19588,1.491,-1,5
556,4.19736,1.486,-1,5
557,4.19883,1.471,-1,5
558,4.20027,1.438,-1,5
559,4.20169,1.413,-1,5
560,4.20309,1.406,-1,5
561,4.20449,1.395,-1,5
562,4.20586,1.374,-1,5
563,4.20721,1.346,-1,5
564,4.20853,1.321,-1,5
565,4.20984,1.311,-1,5
566,4.21115,1.309,-1,5
567,4.21244,1.295,-1,5
568,4.21370,1.256,-1,5
569,4.21493,1.229,-1,5
570,4.21615,1.223,-1,5
571,4.21738,1.224,-1,5
572,4.21858,1.206,-1,5
573,4.21976,1.175,-1,5
574,4.22091,1.154,-1,5
575,4.22205,1.142,-1,5
576,4.22318,1.129,-1,5
577,4.22430,1.117,-1,5
578,4.22540,1.102,-1,5
579,4.22648,1.081,-1,5
580,4.22754,1.061,-1,5
581,4.22859,1.046,-1,5
582,4.22963,1.024,-1,5
583,4.23165,0.999,-1,5
584,4.23263,0.978,-1,5
585,4.23360,0.970,-1,5
586,4.23457,0.971,-1,5
587,4.23552,0.952,-1,5
588,4.23644,0.924,-1,5
589,4.23734,0.898,-1,5
590,4.23824,0.894,-1,5
591,4.23914,0.899,-1,5
592,4.24002,0.886,-1,5
593,4.24088,0.854,-1,5
594,4.24170,0.829,-1,5
595,4.24253,0.827,-1,5
596,4.24337,0.834,-1,5
597,4.24419,0.823,-1,5
598,4.24498,0.793,-1,5
599,4.24575,0.765,-1,5
600,4.24651,0.760,-1,5
601,4.24728,0.768,-1,5
602,4.24805,0.745,-1,5
603,4.24879,0.745,-1,5
604,4.24951,0.718,-1,5
605,4.25021,0.705,-1,5
606,4.25092,0.708,-1,5
607,4.25163,0.712,-1,5
608,4.25233,0.699,-1,5
609,4.25301,0.676,-1,5
610,4.25367,0.657,-1,5
611,4.25432,0.656,-1,5
612,4.25498,0.658,-1,5
613,4.25563,0.650,-1,5
614,4.25626,0.632,-1,5
615,4.25688,0.618,-1,5
616,4.25749,0.616,-1,5
617,4.25811,0.614,-1,5
618,4.25872,0.607,-1,5
619,4.25931,0.591,-1,5
620,4.25988,0.577,-1,5
621,4.26046,0.573,-1,5
622,4.26103,0.576,-1,5
623,4.26160,0.572,-1,5
624,4.26216,0.558,-1,5
625,4.26270,0.543,-1,5
626,4.26324,0.538,-1,5
627,4.26378,0.539,-1,5
628,4.26432,0.537,-1,5
629,4.26485,0.526,-1,5
630,4.26536,0.509,-1,5
631,4.26638,0.511,-1,5
632,4.26638,0.511,-1,5
633,4.26739,0.499,-1,5
634,4.26739,0.487,-1,5
635,4.26835,0.482,-1,5
636,4.26835,0.486,-1,5
637,4.26933,0.484,-1,5
638,4.26980,0.478,-1,5
639,4.27027,0.469,-1,5
640,4.27074,0.467,-1,5
641,4.27121,0.468,-1,5
642,4.27167,0.467,-1,5
643,4.27214,0.462,-1,5
644,4.27259,0.452,-1,5
645,4.27304,0.451,-1,5
646,4.27349,0.454,-1,5
647,4.27395,0.452,-1,5
648,4.27439,0.448,-1,5
649,4.27484,0.442,-1,5
650,4.27528,0.440,-1,5
651,4.27572,0.446,-1,5
652,4.27617,0.444,-1,5
653,4.27661,0.441,-1,5
654,4.27705,0.438,-1,5
655,4.27748,0.439,-1,5
656,4.27793,0.445,-1,5
657,4.27837,0.444,-1,5
658,4.27882,0.442,-1,5
659,4.27926,0.440,-1,5
660,4.27970,0.440,-1,5
661,4.28014,0.447,-1,5
662,4.28059,0.447,-1,5
663,4.28104,0.446,-1,5
664,4.28148,0.444,-1,5
665,4.28193,0.445,-1,5
666,4.28237,0.450,-1,5
667,4.28283,0.452,-1,5
668,4.28327,0.449,-1,5
669,4.28417,0.449,-1,5
670,4.28417,0.455,-1,5
671,4.28463,0.455,-1,5
672,4.28509,0.459,-1,5
673,4.28554,0.457,-1,5
674,4.28600,0.456,-1,5
675,4.28646,0.459,-1,5
676,4.28739,0.467,-1,5
677,4.28786,0.467,-1,5
678,4.28832,0.464,-1,5
679,4.28879,0.467,-1,5
680,4.28926,0.474,-1,5
681,4.28974,0.475,-1,5
682,4.29021,0.473,-1,5
683,4.29068,0.470,-1,5
684,4.29115,0.473,-1,5
685,4.29163,0.476,-1,5
686,4.29211,0.479,-1,5
687,4.29259,0.478,-1,5
688,4.29306,0.475,-1,5
689,4.29354,0.477,-1,5
690,4.29402,0.483,-1,5
691,4.29451,0.486,-1,5
692,4.29499,0.484,-1,5
693,4.29548,0.482,-1,5
694,4.29596,0.484,-1,5
695,4.29645,0.490,-1,5
696,4.29694,0.491,-1,5
697,4.29743,0.489,-1,5
698,4.29791,0.485,-1,5
699,4.29840,0.489,-1,5
700,4.29890,0.493,-1,5
701,4.29939,0.494,-1,5
702,4.29988,0.491,-1,5
703,4.30037,0.488,-1,5
704,4.30086,0.490,-1,5
705,4.30135,0.493,-1,5
706,4.30185,0.494,-1,5
707,4.30234,0.491,-1,5
708,4.30283,0.488,-1,5
709,4.30332,0.490,-1,5
710,4.30381,0.494,-1,5
711,4.30430,0.495,-1,5
712,4.30479,0.489,-1,5
713,4.30528,0.486,-1,5
714,4.30577,0.485,-1,5
715,4.30625,0.489,-1,5
716,4.30674,0.488,-1,5
717,4.30723,0.485,-1,5
718,4.30771,0.479,-1,5
719,4.30819,0.482,-1,5
720,4.30867,0.482,-1,5
721,4.30915,0.483,-1,5
722,4.30962,0.475,-1,5
723,4.31009,0.469,-1,5
724,4.31104,0.472,-1,5
725,4.31150,0.469,-1,5
726,4.31197,0.463,-1,5
727,4.31243,0.458,-1,5
728,4.31288,0.456,-1,5
729,4.31334,0.457,-1,5
730,4.31380,0.456,-1,5
731,4.31424,0.448,-1,5
732,4.31469,0.445,-1,5
733,4.31513,0.442,-1,5
734,4.31557,0.441,-1,5
735,4.31601,0.440,-1,5
736,4.31645,0.435,-1,5
737,4.31688,0.431,-1,5
738,4.31730,0.427,-1,5
739,4.31773,0.426,-1,5
740,4.31815,0.424,-1,5
741,4.31857,0.419,-1,5
742,4.31899,0.413,-1,5
743,4.31940,0.412,-1,5
744,4.31981,0.408,-1,5
745,4.32022,0.402,-1,5
746,4.32062,0.402,-1,5
747,4.32102,0.397,-1,5
748,4.32141,0.393,-1,5
749,4.32181,0.395,-1,5
750,4.32220,0.390,-1,5
751,4.32258,0.387,-1,5
752,4.32296,0.381,-1,5
753,4.32334,0.378,-1,5
754,4.32372,0.380,-1,5
755,4.32410,0.378,-1,5
756,4.32447,0.374,-1,5
757,4.32484,0.370,-1,5
758,4.32521,0.367,-1,5
759,4.32558,0.367,-1,5
760,4.32594,0.366,-1,5
761,4.32631,0.363,-1,5
762,4.32666,0.356,-1,5
763,4.32702,0.356,-1,5
764,4.32737,0.353,-1,5
765,4.32808,0.352,-1,5
766,4.32808,0.348,-1,5
767,4.32843,0.346,-1,5
768,4.32877,0.346,-1,5
769,4.32947,0.346,-1,5
770,4.32981,0.343,-1,5
771,4.33015,0.340,-1,5
772,4.33049,0.337,-1,5
773,4.33082,0.339,-1,5
774,4.33116,0.336,-1,5
775,4.33150,0.335,-1,5
776,4.33183,0.332,-1,5
777,4.33216,0.330,-1,5
778,4.33249,0.332,-1,5
779,4.33282,0.330,-1,5
780,4.33315,0.329,-1,5
781,4.33348,0.329,-1,5
782,4.33381,0.330,-1,5
783,4.33414,0.331,-1,5
784,4.33447,0.330,-1,5
785,4.33480,0.330,-1,5
786,4.33513,0.329,-1,5
787,4.33546,0.329,-1,5
788,4.33579,0.332,-1,5
789,4.33612,0.330,-1,5
790,4.33645,0.329,-1,5
791,4.33678,0.330,-1,5
792,4.33711,0.330,-1,5
793,4.33744,0.333,-1,5
794,4.33778,0.332,-1,5
795,4.33811,0.334,-1,5
796,4.33845,0.335,-1,5
797,4.33878,0.336,-1,5
798,4.33912,0.339,-1,5
799,4.33946,0.340,-1,5
800,4.33980,0.340,-1,5
801,4.34014,0.341,-1,5
802,4.34048,0.343,-1,5
803,4.34083,0.343,-1,5
804,4.34117,0.346,-1,5
805,4.34152,0.345,-1,5
806,4.34187,0.350,-1,5
807,4.34222,0.352,-1,5
808,4.34257,0.353,-1,5
809,4.34293,0.356,-1,5
810,4.34329,0.360,-1,5
811,4.34365,0.363,-1,5
812,4.34401,0.363,-1,5
813,4.34438,0.367,-1,5
814,4.34475,0.370,-1,5
815,4.34512,0.370,-1,5
816,4.34549,0.375,-1,5
817,4.34587,0.377,-1,5
818,4.34625,0.377,-1,5
819,4.34663,0.380,-1,5
820,4.34701,0.382,-1,5
821,4.34739,0.384,-1,5
822,4.34778,0.387,-1,5
823,4.34817,0.388,-1,5
824,4.34856,0.391,-1,5
825,4.34895,0.395,-1,5
826,4.34975,0.397,-1,5
827,4.34975,0.399,-1,5
828,4.35054,0.400,-1,5
829,4.35054,0.401,-1,5
830,4.35135,0.404,-1,5
831,4.35175,0.405,-1,5
832,4.35216,0.408,-1,5
833,4.35216,0.408,-1,5
834,4.35298,0.412,-1,5
835,4.35339,0.412,-1,5
836,4.35381,0.413,-1,5
837,4.35422,0.413,-1,5
838,4.35463,0.415,-1,5
839,4.35505,0.414,-1,5
840,4.35546,0.416,-1,5
841,4.35588,0.415,-1,5
842,4.35630,0.417,-1,5
843,4.35671,0.415,-1,5
844,4.35713,0.416,-1,5
845,4.35796,0.416,-1,5
846,4.35796,0.414,-1,5
847,4.35837,0.414,-1,5
848,4.35878,0.413,-1,5
849,4.35919,0.410,-1,5
850,4.35961,0.411,-1,5
851,4.36001,0.407,-1,5
852,4.36042,0.405,-1,5
853,4.36082,0.402,-1,5
854,4.36122,0.400,-1,5
855,4.36162,0.397,-1,5
856,4.36201,0.395,-1,5
857,4.36240,0.393,-1,5
858,4.36279,0.387,-1,5
859,4.36318,0.386,-1,5
860,4.36356,0.382,-1,5
861,4.36394,0.378,-1,5
862,4.36431,0.374,-1,5
863,4.36468,0.365,-1,5
864,4.36504,0.365,-1,5
865,4.36541,0.361,-1,5
866,4.36576,0.348,-1,5
867,4.36611,0.346,-1,5
868,4.36646,0.341,-1,5
869,4.36680,0.335,-1,5
870,4.36713,0.326,-1,5
871,4.36778,0.320,-1,5
872,4.36809,0.316,-1,5
873,4.36840,0.309,-1,5
