cnt,pos,speed,Dir,Force,
1,0,2.5685,-1,2
2,0.00503993,2.5599,-1,2
3,0.00753999,2.5509,-1,2
4,0.01004,2.5419,-1,2
5,0.01004,2.5324,-1,2
6,0.0125301,2.5243,-1,2
7,0.0150201,2.5162,-1,2
8,0.0174899,2.5078,-1,2
9,0.0199499,2.4991,-1,2
10,0.0224001,2.4902,-1,2
11,0.0248501,2.4809,-1,2
12,0.0272801,2.4731,-1,2
13,0.0297,2.465,-1,2
14,0.03212,2.4567,-1,2
15,0.0345299,2.4484,-1,2
16,0.0369301,2.4392,-1,2
17,0.03932,2.4301,-1,2
18,0.0417001,2.4214,-1,2
19,0.04407,2.412,-1,2
20,0.0464301,2.403,-1,2
21,0.04878,2.3937,-1,2
22,0.0511301,2.3849,-1,2
23,0.0534601,2.3757,-1,2
24,0.0557899,2.3668,-1,2
25,0.05811,2.357,-1,2
26,0.06042,2.3472,-1,2
27,0.0627201,2.3374,-1,2
28,0.0672901,2.3277,-1,2
29,0.0695701,2.3187,-1,2
30,0.07184,2.3089,-1,2
31,0.0741,2.2997,-1,2
32,0.07635,2.2901,-1,2
33,0.0785899,2.2811,-1,2
34,0.0808201,2.2716,-1,2
35,0.08305,2.2631,-1,2
36,0.0852599,2.2545,-1,2
37,0.0874701,2.2458,-1,2
38,0.0896699,2.2373,-1,2
39,0.0918601,2.2286,-1,2
40,0.0940399,2.2201,-1,2
41,0.09621,2.2113,-1,2
42,0.0983701,2.2025,-1,2
43,0.10053,2.1939,-1,2
44,0.10268,2.1856,-1,2
45,0.10482,2.1777,-1,2
46,0.10696,2.1699,-1,2
47,0.10909,2.1619,-1,2
48,0.1112,2.1536,-1,2
49,0.11331,2.1456,-1,2
50,0.11542,2.1378,-1,2
51,0.11959,2.1291,-1,2
52,0.12167,2.1204,-1,2
53,0.12374,2.1116,-1,2
54,0.1258,2.1024,-1,2
55,0.12785,2.093,-1,2
56,0.12989,2.0838,-1,2
57,0.13193,2.0748,-1,2
58,0.13395,2.0658,-1,2
59,0.13597,2.0565,-1,2
60,0.13798,2.0468,-1,2
61,0.14197,2.0377,-1,2
62,0.14396,2.0286,-1,2
63,0.14593,2.0196,-1,2
64,0.1479,2.0105,-1,2
65,0.14987,2.0019,-1,2
66,0.15182,1.9933,-1,2
67,0.15378,1.985,-1,2
68,0.15572,1.9769,-1,2
69,0.15766,1.9694,-1,2
70,0.15961,1.9629,-1,2
71,0.16154,1.9574,-1,2
72,0.16348,1.9525,-1,2
73,0.16542,1.9484,-1,2
74,0.16735,1.9454,-1,2
75,0.1693,1.9436,-1,2
76,0.17125,1.9431,-1,2
77,0.17321,1.9436,-1,2
78,0.17518,1.9456,-1,2
79,0.17716,1.9493,-1,2
80,0.17916,1.9551,-1,2
81,0.18117,1.9643,-1,2
82,0.18525,1.9753,-1,2
83,0.18525,1.9881,-1,2
84,0.18939,2.0021,-1,2
85,0.18939,2.0163,-1,2
86,0.19148,2.0299,-1,2
87,0.19569,2.0452,-1,2
88,0.19781,2.0612,-1,2
89,0.19996,2.0775,-1,2
90,0.20211,2.0933,-1,2
91,0.20429,2.1073,-1,2
92,0.20868,2.1236,-1,2
93,0.21091,2.1402,-1,2
94,0.21316,2.1574,-1,2
95,0.21543,2.1753,-1,2
96,0.21772,2.1952,-1,2
97,0.22002,2.2145,-1,2
98,0.22234,2.2337,-1,2
99,0.22467,2.2524,-1,2
100,0.22702,2.2716,-1,2
101,0.22938,2.2904,-1,2
102,0.23175,2.3067,-1,2
103,0.23414,2.3226,-1,2
104,0.23654,2.3383,-1,2
105,0.23896,2.3535,-1,2
106,0.2414,2.3679,-1,2
107,0.24385,2.3829,-1,2
108,0.24882,2.4002,-1,2
109,0.25133,2.4183,-1,2
110,0.25386,2.4364,-1,2
111,0.25641,2.4554,-1,2
112,0.25898,2.4752,-1,2
113,0.26156,2.4949,-1,2
114,0.26416,2.5144,-1,2
115,0.26678,2.5343,-1,2
116,0.26942,2.5544,-1,2
117,0.27206,2.5737,-1,2
118,0.27473,2.5911,-1,2
119,0.27741,2.608,-1,2
120,0.28281,2.626,-1,2
121,0.28553,2.6438,-1,2
122,0.28828,2.6611,-1,2
123,0.29104,2.6788,-1,2
124,0.29382,2.6969,-1,2
125,0.29662,2.7147,-1,2
126,0.29943,2.7328,-1,2
127,0.30226,2.7512,-1,2
128,0.30511,2.7696,-1,2
129,0.30797,2.7878,-1,2
130,0.31085,2.8043,-1,2
131,0.31374,2.8207,-1,2
132,0.31665,2.837,-1,2
133,0.31957,2.8526,-1,2
134,0.3225,2.8678,-1,2
135,0.32545,2.8827,-1,2
136,0.32841,2.8975,-1,2
137,0.33139,2.9125,-1,2
138,0.33439,2.9273,-1,2
139,0.3374,2.9426,-1,2
140,0.34043,2.9585,-1,2
141,0.34655,2.976,-1,2
142,0.34963,2.9937,-1,2
143,0.35273,3.0115,-1,2
144,0.35584,3.0291,-1,2
145,0.35897,3.0472,-1,2
146,0.36211,3.0651,-1,2
147,0.36526,3.0822,-1,2
148,0.36843,3.0993,-1,2
149,0.3748,3.1169,-1,2
150,0.378,3.1341,-1,2
151,0.38446,3.151,-1,2
152,0.38771,3.168,-1,2
153,0.39098,3.1849,-1,2
154,0.39425,3.2016,-1,2
155,0.39754,3.2177,-1,2
156,0.40085,3.234,-1,2
157,0.40417,3.2506,-1,2
158,0.4075,3.267,-1,2
159,0.41084,3.2822,-1,2
160,0.41419,3.2969,-1,2
161,0.41755,3.3096,-1,2
162,0.42093,3.3216,-1,2
163,0.42431,3.3332,-1,2
164,0.4277,3.3447,-1,2
165,0.4311,3.3558,-1,2
166,0.43451,3.3665,-1,2
167,0.43793,3.3768,-1,2
168,0.44136,3.3865,-1,2
169,0.4448,3.3962,-1,2
170,0.44825,3.4059,-1,2
171,0.45171,3.4153,-1,2
172,0.45517,3.4246,-1,2
173,0.45865,3.4342,-1,2
174,0.46214,3.4448,-1,2
175,0.46563,3.4548,-1,2
176,0.47265,3.4651,-1,2
177,0.47617,3.4751,-1,2
178,0.4797,3.485,-1,2
179,0.48324,3.4946,-1,2
180,0.48324,3.5037,-1,2
181,0.49033,3.5128,-1,2
182,0.49388,3.5215,-1,2
183,0.49743,3.5293,-1,2
184,0.501,3.5356,-1,2
185,0.50456,3.5423,-1,2
186,0.50813,3.5483,-1,2
187,0.51529,3.554,-1,2
188,0.51887,3.5593,-1,2
189,0.51887,3.5644,-1,2
190,0.52604,3.5689,-1,2
191,0.52963,3.5732,-1,2
192,0.53322,3.5773,-1,2
193,0.53682,3.5815,-1,2
194,0.54042,3.5849,-1,2
195,0.54401,3.5879,-1,2
196,0.54762,3.5905,-1,2
197,0.55122,3.5929,-1,2
198,0.55482,3.5951,-1,2
199,0.55842,3.5967,-1,2
200,0.56202,3.5982,-1,2
201,0.56562,3.5993,-1,2
202,0.56922,3.5999,-1,2
203,0.57283,3.6002,-1,2
204,0.57643,3.6008,-1,2
205,0.58003,3.6013,-1,2
206,0.58363,3.6012,-1,2
207,0.58722,3.6006,-1,2
208,0.59082,3.5998,-1,2
209,0.59441,3.5989,-1,2
210,0.598,3.598,-1,2
211,0.60518,3.5969,-1,2
212,0.60877,3.5958,-1,2
213,0.61236,3.5945,-1,2
214,0.61595,3.5929,-1,2
215,0.61953,3.5912,-1,2
216,0.62311,3.5898,-1,2
217,0.62669,3.5882,-1,2
218,0.63027,3.586,-1,2
219,0.63383,3.5834,-1,2
220,0.6374,3.5808,-1,2
221,0.64096,3.5779,-1,2
222,0.64807,3.574,-1,2
223,0.65162,3.5697,-1,2
224,0.65515,3.5648,-1,2
225,0.65869,3.5597,-1,2
226,0.66222,3.5542,-1,2
227,0.66575,3.5493,-1,2
228,0.66928,3.5452,-1,2
229,0.67282,3.5422,-1,2
230,0.67635,3.5392,-1,2
231,0.67988,3.5359,-1,2
232,0.6834,3.5324,-1,2
233,0.68691,3.5286,-1,2
234,0.69041,3.5258,-1,2
235,0.69392,3.5235,-1,2
236,0.69743,3.5211,-1,2
237,0.70093,3.5178,-1,2
238,0.70442,3.5134,-1,2
239,0.7079,3.5078,-1,2
240,0.71137,3.5018,-1,2
241,0.71485,3.4965,-1,2
242,0.71832,3.4924,-1,2
243,0.72179,3.4886,-1,2
244,0.72525,3.4835,-1,2
245,0.7287,3.4778,-1,2
246,0.73215,3.4719,-1,2
247,0.7356,3.4668,-1,2
248,0.73904,3.4624,-1,2
249,0.74248,3.4578,-1,2
250,0.74591,3.4532,-1,2
251,0.74933,3.448,-1,2
252,0.75617,3.4422,-1,2
253,0.75958,3.4365,-1,2
254,0.76298,3.4311,-1,2
255,0.76638,3.4257,-1,2
256,0.76978,3.4204,-1,2
257,0.77317,3.415,-1,2
258,0.77656,3.4094,-1,2
259,0.77994,3.404,-1,2
260,0.78332,3.3989,-1,2
261,0.78669,3.394,-1,2
262,0.79343,3.3895,-1,2
263,0.7968,3.3847,-1,2
264,0.80016,3.3807,-1,2
265,0.80352,3.3771,-1,2
266,0.80688,3.3735,-1,2
267,0.81024,3.37,-1,2
268,0.81359,3.3668,-1,2
269,0.81695,3.3641,-1,2
270,0.8203,3.3614,-1,2
271,0.82365,3.359,-1,2
272,0.827,3.3566,-1,2
273,0.83035,3.3551,-1,2
274,0.83369,3.3534,-1,2
275,0.83704,3.3516,-1,2
276,0.84038,3.3502,-1,2
277,0.84373,3.3489,-1,2
278,0.84707,3.3475,-1,2
279,0.85041,3.3465,-1,2
280,0.85376,3.3455,-1,2
281,0.8571,3.3449,-1,2
282,0.86045,3.3447,-1,2
283,0.86379,3.3442,-1,2
284,0.86714,3.3443,-1,2
285,0.87049,3.3447,-1,2
286,0.87384,3.3454,-1,2
287,0.87719,3.3462,-1,2
288,0.88055,3.3478,-1,2
289,0.88391,3.3495,-1,2
290,0.88728,3.3519,-1,2
291,0.89064,3.3544,-1,2
292,0.89402,3.3572,-1,2
293,0.8974,3.3606,-1,2
294,0.90078,3.3638,-1,2
295,0.90416,3.3672,-1,2
296,0.90755,3.3709,-1,2
297,0.91094,3.3748,-1,2
298,0.91434,3.3789,-1,2
299,0.91775,3.3834,-1,2
300,0.92116,3.3883,-1,2
301,0.92458,3.3936,-1,2
302,0.92801,3.3995,-1,2
303,0.93145,3.4055,-1,2
304,0.9349,3.4121,-1,2
305,0.93836,3.4196,-1,2
306,0.94182,3.4277,-1,2
307,0.9453,3.4363,-1,2
308,0.94879,3.4456,-1,2
309,0.9523,3.4556,-1,2
310,0.95582,3.4662,-1,2
311,0.95936,3.4776,-1,2
312,0.9629,3.4891,-1,2
313,0.96647,3.5019,-1,2
314,0.97005,3.515,-1,2
315,0.97364,3.5286,-1,2
316,0.97725,3.5424,-1,2
317,0.98087,3.5571,-1,2
318,0.98451,3.5719,-1,2
319,0.98817,3.5871,-1,2
320,0.99185,3.6024,-1,2
321,0.99553,3.6176,-1,2
322,0.99924,3.6332,-1,2
323,1.00296,3.6486,-1,2
324,1.00669,3.6643,-1,2
325,1.01421,3.6817,-1,2
326,1.0218,3.7011,-1,2
327,1.02562,3.7204,-1,2
328,1.02945,3.7403,-1,2
329,1.03331,3.7606,-1,2
330,1.0372,3.7815,-1,2
331,1.04111,3.8042,-1,2
332,1.04506,3.8288,-1,2
333,1.04903,3.854,-1,2
334,1.05301,3.8783,-1,2
335,1.057,3.9009,-1,2
336,1.06102,3.9229,-1,2
337,1.06507,3.946,-1,2
338,1.06914,3.9688,-1,2
339,1.07322,3.9904,-1,2
340,1.07731,4.0117,-1,2
341,1.08558,4.0349,-1,2
342,1.08974,4.056,-1,2
343,1.09392,4.0763,-1,2
344,1.09811,4.0978,-1,2
345,1.10233,4.1201,-1,2
346,1.10655,4.1409,-1,2
347,1.1108,4.1608,-1,2
348,1.11506,4.18,-1,2
349,1.11934,4.1997,-1,2
350,1.12363,4.2194,-1,2
351,1.12794,4.2354,-1,2
352,1.13225,4.2509,-1,2
353,1.13658,4.2661,-1,2
354,1.14092,4.281,-1,2
355,1.14527,4.2948,-1,2
356,1.14964,4.3082,-1,2
357,1.15401,4.3206,-1,2
358,1.15839,4.3328,-1,2
359,1.16278,4.3442,-1,2
360,1.16718,4.3548,-1,2
361,1.17159,4.365,-1,2
362,1.176,4.3752,-1,2
363,1.18043,4.3848,-1,2
364,1.18485,4.3935,-1,2
365,1.18929,4.4014,-1,2
366,1.19373,4.4092,-1,2
367,1.19817,4.4165,-1,2
368,1.20263,4.4236,-1,2
369,1.20708,4.4301,-1,2
370,1.21154,4.436,-1,2
371,1.22045,4.441,-1,2
372,1.22491,4.4454,-1,2
373,1.22937,4.4491,-1,2
374,1.23384,4.4526,-1,2
375,1.2383,4.4556,-1,2
376,1.24276,4.4578,-1,2
377,1.24723,4.4596,-1,2
378,1.25169,4.461,-1,2
379,1.25616,4.4624,-1,2
380,1.26063,4.4632,-1,2
381,1.26509,4.4638,-1,2
382,1.26956,4.464,-1,2
383,1.27402,4.4642,-1,2
384,1.28294,4.464,-1,2
385,1.28294,4.4637,-1,2
386,1.2874,4.4636,-1,2
387,1.29186,4.4633,-1,2
388,1.29632,4.4627,-1,2
389,1.30078,4.4614,-1,2
390,1.30523,4.4602,-1,2
391,1.30968,4.4587,-1,2
392,1.31413,4.4575,-1,2
393,1.31858,4.456,-1,2
394,1.32303,4.4546,-1,2
395,1.32747,4.4526,-1,2
396,1.33191,4.4504,-1,2
397,1.33634,4.4478,-1,2
398,1.34077,4.4449,-1,2
399,1.3452,4.4422,-1,2
400,1.34962,4.4392,-1,2
401,1.35405,4.4365,-1,2
402,1.36288,4.4325,-1,2
403,1.36728,4.4285,-1,2
404,1.37169,4.4243,-1,2
405,1.37608,4.4198,-1,2
406,1.38047,4.4147,-1,2
407,1.38485,4.4093,-1,2
408,1.38922,4.4031,-1,2
409,1.39358,4.396,-1,2
410,1.39792,4.3883,-1,2
411,1.40226,4.3797,-1,2
412,1.41091,4.3705,-1,2
413,1.41523,4.3612,-1,2
414,1.41953,4.3513,-1,2
415,1.42384,4.3421,-1,2
416,1.42814,4.3331,-1,2
417,1.43242,4.324,-1,2
418,1.4367,4.3151,-1,2
419,1.44097,4.3062,-1,2
420,1.44524,4.2978,-1,2
421,1.44949,4.2894,-1,2
422,1.45373,4.2821,-1,2
423,1.45797,4.2742,-1,2
424,1.4622,4.2663,-1,2
425,1.46642,4.258,-1,2
426,1.47062,4.2488,-1,2
427,1.47482,4.2394,-1,2
428,1.47901,4.2301,-1,2
429,1.48318,4.2211,-1,2
430,1.48735,4.2119,-1,2
431,1.49152,4.2028,-1,2
432,1.49567,4.1936,-1,2
433,1.49981,4.1843,-1,2
434,1.50394,4.1747,-1,2
435,1.51217,4.1637,-1,2
436,1.51627,4.1531,-1,2
437,1.52037,4.1432,-1,2
438,1.52446,4.1331,-1,2
439,1.52853,4.123,-1,2
440,1.5326,4.1122,-1,2
441,1.53665,4.1013,-1,2
442,1.54069,4.0901,-1,2
443,1.54472,4.0792,-1,2
444,1.55277,4.068,-1,2
445,1.55678,4.0578,-1,2
446,1.56077,4.0469,-1,2
447,1.56476,4.036,-1,2
448,1.56874,4.0253,-1,2
449,1.57271,4.015,-1,2
450,1.57667,4.0049,-1,2
451,1.58062,3.9946,-1,2
452,1.58456,3.9842,-1,2
453,1.58849,3.974,-1,2
454,1.59241,3.9643,-1,2
455,1.59633,3.9549,-1,2
456,1.60023,3.9459,-1,2
457,1.60412,3.9364,-1,2
458,1.608,3.9264,-1,2
459,1.61187,3.9162,-1,2
460,1.61573,3.9061,-1,2
461,1.61959,3.8965,-1,2
462,1.62343,3.8871,-1,2
463,1.62726,3.8773,-1,2
464,1.63109,3.8673,-1,2
465,1.6349,3.8568,-1,2
466,1.6387,3.8469,-1,2
467,1.64249,3.8372,-1,2
468,1.64628,3.8277,-1,2
469,1.65005,3.8178,-1,2
470,1.65382,3.8081,-1,2
471,1.65757,3.7984,-1,2
472,1.66132,3.7885,-1,2
473,1.66505,3.7788,-1,2
474,1.66878,3.769,-1,2
475,1.67619,3.7582,-1,2
476,1.67989,3.7474,-1,2
477,1.68357,3.7365,-1,2
478,1.68725,3.7258,-1,2
479,1.69092,3.7155,-1,2
480,1.69458,3.7046,-1,2
481,1.69822,3.6933,-1,2
482,1.70185,3.6821,-1,2
483,1.70548,3.6713,-1,2
484,1.71271,3.66,-1,2
485,1.71631,3.6496,-1,2
486,1.7199,3.6389,-1,2
487,1.72347,3.628,-1,2
488,1.72704,3.6172,-1,2
489,1.73061,3.6067,-1,2
490,1.73416,3.5968,-1,2
491,1.73771,3.5867,-1,2
492,1.74124,3.5765,-1,2
493,1.74476,3.5661,-1,2
494,1.74828,3.5563,-1,2
495,1.75178,3.5472,-1,2
496,1.75528,3.5381,-1,2
497,1.75877,3.5291,-1,2
498,1.76225,3.5202,-1,2
499,1.76572,3.5108,-1,2
500,1.76918,3.5011,-1,2
501,1.77263,3.4921,-1,2
502,1.77607,3.4833,-1,2
503,1.7795,3.4741,-1,2
504,1.78292,3.465,-1,2
505,1.78634,3.4555,-1,2
506,1.78974,3.4461,-1,2
507,1.79314,3.437,-1,2
508,1.79652,3.4275,-1,2
509,1.7999,3.4181,-1,2
510,1.80326,3.4079,-1,2
511,1.80997,3.3974,-1,2
512,1.81331,3.3868,-1,2
513,1.81663,3.3762,-1,2
514,1.81995,3.3658,-1,2
515,1.82326,3.3557,-1,2
516,1.82656,3.3455,-1,2
517,1.82985,3.3348,-1,2
518,1.83313,3.3232,-1,2
519,1.83966,3.3115,-1,2
520,1.84291,3.3011,-1,2
521,1.84615,3.2906,-1,2
522,1.84939,3.2802,-1,2
523,1.85261,3.2698,-1,2
524,1.85582,3.2593,-1,2
525,1.85903,3.2486,-1,2
526,1.86222,3.2382,-1,2
527,1.86541,3.2279,-1,2
528,1.86859,3.2187,-1,2
529,1.87176,3.2096,-1,2
530,1.87492,3.2004,-1,2
531,1.87807,3.1913,-1,2
532,1.88121,3.1827,-1,2
533,1.88436,3.1745,-1,2
534,1.88749,3.1666,-1,2
535,1.89062,3.1593,-1,2
536,1.89375,3.1525,-1,2
537,1.89687,3.1463,-1,2
538,1.9,3.1407,-1,2
539,1.90312,3.1361,-1,2
540,1.90623,3.1317,-1,2
541,1.90935,3.128,-1,2
542,1.91246,3.1243,-1,2
543,1.91557,3.1211,-1,2
544,1.91867,3.118,-1,2
545,1.92178,3.115,-1,2
546,1.92798,3.1123,-1,2
547,1.92798,3.1096,-1,2
548,1.93108,3.1072,-1,2
549,1.93418,3.105,-1,2
550,1.93727,3.103,-1,2
551,1.94347,3.1012,-1,2
552,1.94656,3.1001,-1,2
553,1.94966,3.0991,-1,2
554,1.95276,3.0987,-1,2
555,1.95586,3.0988,-1,2
556,1.95896,3.0996,-1,2
557,1.96207,3.1009,-1,2
558,1.96519,3.1025,-1,2
559,1.9683,3.104,-1,2
560,1.97142,3.1064,-1,2
561,1.97455,3.1099,-1,2
562,1.97769,3.1139,-1,2
563,1.98084,3.1189,-1,2
564,1.98399,3.1245,-1,2
565,1.98716,3.1313,-1,2
566,1.99035,3.1385,-1,2
567,1.99354,3.147,-1,2
568,1.99675,3.1564,-1,2
569,1.99997,3.1672,-1,2
570,2.00321,3.1788,-1,2
571,2.00646,3.1906,-1,2
572,2.00972,3.2033,-1,2
573,2.01301,3.2168,-1,2
574,2.01961,3.2325,-1,2
575,2.02294,3.2491,-1,2
576,2.02627,3.2657,-1,2
577,2.03298,3.2824,-1,2
578,2.03636,3.2992,-1,2
579,2.03974,3.3154,-1,2
580,2.04314,3.3316,-1,2
581,2.04655,3.3479,-1,2
582,2.04998,3.3636,-1,2
583,2.05341,3.3787,-1,2
584,2.05686,3.3923,-1,2
585,2.06032,3.4058,-1,2
586,2.06728,3.4196,-1,2
587,2.07078,3.4334,-1,2
588,2.07429,3.4475,-1,2
589,2.07782,3.4623,-1,2
590,2.08137,3.4773,-1,2
591,2.08494,3.4927,-1,2
592,2.08852,3.5087,-1,2
593,2.09212,3.5255,-1,2
594,2.09574,3.5425,-1,2
595,2.09938,3.5591,-1,2
596,2.10303,3.5759,-1,2
597,2.10671,3.5931,-1,2
598,2.11039,3.6102,-1,2
599,2.11409,3.6272,-1,2
600,2.11781,3.6439,-1,2
601,2.12154,3.6602,-1,2
602,2.12528,3.6759,-1,2
603,2.12903,3.6907,-1,2
604,2.1328,3.7054,-1,2
605,2.13657,3.7192,-1,2
606,2.14035,3.732,-1,2
607,2.14414,3.7438,-1,2
608,2.14794,3.7551,-1,2
609,2.15175,3.7652,-1,2
610,2.15556,3.7749,-1,2
611,2.15938,3.7839,-1,2
612,2.16705,3.7934,-1,2
613,2.17089,3.803,-1,2
614,2.17474,3.8115,-1,2
615,2.1786,3.8202,-1,2
616,2.18247,3.829,-1,2
617,2.18636,3.8383,-1,2
618,2.19025,3.8474,-1,2
619,2.19415,3.8574,-1,2
620,2.19807,3.8675,-1,2
621,2.20593,3.8792,-1,2
622,2.20988,3.8906,-1,2
623,2.21384,3.9022,-1,2
624,2.21781,3.9147,-1,2
625,2.2218,3.9271,-1,2
626,2.2258,3.9402,-1,2
627,2.22981,3.9526,-1,2
628,2.23383,3.9654,-1,2
629,2.23785,3.9777,-1,2
630,2.24189,3.9901,-1,2
631,2.24594,4.0009,-1,2
632,2.24999,4.0113,-1,2
633,2.25405,4.0214,-1,2
634,2.25812,4.0308,-1,2
635,2.2622,4.0395,-1,2
636,2.26628,4.0473,-1,2
637,2.27036,4.0552,-1,2
638,2.27445,4.0625,-1,2
639,2.27855,4.0696,-1,2
640,2.28265,4.0758,-1,2
641,2.28676,4.082,-1,2
642,2.29499,4.0884,-1,2
643,2.29911,4.0942,-1,2
644,2.30324,4.1002,-1,2
645,2.30737,4.1061,-1,2
646,2.31151,4.112,-1,2
647,2.31565,4.1174,-1,2
648,2.31979,4.1226,-1,2
649,2.32394,4.1279,-1,2
650,2.3281,4.1335,-1,2
651,2.33226,4.1395,-1,2
652,2.3406,4.1455,-1,2
653,2.34478,4.1514,-1,2
654,2.34897,4.1568,-1,2
655,2.35315,4.1619,-1,2
656,2.35734,4.1672,-1,2
657,2.36154,4.1727,-1,2
658,2.36574,4.1782,-1,2
659,2.36994,4.1833,-1,2
660,2.37414,4.1883,-1,2
661,2.37835,4.1923,-1,2
662,2.38256,4.1959,-1,2
663,2.38678,4.1995,-1,2
664,2.391,4.2031,-1,2
665,2.39522,4.2069,-1,2
666,2.39944,4.21,-1,2
667,2.40366,4.2125,-1,2
668,2.40788,4.2142,-1,2
669,2.41209,4.2157,-1,2
670,2.41631,4.2169,-1,2
671,2.42053,4.2183,-1,2
672,2.42475,4.219,-1,2
673,2.42897,4.2189,-1,2
674,2.43739,4.2182,-1,2
675,2.44161,4.2174,-1,2
676,2.44582,4.2161,-1,2
677,2.45002,4.2144,-1,2
678,2.45422,4.2129,-1,2
679,2.45841,4.2106,-1,2
680,2.46261,4.2081,-1,2
681,2.46679,4.2046,-1,2
682,2.47097,4.2007,-1,2
683,2.47931,4.1959,-1,2
684,2.48347,4.1907,-1,2
685,2.48763,4.1849,-1,2
686,2.49178,4.1789,-1,2
687,2.49592,4.1729,-1,2
688,2.50006,4.1667,-1,2
689,2.50419,4.1608,-1,2
690,2.50832,4.1546,-1,2
691,2.51245,4.1489,-1,2
692,2.51658,4.1431,-1,2
693,2.52069,4.1377,-1,2
694,2.5248,4.1325,-1,2
695,2.5289,4.1276,-1,2
696,2.533,4.1227,-1,2
697,2.5371,4.1182,-1,2
698,2.5412,4.1138,-1,2
699,2.54528,4.1091,-1,2
700,2.54936,4.1036,-1,2
701,2.55343,4.0979,-1,2
702,2.55751,4.093,-1,2
703,2.56564,4.0874,-1,2
704,2.57375,4.082,-1,2
705,2.5778,4.0762,-1,2
706,2.58185,4.0711,-1,2
707,2.5859,4.0658,-1,2
708,2.58993,4.0602,-1,2
709,2.59397,4.0544,-1,2
710,2.59799,4.0494,-1,2
711,2.60201,4.0443,-1,2
712,2.60603,4.0384,-1,2
713,2.61406,4.034,-1,2
714,2.61806,4.0289,-1,2
715,2.62206,4.0239,-1,2
716,2.62606,4.0184,-1,2
717,2.63005,4.0132,-1,2
718,2.63403,4.0077,-1,2
719,2.63801,4.0027,-1,2
720,2.64199,3.9977,-1,2
721,2.64596,3.9926,-1,2
722,2.64993,3.988,-1,2
723,2.65389,3.9829,-1,2
724,2.65785,3.9785,-1,2
725,2.6618,3.9738,-1,2
726,2.66574,3.9688,-1,2
727,2.66968,3.9634,-1,2
728,2.67362,3.9585,-1,2
729,2.67755,3.9534,-1,2
730,2.68147,3.948,-1,2
731,2.68538,3.9426,-1,2
732,2.68929,3.9367,-1,2
733,2.6932,3.9307,-1,2
734,2.6971,3.9248,-1,2
735,2.70099,3.919,-1,2
736,2.70488,3.9134,-1,2
737,2.70876,3.9075,-1,2
738,2.71263,3.9011,-1,2
739,2.71649,3.895,-1,2
740,2.72036,3.8891,-1,2
741,2.72806,3.8826,-1,2
742,2.73191,3.8762,-1,2
743,2.73575,3.8702,-1,2
744,2.73959,3.8636,-1,2
745,2.74342,3.8573,-1,2
746,2.74724,3.8512,-1,2
747,2.75107,3.8455,-1,2
748,2.75488,3.8403,-1,2
749,2.7587,3.8347,-1,2
750,2.76631,3.8289,-1,2
751,2.77011,3.8238,-1,2
752,2.7739,3.8187,-1,2
753,2.77769,3.8134,-1,2
754,2.78148,3.8088,-1,2
755,2.78527,3.8043,-1,2
756,2.78905,3.7994,-1,2
757,2.79282,3.7946,-1,2
758,2.79659,3.7897,-1,2
759,2.80036,3.7851,-1,2
760,2.80412,3.7805,-1,2
761,2.80787,3.7761,-1,2
762,2.81163,3.772,-1,2
763,2.81538,3.7682,-1,2
764,2.81912,3.7638,-1,2
765,2.82286,3.7591,-1,2
766,2.82659,3.7546,-1,2
767,2.83032,3.75,-1,2
768,2.83405,3.7454,-1,2
769,2.83777,3.7409,-1,2
770,2.84148,3.7367,-1,2
771,2.8452,3.7318,-1,2
772,2.8489,3.7266,-1,2
773,2.8563,3.7211,-1,2
774,2.85999,3.716,-1,2
775,2.86368,3.7111,-1,2
776,2.86737,3.7063,-1,2
777,2.87105,3.7014,-1,2
778,2.87472,3.6962,-1,2
779,2.87839,3.691,-1,2
780,2.88205,3.6855,-1,2
781,2.88571,3.6809,-1,2
782,2.89301,3.6754,-1,2
783,2.89666,3.6702,-1,2
784,2.90029,3.6649,-1,2
785,2.90393,3.6593,-1,2
786,2.90755,3.6534,-1,2
787,2.91117,3.6475,-1,2
788,2.91479,3.6422,-1,2
789,2.91841,3.6365,-1,2
790,2.92201,3.631,-1,2
791,2.92562,3.6252,-1,2
792,2.92921,3.6203,-1,2
793,2.93281,3.6154,-1,2
794,2.9364,3.6103,-1,2
795,2.93998,3.6054,-1,2
796,2.94356,3.6004,-1,2
797,2.94713,3.5954,-1,2
798,2.95069,3.59,-1,2
799,2.95426,3.5851,-1,2
800,2.95781,3.5801,-1,2
801,2.96136,3.5749,-1,2
802,2.96491,3.5693,-1,2
803,2.96844,3.5634,-1,2
804,2.97197,3.557,-1,2
805,2.97902,3.5507,-1,2
806,2.98253,3.5444,-1,2
807,2.98604,3.5385,-1,2
808,2.98955,3.5325,-1,2
809,2.99304,3.5259,-1,2
810,2.99654,3.5195,-1,2
811,3.00003,3.5135,-1,2
812,3.00351,3.5079,-1,2
813,3.007,3.5022,-1,2
814,3.01395,3.4971,-1,2
815,3.01742,3.4922,-1,2
816,3.02089,3.4878,-1,2
817,3.02436,3.4836,-1,2
818,3.02783,3.4799,-1,2
819,3.03129,3.4768,-1,2
820,3.03476,3.4741,-1,2
821,3.03822,3.4714,-1,2
822,3.04169,3.4693,-1,2
823,3.04515,3.4679,-1,2
824,3.04862,3.4673,-1,2
825,3.05209,3.4666,-1,2
826,3.05556,3.4666,-1,2
827,3.05902,3.4663,-1,2
828,3.0625,3.4669,-1,2
829,3.06598,3.468,-1,2
830,3.06945,3.4693,-1,2
831,3.07294,3.4714,-1,2
832,3.07643,3.4736,-1,2
833,3.07992,3.4762,-1,2
834,3.08341,3.4789,-1,2
835,3.08691,3.4824,-1,2
836,3.09042,3.4861,-1,2
837,3.09393,3.4908,-1,2
838,3.09745,3.4952,-1,2
839,3.10097,3.5001,-1,2
840,3.10451,3.5053,-1,2
841,3.10804,3.5112,-1,2
842,3.11514,3.5175,-1,2
