cnt,pos,speed,Dir,Force,
1,0,1.01,1,5
2,0.000980377,0.973,1,5
3,0.00293922,0.981,1,5
4,0.00293922,1.006,1,5
5,0.00393867,1.006,1,5
6,0.00497055,1.021,1,5
7,0.00597,1.005,1,5
8,0.00695992,0.989,1,5
9,0.00794983,0.996,1,5
10,0.00897026,1.016,1,5
11,0.0100002,1.025,1,5
12,0.0110092,1.012,1,5
13,0.0120087,1.001,1,5
14,0.0130196,1.013,1,5
15,0.0140495,1.031,1,5
16,0.015089,1.032,1,5
17,0.0160999,1.019,1,5
18,0.0171204,1.016,1,5
19,0.0181503,1.026,1,5
20,0.0191803,1.038,1,5
21,0.0202198,1.038,1,5
22,0.0212593,1.033,1,5
23,0.0222893,1.032,1,5
24,0.0233288,1.04,1,5
25,0.0243702,1.046,1,5
26,0.0254192,1.045,1,5
27,0.0264587,1.044,1,5
28,0.0275097,1.05,1,5
29,0.0285702,1.056,1,5
30,0.0296288,1.056,1,5
31,0.0306797,1.057,1,5
32,0.0317402,1.062,1,5
33,0.0328102,1.063,1,5
34,0.0338688,1.064,1,5
35,0.0349388,1.064,1,5
36,0.0360088,1.071,1,5
37,0.0370903,1.081,1,5
38,0.0381699,1.081,1,5
39,0.0392399,1.072,1,5
40,0.0403194,1.075,1,5
41,0.041399,1.087,1,5
42,0.0424995,1.093,1,5
43,0.0435791,1.087,1,5
44,0.0446701,1.085,1,5
45,0.0457592,1.094,1,5
46,0.0468693,1.106,1,5
47,0.0479698,1.102,1,5
48,0.0490589,1.092,1,5
49,0.0501595,1.097,1,5
50,0.0512695,1.112,1,5
51,0.0523891,1.119,1,5
52,0.0535088,1.113,1,5
53,0.0546093,1.11,1,5
54,0.0557289,1.117,1,5
55,0.05686,1.127,1,5
56,0.0579796,1.124,1,5
57,0.0591087,1.122,1,5
58,0.0602303,1.13,1,5
59,0.0613804,1.14,1,5
60,0.0625095,1.139,1,5
61,0.0636501,1.136,1,5
62,0.0647888,1.138,1,5
63,0.0659389,1.148,1,5
64,0.0670891,1.153,1,5
65,0.0682392,1.15,1,5
66,0.0693893,1.155,1,5
67,0.070549,1.159,1,5
68,0.0717087,1.158,1,5
69,0.0728703,1.159,1,5
70,0.0740395,1.165,1,5
71,0.0752087,1.174,1,5
72,0.0763798,1.174,1,5
73,0.077549,1.171,1,5
74,0.0787296,1.175,1,5
75,0.0799103,1.182,1,5
76,0.0811005,1.184,1,5
77,0.0822792,1.184,1,5
78,0.0834694,1.188,1,5
79,0.0846691,1.2,1,5
80,0.0858688,1.2,1,5
81,0.087059,1.199,1,5
82,0.0894699,1.21,1,5
83,0.0894699,1.211,1,5
84,0.0906792,1.213,1,5
85,0.0918903,1.213,1,5
86,0.0931091,1.221,1,5
87,0.0943298,1.221,1,5
88,0.0955505,1.221,1,5
89,0.0967693,1.221,1,5
90,0.0979996,1.228,1,5
91,0.0992298,1.237,1,5
92,0.101709,1.235,1,5
93,0.101709,1.242,1,5
94,0.102949,1.242,1,5
95,0.104189,1.242,1,5
96,0.105429,1.242,1,5
97,0.10668,1.247,1,5
98,0.107939,1.262,1,5
99,0.1092,1.26,1,5
100,0.110449,1.253,1,5
101,0.11171,1.266,1,5
102,0.11425,1.274,1,5
103,0.11552,1.273,1,5
104,0.1168,1.276,1,5
105,0.11807,1.276,1,5
106,0.119349,1.278,1,5
107,0.120629,1.283,1,5
108,0.12192,1.29,1,5
109,0.123219,1.296,1,5
110,0.12451,1.294,1,5
111,0.12581,1.293,1,5
112,0.1271,1.298,1,5
113,0.1284,1.3,1,5
114,0.129709,1.302,1,5
115,0.13102,1.312,1,5
116,0.132339,1.317,1,5
117,0.13365,1.314,1,5
118,0.134959,1.308,1,5
119,0.13627,1.315,1,5
120,0.1376,1.326,1,5
121,0.138929,1.331,1,5
122,0.140269,1.335,1,5
123,0.1416,1.33,1,5
124,0.14293,1.329,1,5
125,0.144259,1.334,1,5
126,0.14561,1.348,1,5
127,0.146959,1.353,1,5
128,0.14831,1.349,1,5
129,0.149659,1.349,1,5
130,0.15101,1.354,1,5
131,0.152369,1.358,1,5
132,0.153729,1.364,1,5
133,0.155109,1.371,1,5
134,0.15648,1.371,1,5
135,0.15784,1.367,1,5
136,0.15922,1.371,1,5
137,0.1606,1.381,1,5
138,0.16198,1.387,1,5
139,0.163369,1.39,1,5
140,0.16476,1.389,1,5
141,0.166149,1.386,1,5
142,0.16754,1.39,1,5
143,0.16894,1.404,1,5
144,0.17035,1.414,1,5
145,0.17176,1.407,1,5
146,0.173169,1.404,1,5
147,0.17458,1.41,1,5
148,0.175989,1.414,1,5
149,0.17742,1.427,1,5
150,0.178849,1.434,1,5
151,0.18028,1.428,1,5
152,0.1817,1.422,1,5
153,0.183129,1.429,1,5
154,0.184569,1.441,1,5
155,0.18602,1.447,1,5
156,0.187469,1.451,1,5
157,0.18892,1.447,1,5
158,0.19036,1.442,1,5
159,0.19181,1.45,1,5
160,0.19327,1.465,1,5
161,0.194739,1.467,1,5
162,0.19621,1.466,1,5
163,0.19767,1.466,1,5
164,0.19914,1.466,1,5
165,0.200609,1.473,1,5
166,0.202089,1.484,1,5
167,0.20358,1.488,1,5
168,0.20507,1.484,1,5
169,0.20655,1.483,1,5
170,0.208039,1.487,1,5
171,0.209539,1.499,1,5
172,0.21104,1.506,1,5
173,0.212549,1.509,1,5
174,0.214049,1.497,1,5
175,0.215549,1.499,1,5
176,0.217059,1.513,1,5
177,0.21859,1.525,1,5
178,0.22011,1.527,1,5
179,0.221629,1.521,1,5
180,0.223149,1.513,1,5
181,0.224669,1.523,1,5
182,0.22621,1.543,1,5
183,0.22777,1.552,1,5
184,0.22931,1.54,1,5
185,0.23084,1.535,1,5
186,0.23238,1.537,1,5
187,0.23393,1.556,1,5
188,0.23551,1.573,1,5
189,0.237069,1.567,1,5
190,0.238629,1.554,1,5
191,0.24175,1.569,1,5
192,0.24333,1.584,1,5
193,0.244929,1.593,1,5
194,0.24651,1.579,1,5
195,0.248079,1.57,1,5
196,0.24966,1.585,1,5
197,0.25126,1.603,1,5
198,0.25287,1.607,1,5
199,0.254479,1.604,1,5
200,0.256069,1.595,1,5
201,0.257669,1.6,1,5
202,0.25929,1.618,1,5
203,0.26092,1.628,1,5
204,0.26254,1.625,1,5
205,0.264159,1.62,1,5
206,0.265779,1.623,1,5
207,0.26742,1.634,1,5
208,0.26907,1.647,1,5
209,0.27071,1.643,1,5
210,0.272349,1.64,1,5
211,0.273999,1.647,1,5
212,0.27565,1.656,1,5
213,0.277309,1.662,1,5
214,0.27897,1.662,1,5
215,0.28064,1.662,1,5
216,0.28231,1.671,1,5
217,0.28399,1.68,1,5
218,0.285669,1.68,1,5
219,0.28735,1.683,1,5
220,0.29073,1.694,1,5
221,0.29243,1.701,1,5
222,0.294129,1.703,1,5
223,0.29583,1.7,1,5
224,0.29754,1.709,1,5
225,0.299259,1.717,1,5
226,0.30098,1.721,1,5
227,0.30271,1.723,1,5
228,0.30443,1.722,1,5
229,0.30616,1.732,1,5
230,0.307899,1.736,1,5
231,0.309629,1.74,1,5
232,0.311379,1.744,1,5
233,0.313129,1.749,1,5
234,0.314879,1.755,1,5
235,0.31664,1.759,1,5
236,0.318399,1.755,1,5
237,0.32016,1.766,1,5
238,0.321939,1.778,1,5
239,0.323709,1.775,1,5
240,0.32549,1.774,1,5
241,0.32726,1.773,1,5
242,0.32905,1.788,1,5
243,0.33085,1.8,1,5
244,0.33264,1.794,1,5
245,0.33443,1.788,1,5
246,0.336229,1.795,1,5
247,0.338039,1.81,1,5
248,0.33986,1.819,1,5
249,0.34166,1.808,1,5
250,0.34347,1.808,1,5
251,0.345289,1.816,1,5
252,0.347119,1.832,1,5
253,0.348949,1.834,1,5
254,0.35078,1.824,1,5
255,0.352599,1.827,1,5
256,0.35444,1.839,1,5
257,0.35629,1.845,1,5
258,0.35813,1.846,1,5
259,0.359969,1.84,1,5
260,0.361819,1.846,1,5
261,0.363669,1.856,1,5
262,0.36553,1.856,1,5
263,0.36739,1.858,1,5
264,0.369249,1.862,1,5
265,0.371119,1.866,1,5
266,0.372979,1.864,1,5
267,0.374849,1.869,1,5
268,0.37673,1.88,1,5
269,0.37861,1.88,1,5
270,0.38048,1.876,1,5
271,0.38425,1.889,1,5
272,0.38425,1.894,1,5
273,0.38614,1.894,1,5
274,0.38803,1.883,1,5
275,0.38991,1.883,1,5
276,0.391809,1.898,1,5
277,0.393709,1.904,1,5
278,0.3975,1.893,1,5
279,0.3994,1.902,1,5
280,0.40132,1.913,1,5
281,0.40323,1.909,1,5
282,0.405129,1.905,1,5
283,0.40704,1.91,1,5
284,0.408959,1.919,1,5
285,0.410879,1.921,1,5
286,0.412789,1.91,1,5
287,0.41471,1.916,1,5
288,0.416639,1.926,1,5
289,0.41856,1.928,1,5
290,0.42048,1.918,1,5
291,0.4224,1.918,1,5
292,0.42433,1.935,1,5
293,0.42627,1.937,1,5
294,0.4282,1.925,1,5
295,0.43012,1.923,1,5
296,0.432059,1.936,1,5
297,0.434,1.945,1,5
298,0.43594,1.935,1,5
299,0.43786,1.938,1,5
300,0.44175,1.945,1,5
301,0.443689,1.945,1,5
302,0.443689,1.938,1,5
303,0.44757,1.941,1,5
304,0.44757,1.944,1,5
305,0.44951,1.944,1,5
306,0.45146,1.944,1,5
307,0.453409,1.948,1,5
308,0.455359,1.946,1,5
309,0.459249,1.942,1,5
310,0.461189,1.949,1,5
311,0.46315,1.957,1,5
312,0.46511,1.955,1,5
313,0.46705,1.944,1,5
314,0.468989,1.944,1,5
315,0.470949,1.956,1,5
316,0.47291,1.963,1,5
317,0.47487,1.954,1,5
318,0.47681,1.944,1,5
319,0.47876,1.947,1,5
320,0.48072,1.963,1,5
321,0.482679,1.962,1,5
322,0.48463,1.952,1,5
323,0.48658,1.946,1,5
324,0.488529,1.95,1,5
325,0.49049,1.964,1,5
326,0.492459,1.963,1,5
327,0.49441,1.952,1,5
328,0.496349,1.945,1,5
329,0.498309,1.952,1,5
330,0.50027,1.961,1,5
331,0.50223,1.96,1,5
332,0.50418,1.953,1,5
333,0.50612,1.945,1,5
334,0.50808,1.951,1,5
335,0.510039,1.962,1,5
336,0.511999,1.959,1,5
337,0.513949,1.95,1,5
338,0.515889,1.944,1,5
339,0.51785,1.954,1,5
340,0.51981,1.964,1,5
341,0.52177,1.96,1,5
342,0.52372,1.948,1,5
343,0.52566,1.942,1,5
344,0.527619,1.957,1,5
345,0.529579,1.954,1,5
346,0.531529,1.947,1,5
347,0.53543,1.945,1,5
348,0.537379,1.956,1,5
349,0.53934,1.96,1,5
350,0.5413,1.955,1,5
351,0.543249,1.948,1,5
352,0.54519,1.946,1,5
353,0.54715,1.957,1,5
354,0.549109,1.962,1,5
355,0.551069,1.956,1,5
356,0.55301,1.944,1,5
357,0.554959,1.945,1,5
358,0.55692,1.962,1,5
359,0.55888,1.963,1,5
360,0.560829,1.949,1,5
361,0.56277,1.939,1,5
362,0.564719,1.953,1,5
363,0.566689,1.968,1,5
364,0.568649,1.96,1,5
365,0.57059,1.942,1,5
366,0.572539,1.945,1,5
367,0.574499,1.965,1,5
368,0.576469,1.95,1,5
369,0.57842,1.95,1,5
370,0.580359,1.958,1,5
371,0.582319,1.958,1,5
372,0.58429,1.967,1,5
373,0.586249,1.959,1,5
374,0.59015,1.953,1,5
375,0.59211,1.96,1,5
376,0.59408,1.967,1,5
377,0.59604,1.963,1,5
378,0.598,1.957,1,5
379,0.59995,1.955,1,5
380,0.601919,1.964,1,5
381,0.603889,1.974,1,5
382,0.60586,1.969,1,5
383,0.60781,1.954,1,5
384,0.60977,1.956,1,5
385,0.611739,1.975,1,5
386,0.61372,1.982,1,5
387,0.615689,1.964,1,5
388,0.61764,1.953,1,5
389,0.61961,1.967,1,5
390,0.62159,1.984,1,5
391,0.623569,1.979,1,5
392,0.625529,1.959,1,5
393,0.6275,1.964,1,5
394,0.629479,1.98,1,5
395,0.631459,1.988,1,5
396,0.63343,1.972,1,5
397,0.6354,1.967,1,5
398,0.63738,1.976,1,5
399,0.639359,1.984,1,5
400,0.641339,1.983,1,5
401,0.643319,1.979,1,5
402,0.6453,1.976,1,5
403,0.64728,1.979,1,5
404,0.64926,1.984,1,5
405,0.651259,1.994,1,5
406,0.653239,1.985,1,5
407,0.65522,1.979,1,5
408,0.6572,1.983,1,5
409,0.6592,1.997,1,5
410,0.6612,2.001,1,5
411,0.66319,1.985,1,5
412,0.66517,1.984,1,5
413,0.66717,1.997,1,5
414,0.66918,2.01,1,5
415,0.67118,1.999,1,5
416,0.673169,1.99,1,5
417,0.675159,1.996,1,5
418,0.67717,2.013,1,5
419,0.67919,2.011,1,5
420,0.68119,2,1,5
421,0.683189,2.002,1,5
422,0.6852,2.015,1,5
423,0.68722,2.02,1,5
424,0.68924,2.014,1,5
425,0.69125,2.012,1,5
426,0.69327,2.02,1,5
427,0.69529,2.022,1,5
428,0.697309,2.024,1,5
429,0.69934,2.03,1,5
430,0.701369,2.029,1,5
431,0.7034,2.026,1,5
432,0.70543,2.031,1,5
433,0.707479,2.045,1,5
434,0.709519,2.039,1,5
435,0.71359,2.037,1,5
436,0.71359,2.052,1,5
437,0.71565,2.052,1,5
438,0.71771,2.061,1,5
439,0.719769,2.058,1,5
440,0.72182,2.055,1,5
441,0.72388,2.056,1,5
442,0.725949,2.07,1,5
443,0.72802,2.076,1,5
444,0.7301,2.077,1,5
445,0.732169,2.077,1,5
446,0.73634,2.086,1,5
447,0.73843,2.097,1,5
448,0.74053,2.101,1,5
449,0.74053,2.091,1,5
450,0.74263,2.097,1,5
451,0.74472,2.097,1,5
452,0.74683,2.11,1,5
453,0.74895,2.12,1,5
454,0.75318,2.114,1,5
455,0.75531,2.126,1,5
456,0.75744,2.134,1,5
457,0.75958,2.135,1,5
458,0.761709,2.137,1,5
459,0.76386,2.145,1,5
460,0.766009,2.149,1,5
461,0.76816,2.152,1,5
462,0.77032,2.16,1,5
463,0.77248,2.166,1,5
464,0.77465,2.167,1,5
465,0.776819,2.171,1,5
466,0.778999,2.18,1,5
467,0.78119,2.184,1,5
468,0.78337,2.186,1,5
469,0.785569,2.195,1,5
470,0.787769,2.202,1,5
471,0.789969,2.201,1,5
472,0.79218,2.208,1,5
473,0.79439,2.218,1,5
474,0.796619,2.221,1,5
475,0.79884,2.221,1,5
476,0.801069,2.229,1,5
477,0.803309,2.239,1,5
478,0.80555,2.243,1,5
479,0.80779,2.245,1,5
480,0.81004,2.25,1,5
481,0.8123,2.258,1,5
482,0.81456,2.261,1,5
483,0.81683,2.268,1,5
484,0.819099,2.273,1,5
485,0.82138,2.276,1,5
486,0.82366,2.281,1,5
487,0.82595,2.289,1,5
488,0.828239,2.293,1,5
489,0.83054,2.299,1,5
490,0.83285,2.304,1,5
491,0.835159,2.31,1,5
492,0.83746,2.31,1,5
493,0.83978,2.314,1,5
494,0.84211,2.327,1,5
495,0.84444,2.328,1,5
496,0.84676,2.329,1,5
497,0.849099,2.337,1,5
498,0.851439,2.344,1,5
499,0.853789,2.345,1,5
500,0.856139,2.349,1,5
501,0.8585,2.359,1,5
502,0.86086,2.362,1,5
503,0.863219,2.364,1,5
504,0.86797,2.374,1,5
505,0.87035,2.381,1,5
506,0.872729,2.386,1,5
507,0.875119,2.387,1,5
508,0.87752,2.395,1,5
509,0.87991,2.4,1,5
510,0.882319,2.406,1,5
511,0.884729,2.408,1,5
512,0.887139,2.415,1,5
513,0.88956,2.418,1,5
514,0.89199,2.423,1,5
515,0.894409,2.426,1,5
516,0.89685,2.436,1,5
517,0.899289,2.439,1,5
518,0.90173,2.44,1,5
519,0.90417,2.445,1,5
520,0.90662,2.452,1,5
521,0.90908,2.457,1,5
522,0.91154,2.462,1,5
523,0.91401,2.468,1,5
524,0.91648,2.469,1,5
525,0.91896,2.48,1,5
526,0.921439,2.484,1,5
527,0.92641,2.49,1,5
528,0.92641,2.499,1,5
529,0.928909,2.498,1,5
530,0.93141,2.504,1,5
531,0.936419,2.513,1,5
532,0.93894,2.516,1,5
533,0.94146,2.518,1,5
534,0.94399,2.528,1,5
535,0.94652,2.533,1,5
536,0.94905,2.531,1,5
537,0.95159,2.541,1,5
538,0.95414,2.547,1,5
539,0.95669,2.553,1,5
540,0.959249,2.556,1,5
541,0.961809,2.561,1,5
542,0.96437,2.566,1,5
543,0.966949,2.575,1,5
544,0.96952,2.574,1,5
545,0.972099,2.581,1,5
546,0.974689,2.588,1,5
547,0.97728,2.59,1,5
548,0.979879,2.594,1,5
549,0.98248,2.6,1,5
550,0.98508,2.606,1,5
551,0.98769,2.609,1,5
552,0.99031,2.616,1,5
553,0.992929,2.621,1,5
554,0.995549,2.623,1,5
555,0.998179,2.628,1,5
556,1.00082,2.636,1,5
557,1.00346,2.64,1,5
558,1.0061,2.646,1,5
559,1.00875,2.648,1,5
560,1.01141,2.656,1,5
561,1.01407,2.661,1,5
562,1.01673,2.665,1,5
563,1.0194,2.67,1,5
564,1.02207,2.672,1,5
565,1.02475,2.678,1,5
566,1.02744,2.686,1,5
567,1.03013,2.69,1,5
568,1.03282,2.693,1,5
569,1.03552,2.696,1,5
570,1.03822,2.705,1,5
571,1.04093,2.71,1,5
572,1.04364,2.709,1,5
573,1.04636,2.717,1,5
574,1.04908,2.72,1,5
575,1.0518,2.725,1,5
576,1.05453,2.73,1,5
577,1.05727,2.733,1,5
578,1.06001,2.739,1,5
579,1.06275,2.743,1,5
580,1.06549,2.745,1,5
581,1.06824,2.749,1,5
582,1.071,2.756,1,5
583,1.07652,2.762,1,5
584,1.07928,2.765,1,5
585,1.08205,2.769,1,5
586,1.08483,2.776,1,5
587,1.08761,2.779,1,5
588,1.09039,2.78,1,5
589,1.09317,2.783,1,5
590,1.09596,2.789,1,5
591,1.09875,2.792,1,5
592,1.10155,2.796,1,5
593,1.10434,2.799,1,5
594,1.10714,2.798,1,5
595,1.10994,2.802,1,5
596,1.11275,2.808,1,5
597,1.11556,2.81,1,5
598,1.11838,2.812,1,5
599,1.12119,2.812,1,5
600,1.124,2.816,1,5
601,1.12682,2.82,1,5
602,1.12964,2.82,1,5
603,1.13247,2.827,1,5
604,1.1353,2.826,1,5
605,1.13812,2.828,1,5
606,1.14095,2.831,1,5
607,1.14378,2.831,1,5
608,1.14945,2.837,1,5
609,1.14945,2.835,1,5
610,1.15513,2.837,1,5
611,1.15797,2.841,1,5
612,1.16081,2.844,1,5
613,1.16366,2.844,1,5
614,1.1665,2.845,1,5
615,1.16935,2.847,1,5
616,1.1722,2.847,1,5
617,1.17505,2.852,1,5
618,1.1779,2.853,1,5
619,1.18075,2.851,1,5
620,1.18361,2.853,1,5
621,1.18646,2.854,1,5
622,1.18932,2.856,1,5
623,1.19217,2.857,1,5
624,1.19503,2.858,1,5
625,1.19789,2.855,1,5
626,1.20075,2.86,1,5
627,1.20361,2.861,1,5
628,1.20646,2.857,1,5
629,1.20933,2.861,1,5
630,1.21219,2.864,1,5
631,1.21505,2.86,1,5
632,1.21791,2.864,1,5
633,1.22078,2.866,1,5
634,1.22364,2.863,1,5
635,1.22651,2.868,1,5
636,1.22938,2.864,1,5
637,1.23224,2.869,1,5
638,1.23511,2.868,1,5
639,1.23798,2.868,1,5
640,1.24085,2.871,1,5
641,1.24372,2.87,1,5
642,1.24659,2.872,1,5
643,1.24947,2.872,1,5
644,1.25234,2.87,1,5
645,1.25521,2.874,1,5
646,1.25809,2.876,1,5
647,1.26096,2.875,1,5
648,1.26383,2.872,1,5
649,1.26671,2.876,1,5
650,1.26959,2.879,1,5
651,1.27247,2.877,1,5
652,1.27534,2.879,1,5
653,1.27822,2.875,1,5
654,1.28398,2.882,1,5
655,1.28686,2.882,1,5
656,1.28974,2.881,1,5
657,1.29262,2.88,1,5
658,1.29551,2.887,1,5
659,1.2984,2.884,1,5
660,1.30128,2.886,1,5
661,1.30417,2.887,1,5
662,1.30706,2.888,1,5
663,1.30994,2.887,1,5
664,1.31284,2.892,1,5
665,1.31572,2.89,1,5
666,1.31862,2.89,1,5
667,1.32151,2.895,1,5
668,1.32441,2.896,1,5
669,1.3273,2.895,1,5
670,1.3302,2.896,1,5
671,1.33309,2.898,1,5
672,1.33599,2.898,1,5
673,1.3389,2.902,1,5
674,1.3418,2.901,1,5
675,1.34759,2.899,1,5
676,1.3505,2.904,1,5
677,1.35341,2.907,1,5
678,1.35631,2.906,1,5
679,1.35922,2.905,1,5
680,1.36212,2.906,1,5
681,1.36503,2.906,1,5
682,1.36794,2.912,1,5
683,1.37085,2.911,1,5
684,1.37376,2.909,1,5
685,1.37667,2.911,1,5
686,1.37958,2.912,1,5
687,1.3825,2.917,1,5
688,1.38542,2.915,1,5
689,1.38833,2.914,1,5
690,1.39416,2.916,1,5
691,1.39416,2.917,1,5
692,1.4,2.919,1,5
693,1.40291,2.917,1,5
694,1.40583,2.913,1,5
695,1.40875,2.92,1,5
696,1.41167,2.919,1,5
697,1.41458,2.917,1,5
698,1.4175,2.917,1,5
699,1.42042,2.915,1,5
700,1.42333,2.919,1,5
701,1.42625,2.917,1,5
702,1.42917,2.919,1,5
703,1.43208,2.913,1,5
704,1.435,2.916,1,5
705,1.43792,2.92,1,5
706,1.44084,2.917,1,5
707,1.44375,2.913,1,5
708,1.44666,2.912,1,5
709,1.44958,2.915,1,5
710,1.45249,2.914,1,5
711,1.45541,2.915,1,5
712,1.45831,2.907,1,5
713,1.46122,2.911,1,5
714,1.46413,2.91,1,5
715,1.46704,2.907,1,5
716,1.46995,2.907,1,5
717,1.47285,2.905,1,5
718,1.47575,2.902,1,5
719,1.47866,2.902,1,5
720,1.48155,2.898,1,5
721,1.48445,2.899,1,5
722,1.48735,2.895,1,5
723,1.49024,2.891,1,5
724,1.49313,2.894,1,5
725,1.49602,2.892,1,5
726,1.49891,2.886,1,5
727,1.5018,2.886,1,5
728,1.50468,2.882,1,5
729,1.50756,2.882,1,5
730,1.51044,2.881,1,5
731,1.51332,2.879,1,5
732,1.51619,2.875,1,5
733,1.51907,2.874,1,5
734,1.52481,2.87,1,5
735,1.52768,2.871,1,5
736,1.53054,2.862,1,5
737,1.53341,2.863,1,5
738,1.53627,2.862,1,5
739,1.53913,2.858,1,5
740,1.54198,2.857,1,5
741,1.54484,2.852,1,5
742,1.54769,2.85,1,5
743,1.55054,2.851,1,5
744,1.55338,2.846,1,5
745,1.55623,2.844,1,5
746,1.55907,2.841,1,5
747,1.56191,2.838,1,5
748,1.56474,2.839,1,5
749,1.56758,2.835,1,5
750,1.57041,2.833,1,5
751,1.57324,2.83,1,5
752,1.57607,2.83,1,5
753,1.5789,2.826,1,5
754,1.58172,2.825,1,5
755,1.58454,2.822,1,5
756,1.58737,2.822,1,5
757,1.59018,2.817,1,5
758,1.593,2.814,1,5
759,1.59581,2.817,1,5
760,1.59863,2.812,1,5
761,1.60144,2.809,1,5
762,1.60425,2.812,1,5
763,1.60706,2.808,1,5
764,1.60986,2.801,1,5
765,1.61546,2.799,1,5
766,1.61826,2.8,1,5
767,1.62106,2.8,1,5
768,1.62386,2.795,1,5
769,1.62665,2.793,1,5
770,1.62944,2.792,1,5
771,1.63223,2.789,1,5
772,1.63502,2.792,1,5
773,1.63781,2.789,1,5
774,1.6406,2.787,1,5
775,1.64338,2.785,1,5
776,1.64616,2.782,1,5
777,1.64895,2.783,1,5
778,1.65173,2.783,1,5
779,1.65451,2.78,1,5
780,1.65729,2.777,1,5
781,1.66007,2.779,1,5
782,1.66284,2.775,1,5
783,1.66562,2.775,1,5
784,1.66839,2.775,1,5
785,1.67116,2.772,1,5
786,1.67393,2.77,1,5
787,1.6767,2.77,1,5
788,1.67947,2.769,1,5
789,1.68224,2.771,1,5
790,1.68501,2.767,1,5
791,1.68777,2.763,1,5
792,1.69053,2.762,1,5
793,1.6933,2.762,1,5
794,1.69606,2.763,1,5
795,1.69882,2.761,1,5
796,1.70158,2.757,1,5
797,1.70433,2.754,1,5
798,1.70709,2.759,1,5
799,1.70985,2.757,1,5
800,1.7126,2.756,1,5
801,1.71536,2.752,1,5
802,1.71811,2.752,1,5
803,1.72086,2.754,1,5
804,1.72361,2.752,1,5
805,1.72636,2.752,1,5
806,1.73186,2.748,1,5
807,1.73461,2.749,1,5
808,1.73736,2.751,1,5
809,1.74011,2.747,1,5
810,1.74286,2.747,1,5
811,1.74561,2.749,1,5
812,1.74836,2.748,1,5
813,1.7511,2.746,1,5
814,1.75385,2.748,1,5
815,1.75659,2.743,1,5
816,1.75934,2.747,1,5
817,1.76209,2.748,1,5
818,1.76758,2.747,1,5
819,1.77033,2.746,1,5
820,1.77307,2.744,1,5
821,1.77582,2.747,1,5
822,1.77857,2.749,1,5
823,1.78131,2.746,1,5
824,1.78406,2.75,1,5
825,1.78681,2.749,1,5
826,1.78956,2.75,1,5
827,1.79232,2.753,1,5
828,1.79507,2.752,1,5
829,1.79782,2.749,1,5
830,1.80057,2.755,1,5
831,1.80333,2.756,1,5
832,1.80608,2.757,1,5
833,1.80884,2.757,1,5
834,1.8116,2.757,1,5
835,1.81436,2.759,1,5
836,1.81712,2.76,1,5
837,1.82264,2.764,1,5
838,1.82541,2.762,1,5
839,1.82817,2.761,1,5
840,1.82817,2.761,1,5
841,1.8337,2.768,1,5
842,1.8337,2.768,1,5
843,1.83647,2.767,1,5
844,1.83924,2.772,1,5
845,1.84479,2.773,1,5
846,1.84757,2.776,1,5
847,1.85034,2.777,1,5
848,1.85312,2.782,1,5
849,1.85591,2.783,1,5
850,1.85869,2.784,1,5
851,1.86148,2.787,1,5
852,1.86427,2.789,1,5
853,1.86706,2.792,1,5
854,1.86986,2.797,1,5
855,1.87265,2.794,1,5
856,1.87545,2.796,1,5
857,1.87825,2.801,1,5
858,1.88105,2.804,1,5
859,1.88386,2.805,1,5
860,1.88667,2.811,1,5
861,1.88948,2.811,1,5
862,1.89229,2.811,1,5
863,1.8951,2.814,1,5
864,1.89792,2.818,1,5
865,1.90074,2.821,1,5
866,1.90356,2.823,1,5
867,1.90639,2.821,1,5
868,1.90921,2.829,1,5
869,1.91204,2.831,1,5
870,1.91488,2.833,1,5
871,1.91771,2.834,1,5
872,1.92055,2.839,1,5
873,1.92339,2.839,1,5
874,1.92623,2.843,1,5
875,1.92908,2.845,1,5
876,1.93193,2.849,1,5
877,1.93478,2.852,1,5
878,1.93763,2.853,1,5
879,1.94049,2.855,1,5
880,1.94335,2.86,1,5
881,1.94621,2.862,1,5
882,1.94908,2.867,1,5
883,1.95194,2.865,1,5
884,1.95481,2.867,1,5
885,1.95768,2.872,1,5
886,1.96056,2.874,1,5
887,1.96343,2.879,1,5
888,1.96631,2.882,1,5
889,1.96919,2.882,1,5
890,1.97207,2.881,1,5
891,1.97496,2.886,1,5
892,1.97785,2.887,1,5
893,1.98074,2.892,1,5
894,1.98652,2.891,1,5
895,1.98942,2.895,1,5
896,1.99232,2.898,1,5
897,1.99522,2.904,1,5
898,1.99812,2.902,1,5
899,2.00102,2.902,1,5
900,2.00393,2.903,1,5
901,2.00683,2.909,1,5
902,2.00975,2.912,1,5
903,2.01266,2.914,1,5
904,2.01557,2.91,1,5
