cnt,pos,speed,Dir,Force,
1,0,1.011,1,5
2,0.00101948,1.015,1,5
3,0.00202942,1.01,1,5
4,0.00302982,1,1,5
5,0.00403976,1.01,1,5
6,0.00505924,1.025,1,5
7,0.00608921,1.028,1,5
8,0.00711918,1.027,1,5
9,0.00813961,1.027,1,5
10,0.00918007,1.033,1,5
11,0.01021,1.034,1,5
12,0.0112495,1.037,1,5
13,0.01229,1.044,1,5
14,0.01334,1.051,1,5
15,0.01439,1.051,1,5
16,0.0154495,1.051,1,5
17,0.0164995,1.053,1,5
18,0.01756,1.062,1,5
19,0.01863,1.066,1,5
20,0.0196896,1.067,1,5
21,0.0207596,1.062,1,5
22,0.0218296,1.072,1,5
23,0.0229092,1.084,1,5
24,0.0239992,1.088,1,5
25,0.0250797,1.082,1,5
26,0.0261593,1.08,1,5
27,0.0272493,1.087,1,5
28,0.0283499,1.098,1,5
29,0.0294495,1.103,1,5
30,0.03055,1.103,1,5
31,0.0327597,1.109,1,5
32,0.0327597,1.111,1,5
33,0.0338793,1.111,1,5
34,0.0349894,1.111,1,5
35,0.0360994,1.124,1,5
36,0.0372295,1.124,1,5
37,0.0383596,1.125,1,5
38,0.0394793,1.128,1,5
39,0.0417395,1.134,1,5
40,0.0428801,1.139,1,5
41,0.0440197,1.135,1,5
42,0.0440197,1.139,1,5
43,0.0451593,1.139,1,5
44,0.0462999,1.146,1,5
45,0.0474596,1.154,1,5
46,0.0486097,1.151,1,5
47,0.0497494,1.148,1,5
48,0.05091,1.154,1,5
49,0.0520697,1.161,1,5
50,0.0532398,1.165,1,5
51,0.0543995,1.167,1,5
52,0.0555696,1.17,1,5
53,0.0567398,1.171,1,5
54,0.05791,1.172,1,5
55,0.0590897,1.174,1,5
56,0.0602694,1.183,1,5
57,0.0614595,1.188,1,5
58,0.0626497,1.188,1,5
59,0.0638294,1.187,1,5
60,0.0650196,1.189,1,5
61,0.0662193,1.194,1,5
62,0.0674095,1.195,1,5
63,0.0686092,1.198,1,5
64,0.0698099,1.204,1,5
65,0.0710192,1.209,1,5
66,0.0722294,1.205,1,5
67,0.0734301,1.203,1,5
68,0.0746393,1.21,1,5
69,0.0758495,1.214,1,5
70,0.0770693,1.219,1,5
71,0.07829,1.22,1,5
72,0.0795193,1.224,1,5
73,0.08074,1.225,1,5
74,0.0819597,1.222,1,5
75,0.08319,1.227,1,5
76,0.0844297,1.234,1,5
77,0.0856695,1.24,1,5
78,0.0868998,1.234,1,5
79,0.0881395,1.238,1,5
80,0.0893793,1.241,1,5
81,0.0906296,1.246,1,5
82,0.0918694,1.243,1,5
83,0.0931196,1.25,1,5
84,0.0943699,1.252,1,5
85,0.0956192,1.254,1,5
86,0.0968695,1.251,1,5
87,0.0981293,1.256,1,5
88,0.09939,1.259,1,5
89,0.10065,1.26,1,5
90,0.10191,1.262,1,5
91,0.10318,1.266,1,5
92,0.104449,1.269,1,5
93,0.10571,1.265,1,5
94,0.106979,1.268,1,5
95,0.108259,1.277,1,5
96,0.10954,1.279,1,5
97,0.11082,1.279,1,5
98,0.11209,1.277,1,5
99,0.113379,1.283,1,5
100,0.114659,1.283,1,5
101,0.11595,1.286,1,5
102,0.11724,1.296,1,5
103,0.11854,1.297,1,5
104,0.119829,1.288,1,5
105,0.121119,1.291,1,5
106,0.122419,1.299,1,5
107,0.123719,1.302,1,5
108,0.12502,1.304,1,5
109,0.126329,1.307,1,5
110,0.12764,1.309,1,5
111,0.12894,1.305,1,5
112,0.13025,1.307,1,5
113,0.13157,1.318,1,5
114,0.13289,1.322,1,5
115,0.13421,1.317,1,5
116,0.13553,1.32,1,5
117,0.136849,1.325,1,5
118,0.13818,1.326,1,5
119,0.139509,1.327,1,5
120,0.142179,1.34,1,5
121,0.143519,1.335,1,5
122,0.14485,1.335,1,5
123,0.14619,1.343,1,5
124,0.14754,1.348,1,5
125,0.14889,1.348,1,5
126,0.15024,1.351,1,5
127,0.151589,1.353,1,5
128,0.15294,1.349,1,5
129,0.1543,1.356,1,5
130,0.15566,1.365,1,5
131,0.15703,1.367,1,5
132,0.15839,1.363,1,5
133,0.15976,1.368,1,5
134,0.16113,1.368,1,5
135,0.162499,1.373,1,5
136,0.163879,1.382,1,5
137,0.16527,1.389,1,5
138,0.16665,1.381,1,5
139,0.16803,1.379,1,5
140,0.169419,1.389,1,5
141,0.170819,1.398,1,5
142,0.172219,1.403,1,5
143,0.17363,1.402,1,5
144,0.17503,1.399,1,5
145,0.17643,1.401,1,5
146,0.177839,1.412,1,5
147,0.179259,1.42,1,5
148,0.180679,1.42,1,5
149,0.18209,1.413,1,5
150,0.18351,1.419,1,5
151,0.184939,1.426,1,5
152,0.18637,1.433,1,5
153,0.187799,1.436,1,5
154,0.18924,1.436,1,5
155,0.19067,1.434,1,5
156,0.19211,1.439,1,5
157,0.19356,1.451,1,5
158,0.19502,1.452,1,5
159,0.196469,1.452,1,5
160,0.19792,1.457,1,5
161,0.19938,1.46,1,5
162,0.20084,1.46,1,5
163,0.20231,1.468,1,5
164,0.203779,1.475,1,5
165,0.205259,1.473,1,5
166,0.20673,1.469,1,5
167,0.2082,1.477,1,5
168,0.20968,1.481,1,5
169,0.211169,1.487,1,5
170,0.212669,1.495,1,5
171,0.214149,1.487,1,5
172,0.21564,1.485,1,5
173,0.21713,1.496,1,5
174,0.218639,1.504,1,5
175,0.22015,1.51,1,5
176,0.221649,1.506,1,5
177,0.22316,1.502,1,5
178,0.22466,1.506,1,5
179,0.22618,1.523,1,5
180,0.22771,1.527,1,5
181,0.22923,1.521,1,5
182,0.23075,1.517,1,5
183,0.232269,1.524,1,5
184,0.233809,1.533,1,5
185,0.23535,1.545,1,5
186,0.23689,1.536,1,5
187,0.23842,1.528,1,5
188,0.239949,1.538,1,5
189,0.241509,1.552,1,5
190,0.24306,1.558,1,5
191,0.24461,1.55,1,5
192,0.24616,1.544,1,5
193,0.247709,1.551,1,5
194,0.24928,1.568,1,5
195,0.25085,1.564,1,5
196,0.252419,1.564,1,5
197,0.25398,1.569,1,5
198,0.25713,1.581,1,5
199,0.258719,1.59,1,5
200,0.2603,1.584,1,5
201,0.26188,1.577,1,5
202,0.263459,1.58,1,5
203,0.26505,1.595,1,5
204,0.266649,1.602,1,5
205,0.26826,1.606,1,5
206,0.269859,1.596,1,5
207,0.27145,1.594,1,5
208,0.27306,1.607,1,5
209,0.27467,1.618,1,5
210,0.276299,1.621,1,5
211,0.277909,1.618,1,5
212,0.27953,1.613,1,5
213,0.28115,1.619,1,5
214,0.28278,1.636,1,5
215,0.28442,1.64,1,5
216,0.28605,1.633,1,5
217,0.28768,1.63,1,5
218,0.28932,1.638,1,5
219,0.29097,1.651,1,5
220,0.292629,1.648,1,5
221,0.29428,1.648,1,5
222,0.295919,1.646,1,5
223,0.29758,1.656,1,5
224,0.29925,1.668,1,5
225,0.30092,1.671,1,5
226,0.302589,1.666,1,5
227,0.30425,1.663,1,5
228,0.305929,1.676,1,5
229,0.30761,1.689,1,5
230,0.309299,1.687,1,5
231,0.31098,1.681,1,5
232,0.31436,1.694,1,5
233,0.31436,1.707,1,5
234,0.31606,1.707,1,5
235,0.31777,1.704,1,5
236,0.319469,1.697,1,5
237,0.32117,1.7,1,5
238,0.322869,1.71,1,5
239,0.324599,1.723,1,5
240,0.32632,1.722,1,5
241,0.32803,1.713,1,5
242,0.32975,1.715,1,5
243,0.33148,1.727,1,5
244,0.33321,1.738,1,5
245,0.334949,1.739,1,5
246,0.336679,1.729,1,5
247,0.338409,1.731,1,5
248,0.340159,1.746,1,5
249,0.341909,1.755,1,5
250,0.343659,1.749,1,5
251,0.345409,1.744,1,5
252,0.347159,1.754,1,5
253,0.34892,1.763,1,5
254,0.35069,1.763,1,5
255,0.35244,1.757,1,5
256,0.35421,1.763,1,5
257,0.35598,1.773,1,5
258,0.35775,1.774,1,5
259,0.35952,1.769,1,5
260,0.36129,1.771,1,5
261,0.36308,1.785,1,5
262,0.36487,1.789,1,5
263,0.36665,1.78,1,5
264,0.368429,1.78,1,5
265,0.370219,1.788,1,5
266,0.37202,1.806,1,5
267,0.373819,1.796,1,5
268,0.375609,1.788,1,5
269,0.377399,1.793,1,5
270,0.37921,1.81,1,5
271,0.38102,1.802,1,5
272,0.38283,1.802,1,5
273,0.38462,1.815,1,5
274,0.386439,1.815,1,5
275,0.38826,1.822,1,5
276,0.390079,1.813,1,5
277,0.39189,1.821,1,5
278,0.395539,1.831,1,5
279,0.397369,1.824,1,5
280,0.39919,1.82,1,5
281,0.40102,1.835,1,5
282,0.40286,1.839,1,5
283,0.40469,1.834,1,5
284,0.40652,1.828,1,5
285,0.40836,1.833,1,5
286,0.41021,1.852,1,5
287,0.41206,1.85,1,5
288,0.41389,1.83,1,5
289,0.41572,1.834,1,5
290,0.41758,1.855,1,5
291,0.419439,1.862,1,5
292,0.421289,1.847,1,5
293,0.42312,1.837,1,5
294,0.424979,1.851,1,5
295,0.42684,1.867,1,5
296,0.428699,1.862,1,5
297,0.43055,1.846,1,5
298,0.4324,1.849,1,5
299,0.43427,1.869,1,5
300,0.43614,1.868,1,5
301,0.437989,1.857,1,5
302,0.43985,1.853,1,5
303,0.44171,1.865,1,5
304,0.443589,1.876,1,5
305,0.44545,1.863,1,5
306,0.447309,1.857,1,5
307,0.44918,1.869,1,5
308,0.45105,1.876,1,5
309,0.45292,1.871,1,5
310,0.45478,1.861,1,5
311,0.456659,1.87,1,5
312,0.458529,1.879,1,5
313,0.460409,1.873,1,5
314,0.46227,1.867,1,5
315,0.46414,1.869,1,5
316,0.46602,1.879,1,5
317,0.467899,1.87,1,5
318,0.47164,1.868,1,5
319,0.47164,1.878,1,5
320,0.473519,1.878,1,5
321,0.4754,1.879,1,5
322,0.477269,1.873,1,5
323,0.479139,1.87,1,5
324,0.48102,1.876,1,5
325,0.482889,1.879,1,5
326,0.484759,1.87,1,5
327,0.486629,1.871,1,5
328,0.488509,1.874,1,5
329,0.49039,1.879,1,5
330,0.49226,1.869,1,5
331,0.49412,1.864,1,5
332,0.49599,1.874,1,5
333,0.497869,1.877,1,5
334,0.49974,1.87,1,5
335,0.501599,1.859,1,5
336,0.503469,1.866,1,5
337,0.50534,1.877,1,5
338,0.507219,1.873,1,5
339,0.50908,1.859,1,5
340,0.51093,1.856,1,5
341,0.512799,1.865,1,5
342,0.514669,1.876,1,5
343,0.51654,1.866,1,5
344,0.51839,1.856,1,5
345,0.520249,1.854,1,5
346,0.52211,1.864,1,5
347,0.523979,1.868,1,5
348,0.52584,1.861,1,5
349,0.52769,1.853,1,5
350,0.52955,1.852,1,5
351,0.5314,1.857,1,5
352,0.53327,1.863,1,5
353,0.53512,1.858,1,5
354,0.53698,1.854,1,5
355,0.538819,1.848,1,5
356,0.540669,1.848,1,5
357,0.54253,1.859,1,5
358,0.54439,1.861,1,5
359,0.546249,1.854,1,5
360,0.54809,1.838,1,5
361,0.54993,1.842,1,5
362,0.551789,1.86,1,5
363,0.55365,1.861,1,5
364,0.55549,1.845,1,5
365,0.557329,1.834,1,5
366,0.55917,1.841,1,5
367,0.561029,1.859,1,5
368,0.56288,1.856,1,5
369,0.564719,1.84,1,5
370,0.56656,1.834,1,5
371,0.568399,1.844,1,5
372,0.57026,1.855,1,5
373,0.5721,1.848,1,5
374,0.573939,1.841,1,5
375,0.575789,1.84,1,5
376,0.57762,1.839,1,5
377,0.57947,1.845,1,5
378,0.58132,1.85,1,5
379,0.583159,1.844,1,5
380,0.585,1.839,1,5
381,0.58684,1.835,1,5
382,0.588679,1.84,1,5
383,0.590529,1.852,1,5
384,0.59238,1.851,1,5
385,0.594219,1.838,1,5
386,0.596049,1.829,1,5
387,0.59789,1.844,1,5
388,0.59975,1.854,1,5
389,0.6016,1.851,1,5
390,0.60343,1.837,1,5
391,0.605269,1.832,1,5
392,0.60711,1.843,1,5
393,0.608959,1.854,1,5
394,0.610809,1.849,1,5
395,0.61265,1.839,1,5
396,0.616329,1.844,1,5
397,0.616329,1.85,1,5
398,0.620029,1.849,1,5
399,0.620029,1.849,1,5
400,0.62188,1.846,1,5
401,0.623719,1.839,1,5
402,0.62556,1.839,1,5
403,0.62741,1.849,1,5
404,0.62926,1.85,1,5
405,0.63295,1.842,1,5
406,0.63295,1.833,1,5
407,0.634789,1.833,1,5
408,0.63663,1.848,1,5
409,0.63849,1.858,1,5
410,0.64034,1.851,1,5
411,0.642179,1.837,1,5
412,0.64402,1.837,1,5
413,0.645869,1.85,1,5
414,0.647719,1.857,1,5
415,0.64957,1.851,1,5
416,0.65141,1.839,1,5
417,0.65325,1.838,1,5
418,0.6551,1.853,1,5
419,0.65696,1.858,1,5
420,0.65881,1.846,1,5
421,0.660649,1.841,1,5
422,0.66249,1.842,1,5
423,0.66434,1.851,1,5
424,0.6662,1.855,1,5
425,0.66805,1.85,1,5
426,0.669889,1.842,1,5
427,0.67173,1.842,1,5
428,0.673579,1.85,1,5
429,0.67544,1.858,1,5
430,0.67729,1.853,1,5
431,0.67914,1.845,1,5
432,0.68098,1.842,1,5
433,0.68283,1.85,1,5
434,0.68469,1.861,1,5
435,0.686549,1.86,1,5
436,0.68839,1.846,1,5
437,0.690229,1.839,1,5
438,0.69209,1.855,1,5
439,0.693959,1.869,1,5
440,0.69582,1.861,1,5
441,0.697659,1.845,1,5
442,0.69951,1.846,1,5
443,0.701369,1.859,1,5
444,0.703239,1.873,1,5
445,0.7051,1.862,1,5
446,0.70696,1.853,1,5
447,0.70881,1.854,1,5
448,0.71068,1.869,1,5
449,0.71256,1.875,1,5
450,0.714419,1.868,1,5
451,0.71629,1.863,1,5
452,0.718149,1.864,1,5
453,0.720019,1.871,1,5
454,0.7219,1.88,1,5
455,0.72378,1.88,1,5
456,0.725659,1.873,1,5
457,0.72753,1.871,1,5
458,0.7294,1.878,1,5
459,0.731299,1.896,1,5
460,0.73319,1.894,1,5
461,0.73508,1.882,1,5
462,0.73695,1.878,1,5
463,0.73885,1.894,1,5
464,0.74076,1.911,1,5
465,0.74266,1.903,1,5
466,0.74455,1.891,1,5
467,0.746449,1.894,1,5
468,0.74836,1.914,1,5
469,0.750279,1.922,1,5
470,0.75219,1.912,1,5
471,0.7541,1.905,1,5
472,0.75601,1.916,1,5
473,0.75795,1.931,1,5
474,0.75988,1.934,1,5
475,0.7618,1.925,1,5
476,0.76373,1.927,1,5
477,0.76567,1.935,1,5
478,0.76761,1.945,1,5
479,0.76956,1.948,1,5
480,0.771509,1.946,1,5
481,0.77345,1.946,1,5
482,0.775399,1.949,1,5
483,0.777369,1.962,1,5
484,0.779329,1.97,1,5
485,0.7813,1.966,1,5
486,0.783259,1.958,1,5
487,0.78523,1.967,1,5
488,0.78721,1.988,1,5
489,0.789209,1.994,1,5
490,0.791189,1.982,1,5
491,0.79317,1.978,1,5
492,0.795159,1.991,1,5
493,0.79717,2.013,1,5
494,0.79918,2.012,1,5
495,0.801189,2.004,1,5
496,0.803189,2.006,1,5
497,0.80521,2.016,1,5
498,0.80724,2.029,1,5
499,0.809279,2.037,1,5
500,0.81131,2.037,1,5
501,0.813339,2.027,1,5
502,0.81538,2.038,1,5
503,0.81743,2.055,1,5
504,0.8195,2.066,1,5
505,0.82156,2.06,1,5
506,0.823609,2.054,1,5
507,0.82568,2.068,1,5
508,0.82776,2.081,1,5
509,0.829849,2.089,1,5
510,0.83194,2.088,1,5
511,0.834029,2.09,1,5
512,0.836129,2.097,1,5
513,0.838229,2.105,1,5
514,0.84034,2.113,1,5
515,0.84246,2.12,1,5
516,0.844589,2.123,1,5
517,0.846709,2.124,1,5
518,0.84884,2.133,1,5
519,0.850989,2.143,1,5
520,0.85314,2.151,1,5
521,0.855289,2.153,1,5
522,0.85745,2.158,1,5
523,0.85961,2.165,1,5
524,0.861779,2.172,1,5
525,0.86397,2.182,1,5
526,0.866159,2.19,1,5
527,0.86835,2.193,1,5
528,0.87054,2.193,1,5
529,0.872749,2.205,1,5
530,0.87496,2.218,1,5
531,0.87719,2.224,1,5
532,0.87941,2.224,1,5
533,0.88165,2.233,1,5
534,0.883889,2.244,1,5
535,0.88614,2.249,1,5
536,0.88839,2.256,1,5
537,0.890659,2.272,1,5
538,0.895209,2.277,1,5
539,0.89749,2.286,1,5
540,0.89979,2.292,1,5
541,0.90209,2.302,1,5
542,0.904389,2.307,1,5
543,0.90671,2.315,1,5
544,0.90903,2.324,1,5
545,0.91136,2.33,1,5
546,0.9137,2.34,1,5
547,0.91605,2.344,1,5
548,0.9184,2.351,1,5
549,0.920759,2.359,1,5
550,0.92313,2.37,1,5
551,0.9255,2.373,1,5
552,0.927879,2.384,1,5
553,0.930269,2.391,1,5
554,0.93267,2.396,1,5
555,0.93507,2.403,1,5
556,0.93749,2.414,1,5
557,0.93991,2.42,1,5
558,0.94234,2.43,1,5
559,0.94477,2.434,1,5
560,0.947209,2.443,1,5
561,0.949659,2.459,1,5
562,0.95212,2.459,1,5
563,0.95459,2.466,1,5
564,0.95706,2.473,1,5
565,0.959539,2.48,1,5
566,0.962029,2.494,1,5
567,0.96453,2.504,1,5
568,0.96954,2.512,1,5
569,0.972059,2.515,1,5
570,0.97458,2.523,1,5
571,0.97711,2.533,1,5
572,0.97965,2.54,1,5
573,0.9822,2.546,1,5
574,0.98475,2.554,1,5
575,0.987309,2.559,1,5
576,0.98988,2.568,1,5
577,0.99245,2.576,1,5
578,0.995029,2.589,1,5
579,1.00022,2.596,1,5
580,1.00282,2.6,1,5
581,1.00542,2.607,1,5
582,1.00804,2.615,1,5
583,1.01066,2.621,1,5
584,1.01328,2.624,1,5
585,1.01592,2.638,1,5
586,1.01856,2.64,1,5
587,1.02121,2.645,1,5
588,1.02386,2.655,1,5
589,1.02652,2.658,1,5
590,1.02919,2.667,1,5
591,1.03186,2.671,1,5
592,1.03453,2.676,1,5
593,1.03722,2.686,1,5
594,1.03991,2.693,1,5
595,1.04261,2.694,1,5
596,1.04531,2.7,1,5
597,1.04802,2.709,1,5
598,1.05073,2.713,1,5
599,1.05345,2.72,1,5
600,1.05617,2.725,1,5
601,1.0589,2.728,1,5
602,1.06164,2.733,1,5
603,1.06438,2.741,1,5
604,1.06712,2.745,1,5
605,1.06987,2.753,1,5
606,1.07263,2.758,1,5
607,1.07815,2.764,1,5
608,1.08093,2.773,1,5
609,1.0837,2.777,1,5
610,1.08648,2.78,1,5
611,1.08927,2.784,1,5
612,1.09206,2.792,1,5
613,1.09486,2.798,1,5
614,1.09766,2.8,1,5
615,1.10046,2.802,1,5
616,1.10327,2.809,1,5
617,1.10608,2.813,1,5
618,1.1089,2.819,1,5
619,1.11173,2.826,1,5
620,1.11455,2.825,1,5
621,1.11738,2.832,1,5
622,1.12022,2.839,1,5
623,1.12306,2.842,1,5
624,1.1259,2.841,1,5
625,1.12875,2.85,1,5
626,1.13161,2.853,1,5
627,1.13446,2.854,1,5
628,1.13732,2.862,1,5
629,1.14019,2.864,1,5
630,1.14305,2.865,1,5
631,1.14592,2.87,1,5
632,1.1488,2.875,1,5
633,1.15168,2.878,1,5
634,1.15456,2.882,1,5
635,1.15744,2.887,1,5
636,1.16033,2.886,1,5
637,1.16321,2.897,1,5
638,1.16901,2.896,1,5
639,1.17191,2.901,1,5
640,1.17481,2.899,1,5
641,1.17771,2.904,1,5
642,1.18062,2.908,1,5
643,1.18353,2.914,1,5
644,1.18644,2.909,1,5
645,1.18935,2.912,1,5
646,1.19227,2.916,1,5
647,1.19519,2.918,1,5
648,1.19811,2.922,1,5
649,1.20102,2.916,1,5
650,1.20395,2.923,1,5
651,1.20687,2.923,1,5
652,1.20979,2.925,1,5
653,1.21272,2.927,1,5
654,1.21565,2.926,1,5
655,1.21857,2.926,1,5
656,1.2215,2.929,1,5
657,1.22443,2.931,1,5
658,1.22736,2.93,1,5
659,1.23029,2.929,1,5
660,1.23323,2.934,1,5
661,1.23616,2.934,1,5
662,1.23909,2.933,1,5
663,1.24203,2.936,1,5
664,1.24496,2.934,1,5
665,1.2479,2.934,1,5
666,1.25084,2.938,1,5
667,1.25377,2.939,1,5
668,1.25671,2.935,1,5
669,1.25965,2.937,1,5
670,1.26258,2.935,1,5
671,1.26552,2.937,1,5
672,1.26845,2.937,1,5
673,1.27139,2.935,1,5
674,1.27432,2.933,1,5
675,1.27726,2.932,1,5
676,1.28019,2.935,1,5
677,1.28313,2.936,1,5
678,1.28606,2.929,1,5
679,1.28898,2.93,1,5
680,1.29192,2.931,1,5
681,1.29484,2.928,1,5
682,1.29777,2.929,1,5
683,1.3007,2.925,1,5
684,1.30362,2.925,1,5
685,1.30655,2.924,1,5
686,1.30947,2.925,1,5
687,1.31239,2.919,1,5
688,1.31531,2.918,1,5
689,1.31822,2.916,1,5
690,1.32114,2.917,1,5
691,1.32406,2.916,1,5
692,1.32696,2.907,1,5
693,1.32988,2.911,1,5
694,1.33278,2.908,1,5
695,1.33569,2.905,1,5
696,1.33859,2.902,1,5
697,1.34149,2.899,1,5
698,1.34438,2.894,1,5
699,1.34728,2.897,1,5
700,1.35017,2.89,1,5
701,1.35306,2.89,1,5
702,1.35594,2.883,1,5
703,1.35883,2.882,1,5
704,1.3617,2.877,1,5
705,1.36458,2.878,1,5
706,1.36745,2.874,1,5
707,1.37032,2.869,1,5
708,1.37319,2.869,1,5
709,1.37606,2.865,1,5
710,1.37892,2.863,1,5
711,1.38178,2.855,1,5
712,1.38749,2.854,1,5
713,1.39034,2.85,1,5
714,1.39034,2.846,1,5
715,1.39603,2.847,1,5
716,1.39887,2.839,1,5
717,1.40171,2.841,1,5
718,1.40455,2.835,1,5
719,1.40738,2.832,1,5
720,1.41021,2.83,1,5
721,1.41303,2.825,1,5
722,1.41586,2.823,1,5
723,1.41868,2.823,1,5
724,1.4215,2.819,1,5
725,1.42432,2.819,1,5
726,1.42713,2.812,1,5
727,1.42994,2.808,1,5
728,1.43275,2.813,1,5
729,1.43556,2.806,1,5
730,1.43836,2.806,1,5
731,1.44116,2.802,1,5
732,1.44396,2.799,1,5
733,1.44676,2.797,1,5
734,1.44956,2.799,1,5
735,1.45235,2.795,1,5
736,1.45515,2.791,1,5
737,1.45793,2.79,1,5
738,1.46072,2.789,1,5
739,1.46351,2.787,1,5
740,1.46629,2.783,1,5
741,1.46907,2.779,1,5
742,1.47463,2.774,1,5
743,1.4774,2.773,1,5
744,1.48018,2.775,1,5
745,1.48294,2.768,1,5
746,1.48571,2.765,1,5
747,1.48847,2.762,1,5
748,1.49123,2.76,1,5
749,1.49399,2.76,1,5
750,1.49675,2.757,1,5
751,1.4995,2.75,1,5
752,1.50225,2.748,1,5
753,1.50499,2.748,1,5
754,1.50774,2.746,1,5
755,1.51048,2.741,1,5
756,1.51322,2.738,1,5
757,1.51595,2.734,1,5
758,1.51868,2.733,1,5
759,1.52142,2.73,1,5
760,1.52414,2.726,1,5
761,1.52686,2.725,1,5
762,1.52958,2.719,1,5
763,1.5323,2.718,1,5
764,1.53502,2.719,1,5
765,1.53773,2.712,1,5
766,1.54044,2.707,1,5
767,1.54315,2.707,1,5
768,1.54585,2.703,1,5
769,1.54855,2.702,1,5
770,1.55125,2.697,1,5
771,1.55394,2.694,1,5
772,1.55664,2.693,1,5
773,1.55933,2.694,1,5
774,1.56202,2.687,1,5
775,1.5647,2.685,1,5
776,1.56739,2.683,1,5
777,1.57006,2.68,1,5
778,1.57274,2.679,1,5
779,1.57542,2.678,1,5
780,1.5781,2.677,1,5
781,1.58077,2.674,1,5
782,1.58345,2.672,1,5
783,1.58879,2.673,1,5
784,1.59146,2.672,1,5
785,1.59413,2.669,1,5
786,1.5968,2.667,1,5
787,1.59947,2.67,1,5
788,1.60214,2.672,1,5
789,1.60481,2.671,1,5
790,1.60748,2.668,1,5
791,1.61015,2.668,1,5
792,1.61282,2.672,1,5
793,1.61549,2.671,1,5
794,1.61816,2.671,1,5
795,1.62083,2.671,1,5
796,1.6235,2.67,1,5
797,1.62617,2.671,1,5
798,1.62885,2.676,1,5
799,1.63152,2.674,1,5
800,1.6342,2.674,1,5
801,1.63688,2.679,1,5
802,1.63955,2.677,1,5
803,1.64223,2.677,1,5
804,1.64491,2.682,1,5
805,1.64759,2.681,1,5
806,1.65028,2.687,1,5
807,1.65297,2.689,1,5
808,1.65566,2.688,1,5
809,1.65835,2.692,1,5
810,1.66105,2.695,1,5
811,1.66374,2.697,1,5
812,1.66915,2.702,1,5
813,1.67185,2.703,1,5
814,1.67456,2.709,1,5
815,1.67727,2.712,1,5
816,1.67998,2.714,1,5
817,1.6827,2.716,1,5
818,1.68542,2.721,1,5
819,1.68814,2.721,1,5
820,1.69086,2.721,1,5
821,1.69359,2.728,1,5
822,1.69632,2.733,1,5
823,1.69906,2.734,1,5
824,1.70179,2.738,1,5
825,1.70453,2.738,1,5
826,1.70727,2.742,1,5
827,1.71002,2.746,1,5
828,1.71277,2.749,1,5
829,1.71553,2.755,1,5
830,1.71828,2.753,1,5
831,1.72103,2.757,1,5
832,1.7238,2.762,1,5
833,1.72656,2.765,1,5
834,1.72933,2.767,1,5
835,1.7321,2.773,1,5
836,1.73487,2.773,1,5
837,1.73765,2.775,1,5
838,1.74043,2.783,1,5
839,1.74322,2.786,1,5
840,1.746,2.786,1,5
841,1.74879,2.788,1,5
842,1.75158,2.791,1,5
843,1.75438,2.795,1,5
844,1.75718,2.8,1,5
845,1.75998,2.803,1,5
846,1.76279,2.809,1,5
847,1.7656,2.807,1,5
848,1.76841,2.81,1,5
849,1.77122,2.813,1,5
850,1.77404,2.819,1,5
851,1.77686,2.822,1,5
852,1.77969,2.824,1,5
853,1.78251,2.825,1,5
854,1.78534,2.83,1,5
855,1.78817,2.833,1,5
856,1.79101,2.839,1,5
857,1.79385,2.84,1,5
858,1.7967,2.844,1,5
859,1.79954,2.847,1,5
860,1.80239,2.848,1,5
861,1.80525,2.857,1,5
862,1.80811,2.861,1,5
863,1.81097,2.862,1,5
864,1.81384,2.87,1,5
865,1.81958,2.875,1,5
866,1.82246,2.88,1,5
867,1.82535,2.882,1,5
868,1.82823,2.887,1,5
869,1.83112,2.888,1,5
870,1.83402,2.9,1,5
871,1.83692,2.898,1,5
872,1.83982,2.905,1,5
873,1.84273,2.908,1,5
874,1.84565,2.914,1,5
875,1.84856,2.917,1,5
876,1.85148,2.921,1,5
877,1.85441,2.927,1,5
878,1.85734,2.931,1,5
879,1.86028,2.936,1,5
880,1.86322,2.94,1,5
881,1.86617,2.947,1,5
882,1.86911,2.949,1,5
883,1.87207,2.955,1,5
884,1.87503,2.958,1,5
885,1.87799,2.965,1,5
886,1.88096,2.969,1,5
887,1.88393,2.973,1,5
888,1.88691,2.98,1,5
889,1.8899,2.986,1,5
890,1.89289,2.988,1,5
891,1.89588,2.993,1,5
892,1.89888,2.999,1,5
893,1.90188,3.004,1,5
894,1.90489,3.01,1,5
895,1.9079,3.009,1,5
896,1.91092,3.017,1,5
897,1.91394,3.022,1,5
898,1.91697,3.03,1,5
899,1.92,3.033,1,5
900,1.92304,3.034,1,5
901,1.92608,3.037,1,5
902,1.92912,3.044,1,5
903,1.93217,3.049,1,5
904,1.93522,3.056,1,5
905,1.93828,3.055,1,5
