cnt,pos,speed,Dir,Force,
1,0,1.004,1,5
2,0.000989914,0.998,1,5
3,0.00197983,0.985,1,5
4,0.00296974,0.995,1,5
5,0.00398922,1.014,1,5
6,0.00500965,1.022,1,5
7,0.00601959,1.013,1,5
8,0.00702953,1.004,1,5
9,0.00803947,1.012,1,5
10,0.00906944,1.029,1,5
11,0.0100994,1.037,1,5
12,0.0111294,1.023,1,5
13,0.0121393,1.015,1,5
14,0.0131693,1.03,1,5
15,0.0142193,1.05,1,5
16,0.0152798,1.054,1,5
17,0.0163097,1.036,1,5
18,0.0173397,1.029,1,5
19,0.0183897,1.045,1,5
20,0.0194492,1.063,1,5
21,0.0205097,1.065,1,5
22,0.0215597,1.049,1,5
23,0.0226097,1.047,1,5
24,0.0236692,1.064,1,5
25,0.0247593,1.081,1,5
26,0.0258293,1.075,1,5
27,0.0268898,1.059,1,5
28,0.0279493,1.063,1,5
29,0.0290298,1.081,1,5
30,0.0301294,1.093,1,5
31,0.0312099,1.085,1,5
32,0.0322895,1.078,1,5
33,0.03337,1.085,1,5
34,0.0344696,1.1,1,5
35,0.0355692,1.099,1,5
36,0.0366697,1.094,1,5
37,0.0377598,1.096,1,5
38,0.0388699,1.108,1,5
39,0.0399799,1.113,1,5
40,0.0410995,1.111,1,5
41,0.0421991,1.109,1,5
42,0.0433197,1.116,1,5
43,0.0444393,1.121,1,5
44,0.0455599,1.122,1,5
45,0.04669,1.123,1,5
46,0.0478191,1.13,1,5
47,0.0489492,1.132,1,5
48,0.0500793,1.129,1,5
49,0.0512094,1.134,1,5
50,0.05235,1.143,1,5
51,0.0534992,1.144,1,5
52,0.0546398,1.141,1,5
53,0.0557795,1.141,1,5
54,0.0569296,1.159,1,5
55,0.0580893,1.159,1,5
56,0.0592394,1.152,1,5
57,0.0615597,1.16,1,5
58,0.0627298,1.169,1,5
59,0.0638895,1.17,1,5
60,0.0650597,1.167,1,5
61,0.0662298,1.169,1,5
62,0.0674095,1.178,1,5
63,0.0685892,1.182,1,5
64,0.0697699,1.18,1,5
65,0.0709496,1.181,1,5
66,0.0721397,1.191,1,5
67,0.0733395,1.194,1,5
68,0.0745296,1.191,1,5
69,0.0757198,1.194,1,5
70,0.0769196,1.2,1,5
71,0.0781193,1.201,1,5
72,0.0793295,1.205,1,5
73,0.0805397,1.212,1,5
74,0.0817499,1.21,1,5
75,0.0829592,1.209,1,5
76,0.0841694,1.213,1,5
77,0.0853996,1.224,1,5
78,0.0866194,1.229,1,5
79,0.0878496,1.222,1,5
80,0.0890694,1.222,1,5
81,0.0902996,1.23,1,5
82,0.0915394,1.243,1,5
83,0.0927792,1.238,1,5
84,0.0940199,1.239,1,5
85,0.0952597,1.242,1,5
86,0.0965099,1.25,1,5
87,0.0977592,1.249,1,5
88,0.09902,1.256,1,5
89,0.100269,1.258,1,5
90,0.10154,1.262,1,5
91,0.102799,1.269,1,5
92,0.10407,1.269,1,5
93,0.10534,1.271,1,5
94,0.1066,1.266,1,5
95,0.10788,1.275,1,5
96,0.109159,1.283,1,5
97,0.11045,1.287,1,5
98,0.11173,1.281,1,5
99,0.113009,1.293,1,5
100,0.1156,1.301,1,5
101,0.116899,1.296,1,5
102,0.118199,1.299,1,5
103,0.119499,1.305,1,5
104,0.12081,1.31,1,5
105,0.12212,1.31,1,5
106,0.123429,1.313,1,5
107,0.124749,1.319,1,5
108,0.12608,1.323,1,5
109,0.127399,1.326,1,5
110,0.12873,1.329,1,5
111,0.130059,1.326,1,5
112,0.13139,1.331,1,5
113,0.13273,1.344,1,5
114,0.13408,1.348,1,5
115,0.13542,1.34,1,5
116,0.13676,1.339,1,5
117,0.138109,1.351,1,5
118,0.139469,1.36,1,5
119,0.14083,1.361,1,5
120,0.14219,1.36,1,5
121,0.14355,1.36,1,5
122,0.14491,1.362,1,5
123,0.14629,1.374,1,5
124,0.14767,1.379,1,5
125,0.14905,1.379,1,5
126,0.150419,1.383,1,5
127,0.151799,1.391,1,5
128,0.15319,1.395,1,5
129,0.15459,1.397,1,5
130,0.15739,1.399,1,5
131,0.15879,1.4,1,5
132,0.16019,1.403,1,5
133,0.161599,1.41,1,5
134,0.16301,1.414,1,5
135,0.16443,1.418,1,5
136,0.165859,1.425,1,5
137,0.167279,1.421,1,5
138,0.16869,1.418,1,5
139,0.170119,1.425,1,5
140,0.171559,1.44,1,5
141,0.172999,1.444,1,5
142,0.174439,1.439,1,5
143,0.175879,1.437,1,5
144,0.17732,1.442,1,5
145,0.178769,1.453,1,5
146,0.18024,1.464,1,5
147,0.1817,1.46,1,5
148,0.183149,1.453,1,5
149,0.184609,1.459,1,5
150,0.18608,1.473,1,5
151,0.187559,1.479,1,5
152,0.189039,1.481,1,5
153,0.19051,1.471,1,5
154,0.19199,1.473,1,5
155,0.19348,1.489,1,5
156,0.194969,1.498,1,5
157,0.196469,1.497,1,5
158,0.19796,1.49,1,5
159,0.19946,1.494,1,5
160,0.200959,1.503,1,5
161,0.20247,1.512,1,5
162,0.20399,1.518,1,5
163,0.2055,1.514,1,5
164,0.20702,1.513,1,5
165,0.20854,1.522,1,5
166,0.21007,1.531,1,5
167,0.211599,1.536,1,5
168,0.21314,1.538,1,5
169,0.21468,1.536,1,5
170,0.216209,1.535,1,5
171,0.217759,1.549,1,5
172,0.219319,1.557,1,5
173,0.22088,1.558,1,5
174,0.222429,1.557,1,5
175,0.223989,1.556,1,5
176,0.22555,1.564,1,5
177,0.22713,1.579,1,5
178,0.22872,1.582,1,5
179,0.230289,1.574,1,5
180,0.23187,1.577,1,5
181,0.23345,1.586,1,5
182,0.235049,1.6,1,5
183,0.23665,1.604,1,5
184,0.23825,1.598,1,5
185,0.23985,1.594,1,5
186,0.24146,1.608,1,5
187,0.243079,1.623,1,5
188,0.24632,1.617,1,5
189,0.24632,1.615,1,5
190,0.24793,1.626,1,5
191,0.249559,1.626,1,5
192,0.25285,1.648,1,5
193,0.25449,1.637,1,5
194,0.25612,1.632,1,5
195,0.25777,1.644,1,5
196,0.25943,1.666,1,5
197,0.261109,1.675,1,5
198,0.26277,1.66,1,5
199,0.26442,1.65,1,5
200,0.26608,1.664,1,5
201,0.26777,1.684,1,5
202,0.269469,1.699,1,5
203,0.27115,1.684,1,5
204,0.27282,1.669,1,5
205,0.2745,1.682,1,5
206,0.27621,1.706,1,5
207,0.27792,1.718,1,5
208,0.27963,1.708,1,5
209,0.281329,1.694,1,5
210,0.28302,1.698,1,5
211,0.28475,1.723,1,5
212,0.28648,1.736,1,5
213,0.28821,1.728,1,5
214,0.289929,1.717,1,5
215,0.29165,1.721,1,5
216,0.293389,1.742,1,5
217,0.295139,1.751,1,5
218,0.296889,1.745,1,5
219,0.29863,1.742,1,5
220,0.300369,1.744,1,5
221,0.30213,1.756,1,5
222,0.303889,1.765,1,5
223,0.30565,1.76,1,5
224,0.307409,1.763,1,5
225,0.309179,1.77,1,5
226,0.31273,1.773,1,5
227,0.3145,1.774,1,5
228,0.31629,1.785,1,5
229,0.318069,1.788,1,5
230,0.31985,1.781,1,5
231,0.32164,1.782,1,5
232,0.323429,1.794,1,5
233,0.32523,1.804,1,5
234,0.327029,1.8,1,5
235,0.328819,1.791,1,5
236,0.33062,1.798,1,5
237,0.33243,1.811,1,5
238,0.334249,1.813,1,5
239,0.33605,1.807,1,5
240,0.337859,1.809,1,5
241,0.33968,1.813,1,5
242,0.341499,1.821,1,5
243,0.34332,1.817,1,5
244,0.34514,1.82,1,5
245,0.346959,1.827,1,5
246,0.348789,1.827,1,5
247,0.35061,1.826,1,5
248,0.35244,1.825,1,5
249,0.35428,1.834,1,5
250,0.356119,1.842,1,5
251,0.357949,1.835,1,5
252,0.359779,1.832,1,5
253,0.36162,1.838,1,5
254,0.363469,1.845,1,5
255,0.365319,1.849,1,5
256,0.36716,1.844,1,5
257,0.37085,1.847,1,5
258,0.37085,1.855,1,5
259,0.374559,1.856,1,5
260,0.374559,1.851,1,5
261,0.37641,1.851,1,5
262,0.37826,1.854,1,5
263,0.380119,1.859,1,5
264,0.38198,1.857,1,5
265,0.38384,1.864,1,5
266,0.38571,1.866,1,5
267,0.38758,1.869,1,5
268,0.38944,1.86,1,5
269,0.391299,1.861,1,5
270,0.393169,1.874,1,5
271,0.39506,1.88,1,5
272,0.39693,1.873,1,5
273,0.398789,1.866,1,5
274,0.40067,1.872,1,5
275,0.40255,1.888,1,5
276,0.40444,1.889,1,5
277,0.40632,1.881,1,5
278,0.408199,1.876,1,5
279,0.410089,1.885,1,5
280,0.41198,1.898,1,5
281,0.413879,1.897,1,5
282,0.41577,1.89,1,5
283,0.41766,1.89,1,5
284,0.419559,1.896,1,5
285,0.421459,1.906,1,5
286,0.423369,1.905,1,5
287,0.425269,1.904,1,5
288,0.42717,1.901,1,5
289,0.42908,1.905,1,5
290,0.430989,1.915,1,5
291,0.43291,1.92,1,5
292,0.43483,1.917,1,5
293,0.43674,1.913,1,5
294,0.43866,1.914,1,5
295,0.440579,1.928,1,5
296,0.442519,1.932,1,5
297,0.44444,1.918,1,5
298,0.44636,1.918,1,5
299,0.44829,1.94,1,5
300,0.45023,1.94,1,5
301,0.452169,1.941,1,5
302,0.4541,1.933,1,5
303,0.45603,1.93,1,5
304,0.45797,1.939,1,5
305,0.46186,1.945,1,5
306,0.46381,1.943,1,5
307,0.46575,1.942,1,5
308,0.4677,1.947,1,5
309,0.469649,1.952,1,5
310,0.4716,1.953,1,5
311,0.47355,1.951,1,5
312,0.475499,1.947,1,5
313,0.477449,1.952,1,5
314,0.479409,1.958,1,5
315,0.48137,1.962,1,5
316,0.483319,1.953,1,5
317,0.48527,1.947,1,5
318,0.487229,1.96,1,5
319,0.4892,1.968,1,5
320,0.491159,1.961,1,5
321,0.49311,1.951,1,5
322,0.49507,1.954,1,5
323,0.497029,1.967,1,5
324,0.499,1.969,1,5
325,0.500959,1.957,1,5
326,0.50291,1.952,1,5
327,0.504869,1.963,1,5
328,0.50684,1.972,1,5
329,0.50881,1.961,1,5
330,0.510759,1.956,1,5
331,0.512719,1.957,1,5
332,0.51468,1.964,1,5
333,0.516649,1.963,1,5
334,0.51861,1.96,1,5
335,0.52057,1.959,1,5
336,0.522519,1.955,1,5
337,0.52448,1.959,1,5
338,0.52644,1.963,1,5
339,0.528399,1.962,1,5
340,0.530359,1.951,1,5
341,0.5323,1.946,1,5
342,0.53426,1.955,1,5
343,0.53622,1.963,1,5
344,0.538179,1.954,1,5
345,0.540119,1.942,1,5
346,0.54206,1.944,1,5
347,0.54402,1.959,1,5
348,0.545979,1.957,1,5
349,0.547919,1.944,1,5
350,0.54986,1.937,1,5
351,0.5518,1.945,1,5
352,0.55376,1.956,1,5
353,0.55765,1.942,1,5
354,0.559589,1.937,1,5
355,0.561529,1.941,1,5
356,0.563479,1.945,1,5
357,0.56543,1.95,1,5
358,0.567369,1.945,1,5
359,0.5693,1.934,1,5
360,0.571239,1.932,1,5
361,0.573179,1.945,1,5
362,0.57513,1.95,1,5
363,0.577069,1.943,1,5
364,0.579,1.929,1,5
365,0.580939,1.934,1,5
366,0.58288,1.944,1,5
367,0.584829,1.947,1,5
368,0.58677,1.938,1,5
369,0.588699,1.931,1,5
370,0.59063,1.936,1,5
371,0.59258,1.943,1,5
372,0.59452,1.943,1,5
373,0.596459,1.936,1,5
374,0.59839,1.933,1,5
375,0.600329,1.938,1,5
376,0.60421,1.94,1,5
377,0.60421,1.939,1,5
378,0.606139,1.939,1,5
379,0.60808,1.936,1,5
380,0.61002,1.937,1,5
381,0.611959,1.943,1,5
382,0.613899,1.943,1,5
383,0.61778,1.936,1,5
384,0.61971,1.937,1,5
385,0.621659,1.943,1,5
386,0.62361,1.948,1,5
387,0.62554,1.939,1,5
388,0.62748,1.938,1,5
389,0.62943,1.943,1,5
390,0.63137,1.948,1,5
391,0.63332,1.947,1,5
392,0.63526,1.941,1,5
393,0.63721,1.945,1,5
394,0.639159,1.95,1,5
395,0.641109,1.95,1,5
396,0.643049,1.947,1,5
397,0.645,1.946,1,5
398,0.64695,1.951,1,5
399,0.64891,1.953,1,5
400,0.65086,1.952,1,5
401,0.652809,1.953,1,5
402,0.654759,1.953,1,5
403,0.656719,1.955,1,5
404,0.658669,1.955,1,5
405,0.660629,1.959,1,5
406,0.66259,1.96,1,5
407,0.66455,1.956,1,5
408,0.66651,1.96,1,5
409,0.668469,1.963,1,5
410,0.67044,1.966,1,5
411,0.6724,1.964,1,5
412,0.674359,1.962,1,5
413,0.67633,1.967,1,5
414,0.6783,1.97,1,5
415,0.680269,1.971,1,5
416,0.68224,1.968,1,5
417,0.68421,1.972,1,5
418,0.68619,1.977,1,5
419,0.68816,1.977,1,5
420,0.69014,1.978,1,5
421,0.69212,1.978,1,5
422,0.694099,1.983,1,5
423,0.69609,1.985,1,5
424,0.698079,1.988,1,5
425,0.70006,1.987,1,5
426,0.702049,1.989,1,5
427,0.70404,1.993,1,5
428,0.706039,1.995,1,5
429,0.708039,1.999,1,5
430,0.710039,2,1,5
431,0.71204,1.999,1,5
432,0.71404,2.005,1,5
433,0.716049,2.012,1,5
434,0.71807,2.016,1,5
435,0.720079,2.009,1,5
436,0.72209,2.013,1,5
437,0.724119,2.025,1,5
438,0.72614,2.028,1,5
439,0.728169,2.024,1,5
440,0.730189,2.025,1,5
441,0.732229,2.036,1,5
442,0.734269,2.04,1,5
443,0.73631,2.042,1,5
444,0.73835,2.037,1,5
445,0.740399,2.048,1,5
446,0.74245,2.056,1,5
447,0.74451,2.055,1,5
448,0.746559,2.057,1,5
449,0.74863,2.062,1,5
450,0.75069,2.068,1,5
451,0.752769,2.072,1,5
452,0.75484,2.077,1,5
453,0.75692,2.078,1,5
454,0.759,2.081,1,5
455,0.761089,2.088,1,5
456,0.76318,2.098,1,5
457,0.76738,2.095,1,5
458,0.76948,2.103,1,5
459,0.7716,2.116,1,5
460,0.7716,2.116,1,5
461,0.773709,2.118,1,5
462,0.775829,2.116,1,5
463,0.777949,2.132,1,5
464,0.78222,2.137,1,5
465,0.78436,2.138,1,5
466,0.7865,2.14,1,5
467,0.78865,2.15,1,5
468,0.790799,2.154,1,5
469,0.792959,2.16,1,5
470,0.79513,2.165,1,5
471,0.79729,2.167,1,5
472,0.79947,2.173,1,5
473,0.80165,2.18,1,5
474,0.803829,2.186,1,5
475,0.80602,2.185,1,5
476,0.808209,2.193,1,5
477,0.81041,2.202,1,5
478,0.812619,2.208,1,5
479,0.81483,2.204,1,5
480,0.817039,2.211,1,5
481,0.81926,2.225,1,5
482,0.821489,2.228,1,5
483,0.823709,2.225,1,5
484,0.82595,2.234,1,5
485,0.82819,2.244,1,5
486,0.83044,2.246,1,5
487,0.832689,2.248,1,5
488,0.83494,2.257,1,5
489,0.837199,2.261,1,5
490,0.83947,2.267,1,5
491,0.84174,2.273,1,5
492,0.84402,2.276,1,5
493,0.846299,2.281,1,5
494,0.84859,2.289,1,5
495,0.850889,2.298,1,5
496,0.85318,2.294,1,5
497,0.855479,2.301,1,5
498,0.8578,2.314,1,5
499,0.860109,2.316,1,5
500,0.86243,2.317,1,5
501,0.86475,2.323,1,5
502,0.867089,2.334,1,5
503,0.86942,2.337,1,5
504,0.871759,2.34,1,5
505,0.874109,2.348,1,5
506,0.87647,2.354,1,5
507,0.878819,2.357,1,5
508,0.88118,2.362,1,5
509,0.88355,2.37,1,5
510,0.885929,2.376,1,5
511,0.888309,2.377,1,5
512,0.89069,2.384,1,5
513,0.89308,2.392,1,5
514,0.895479,2.396,1,5
515,0.89788,2.402,1,5
516,0.90029,2.404,1,5
517,0.902699,2.41,1,5
518,0.905109,2.418,1,5
519,0.907539,2.425,1,5
520,0.909969,2.428,1,5
521,0.912399,2.434,1,5
522,0.91484,2.438,1,5
523,0.917279,2.444,1,5
524,0.919729,2.45,1,5
525,0.92219,2.458,1,5
526,0.924649,2.461,1,5
527,0.927119,2.466,1,5
528,0.932059,2.477,1,5
529,0.934549,2.484,1,5
530,0.937039,2.488,1,5
531,0.939529,2.491,1,5
532,0.942019,2.495,1,5
533,0.94452,2.503,1,5
534,0.947029,2.51,1,5
535,0.94955,2.512,1,5
536,0.95206,2.516,1,5
537,0.957109,2.526,1,5
538,0.957109,2.532,1,5
539,0.95964,2.532,1,5
540,0.962179,2.538,1,5
541,0.96472,2.539,1,5
542,0.967259,2.543,1,5
543,0.96982,2.551,1,5
544,0.972369,2.557,1,5
545,0.97493,2.556,1,5
546,0.977489,2.563,1,5
547,0.98006,2.567,1,5
548,0.98263,2.575,1,5
549,0.985209,2.576,1,5
550,0.987789,2.579,1,5
551,0.99037,2.586,1,5
552,0.99297,2.593,1,5
553,0.99556,2.592,1,5
554,0.99815,2.596,1,5
555,1.00076,2.605,1,5
556,1.00336,2.604,1,5
557,1.00597,2.61,1,5
558,1.00859,2.617,1,5
559,1.01121,2.617,1,5
560,1.01383,2.621,1,5
561,1.01645,2.627,1,5
562,1.01908,2.628,1,5
563,1.02171,2.63,1,5
564,1.02435,2.639,1,5
565,1.02699,2.638,1,5
566,1.02963,2.641,1,5
567,1.03228,2.648,1,5
568,1.03493,2.653,1,5
569,1.03758,2.653,1,5
570,1.04024,2.657,1,5
571,1.04289,2.657,1,5
572,1.04556,2.662,1,5
573,1.04822,2.667,1,5
574,1.05089,2.668,1,5
575,1.05356,2.674,1,5
576,1.05624,2.674,1,5
577,1.05891,2.675,1,5
578,1.0616,2.685,1,5
579,1.06429,2.69,1,5
580,1.06698,2.687,1,5
581,1.06966,2.689,1,5
582,1.07236,2.697,1,5
583,1.07506,2.699,1,5
584,1.07776,2.702,1,5
585,1.08047,2.704,1,5
586,1.08317,2.705,1,5
587,1.08588,2.712,1,5
588,1.0886,2.716,1,5
589,1.09131,2.714,1,5
590,1.09403,2.719,1,5
591,1.09675,2.719,1,5
592,1.09948,2.724,1,5
593,1.1022,2.728,1,5
594,1.10494,2.732,1,5
595,1.10767,2.731,1,5
596,1.1104,2.736,1,5
597,1.11314,2.738,1,5
598,1.11588,2.743,1,5
599,1.12137,2.745,1,5
600,1.12412,2.748,1,5
601,1.12687,2.752,1,5
602,1.12962,2.755,1,5
603,1.13238,2.756,1,5
604,1.13514,2.76,1,5
605,1.1379,2.761,1,5
606,1.14067,2.765,1,5
607,1.14343,2.768,1,5
608,1.1462,2.768,1,5
609,1.14897,2.773,1,5
610,1.15175,2.777,1,5
611,1.15452,2.774,1,5
612,1.15731,2.781,1,5
613,1.16009,2.784,1,5
614,1.16287,2.782,1,5
615,1.16566,2.787,1,5
616,1.16845,2.787,1,5
617,1.17123,2.789,1,5
618,1.17403,2.793,1,5
619,1.17682,2.795,1,5
620,1.17962,2.795,1,5
621,1.18242,2.799,1,5
622,1.18522,2.799,1,5
623,1.18802,2.806,1,5
624,1.19083,2.805,1,5
625,1.19363,2.804,1,5
626,1.19644,2.808,1,5
627,1.19925,2.812,1,5
628,1.20206,2.81,1,5
629,1.20488,2.817,1,5
630,1.20769,2.816,1,5
631,1.21051,2.815,1,5
632,1.21333,2.821,1,5
633,1.21615,2.82,1,5
634,1.21897,2.824,1,5
635,1.2218,2.823,1,5
636,1.22462,2.824,1,5
637,1.22745,2.824,1,5
638,1.23027,2.827,1,5
639,1.2331,2.826,1,5
640,1.23593,2.831,1,5
641,1.23876,2.831,1,5
642,1.24159,2.829,1,5
643,1.24442,2.827,1,5
644,1.24725,2.829,1,5
645,1.25008,2.832,1,5
646,1.25291,2.836,1,5
647,1.25574,2.829,1,5
648,1.25857,2.827,1,5
649,1.2614,2.833,1,5
650,1.26423,2.832,1,5
651,1.26707,2.832,1,5
652,1.2699,2.831,1,5
653,1.27273,2.832,1,5
654,1.27556,2.831,1,5
655,1.27839,2.83,1,5
656,1.28122,2.831,1,5
657,1.28406,2.833,1,5
658,1.28688,2.828,1,5
659,1.28971,2.827,1,5
660,1.29537,2.83,1,5
661,1.29537,2.83,1,5
662,1.30103,2.826,1,5
663,1.30103,2.823,1,5
664,1.30667,2.825,1,5
665,1.30667,2.825,1,5
666,1.3095,2.825,1,5
667,1.31232,2.823,1,5
668,1.31797,2.821,1,5
669,1.32079,2.821,1,5
670,1.3236,2.819,1,5
671,1.32642,2.815,1,5
672,1.32924,2.815,1,5
673,1.33205,2.817,1,5
674,1.33486,2.812,1,5
675,1.33768,2.814,1,5
676,1.34049,2.81,1,5
677,1.3433,2.809,1,5
678,1.34611,2.809,1,5
679,1.34891,2.806,1,5
680,1.35172,2.803,1,5
681,1.35452,2.805,1,5
682,1.35732,2.802,1,5
683,1.36012,2.801,1,5
684,1.36292,2.798,1,5
685,1.36572,2.796,1,5
686,1.36851,2.795,1,5
687,1.3713,2.793,1,5
688,1.3741,2.791,1,5
689,1.37689,2.791,1,5
690,1.37967,2.784,1,5
691,1.38245,2.781,1,5
692,1.38524,2.784,1,5
693,1.38802,2.781,1,5
694,1.39079,2.776,1,5
695,1.39357,2.777,1,5
696,1.39634,2.772,1,5
697,1.39911,2.771,1,5
698,1.40188,2.771,1,5
699,1.40465,2.769,1,5
700,1.40742,2.766,1,5
701,1.41018,2.764,1,5
702,1.41294,2.76,1,5
703,1.41571,2.763,1,5
704,1.41847,2.759,1,5
705,1.42122,2.757,1,5
706,1.42398,2.755,1,5
707,1.42673,2.751,1,5
708,1.42948,2.749,1,5
709,1.43223,2.749,1,5
710,1.43497,2.747,1,5
711,1.43772,2.745,1,5
712,1.44046,2.743,1,5
713,1.4432,2.738,1,5
714,1.44594,2.739,1,5
715,1.44867,2.735,1,5
716,1.45141,2.731,1,5
717,1.45413,2.729,1,5
718,1.45686,2.727,1,5
719,1.45958,2.723,1,5
720,1.46231,2.722,1,5
721,1.46503,2.721,1,5
722,1.46775,2.718,1,5
723,1.47046,2.714,1,5
724,1.47317,2.711,1,5
725,1.47588,2.707,1,5
726,1.47858,2.708,1,5
727,1.48129,2.704,1,5
728,1.48399,2.697,1,5
729,1.48669,2.699,1,5
730,1.48938,2.696,1,5
731,1.49207,2.69,1,5
732,1.49745,2.687,1,5
733,1.50014,2.685,1,5
734,1.50282,2.684,1,5
735,1.5055,2.678,1,5
736,1.50817,2.674,1,5
737,1.51084,2.673,1,5
738,1.51352,2.67,1,5
739,1.51618,2.668,1,5
740,1.51885,2.666,1,5
741,1.52151,2.662,1,5
742,1.52417,2.657,1,5
743,1.52683,2.658,1,5
744,1.52948,2.653,1,5
745,1.53213,2.652,1,5
746,1.53478,2.651,1,5
747,1.53743,2.646,1,5
748,1.54007,2.643,1,5
749,1.54271,2.642,1,5
750,1.54536,2.642,1,5
751,1.55063,2.636,1,5
752,1.55327,2.634,1,5
753,1.5559,2.634,1,5
754,1.55854,2.634,1,5
755,1.56117,2.632,1,5
756,1.5638,2.633,1,5
757,1.56643,2.629,1,5
758,1.56906,2.628,1,5
759,1.57168,2.628,1,5
760,1.57432,2.632,1,5
761,1.57694,2.626,1,5
762,1.57957,2.626,1,5
763,1.5822,2.628,1,5
764,1.58482,2.628,1,5
765,1.58745,2.625,1,5
766,1.59008,2.627,1,5
767,1.5927,2.627,1,5
768,1.59533,2.627,1,5
769,1.59796,2.629,1,5
770,1.60059,2.629,1,5
771,1.60322,2.629,1,5
772,1.60585,2.631,1,5
773,1.60848,2.632,1,5
774,1.61111,2.633,1,5
775,1.61375,2.635,1,5
776,1.61638,2.633,1,5
777,1.61902,2.638,1,5
778,1.62166,2.64,1,5
779,1.6243,2.641,1,5
780,1.62694,2.641,1,5
781,1.63223,2.645,1,5
782,1.63488,2.646,1,5
783,1.63753,2.653,1,5
784,1.64018,2.65,1,5
785,1.64284,2.657,1,5
786,1.64549,2.657,1,5
787,1.64815,2.656,1,5
788,1.65082,2.665,1,5
789,1.65348,2.664,1,5
790,1.65614,2.666,1,5
791,1.65882,2.672,1,5
792,1.66149,2.672,1,5
793,1.66416,2.671,1,5
794,1.66684,2.679,1,5
795,1.66952,2.681,1,5
796,1.6722,2.683,1,5
797,1.67489,2.688,1,5
798,1.67758,2.69,1,5
799,1.68027,2.688,1,5
800,1.68296,2.695,1,5
801,1.68566,2.7,1,5
802,1.68837,2.703,1,5
803,1.69107,2.702,1,5
804,1.69377,2.705,1,5
805,1.69648,2.712,1,5
806,1.6992,2.72,1,5
807,1.70192,2.715,1,5
808,1.70464,2.72,1,5
809,1.70737,2.727,1,5
810,1.71009,2.727,1,5
811,1.71282,2.732,1,5
812,1.71556,2.736,1,5
813,1.7183,2.739,1,5
814,1.72104,2.742,1,5
815,1.72379,2.749,1,5
816,1.72654,2.752,1,5
817,1.7293,2.753,1,5
818,1.73205,2.758,1,5
819,1.73482,2.762,1,5
820,1.73758,2.767,1,5
821,1.74035,2.771,1,5
822,1.74312,2.771,1,5
823,1.7459,2.776,1,5
824,1.74868,2.78,1,5
825,1.75146,2.785,1,5
826,1.75425,2.789,1,5
827,1.75704,2.791,1,5
828,1.75984,2.797,1,5
829,1.76264,2.8,1,5
830,1.76545,2.803,1,5
831,1.76825,2.806,1,5
832,1.77107,2.815,1,5
833,1.77388,2.818,1,5
834,1.77671,2.822,1,5
835,1.77953,2.824,1,5
836,1.78236,2.829,1,5
837,1.7852,2.837,1,5
838,1.78804,2.842,1,5
839,1.79088,2.841,1,5
840,1.79373,2.848,1,5
841,1.79658,2.855,1,5
842,1.79944,2.856,1,5
843,1.8023,2.864,1,5
844,1.80517,2.865,1,5
845,1.80803,2.868,1,5
846,1.81091,2.877,1,5
847,1.81379,2.88,1,5
848,1.81668,2.884,1,5
849,1.81957,2.89,1,5
850,1.82246,2.891,1,5
851,1.82536,2.9,1,5
852,1.82826,2.904,1,5
853,1.83408,2.914,1,5
854,1.837,2.918,1,5
855,1.83993,2.928,1,5
856,1.84286,2.927,1,5
857,1.84579,2.935,1,5
858,1.84873,2.941,1,5
859,1.85167,2.943,1,5
860,1.85463,2.951,1,5
861,1.85758,2.958,1,5
862,1.86054,2.959,1,5
863,1.86351,2.965,1,5
864,1.86648,2.971,1,5
865,1.86945,2.973,1,5
866,1.87243,2.981,1,5
867,1.87542,2.985,1,5
868,1.87841,2.989,1,5
869,1.8814,2.993,1,5
870,1.8844,2.999,1,5
871,1.88741,3.008,1,5
872,1.89042,3.009,1,5
873,1.89343,3.021,1,5
874,1.89645,3.023,1,5
875,1.89947,3.023,1,5
876,1.9025,3.031,1,5
877,1.90554,3.036,1,5
878,1.90858,3.039,1,5
879,1.91163,3.047,1,5
880,1.91468,3.052,1,5
881,1.91773,3.055,1,5
882,1.92079,3.062,1,5
883,1.92386,3.065,1,5
884,1.92693,3.071,1,5
885,1.93001,3.077,1,5
886,1.93309,3.079,1,5
887,1.93617,3.085,1,5
888,1.93926,3.089,1,5
889,1.94235,3.096,1,5
890,1.94545,3.098,1,5
891,1.94855,3.101,1,5
892,1.95166,3.11,1,5
893,1.95478,3.114,1,5
894,1.9579,3.118,1,5
895,1.96102,3.122,1,5
896,1.96414,3.124,1,5
897,1.96727,3.129,1,5
898,1.97041,3.134,1,5
899,1.97355,3.143,1,5
900,1.97669,3.145,1,5
901,1.97984,3.146,1,5
902,1.98299,3.153,1,5
903,1.98615,3.156,1,5
