cnt,pos,speed,Dir,Force,
1,3.12147,1.828,-1,3
2,3.12329,1.817,-1,3
3,3.12510,1.812,-1,3
4,3.12690,1.806,-1,3
5,3.12870,1.798,-1,3
6,3.13049,1.792,-1,3
7,3.13228,1.783,-1,3
8,3.13405,1.776,-1,3
9,3.13582,1.768,-1,3
10,3.13758,1.757,-1,3
11,3.13933,1.743,-1,3
12,3.14107,1.733,-1,3
13,3.14280,1.733,-1,3
14,3.14453,1.727,-1,3
15,3.14625,1.722,-1,3
16,3.14797,1.715,-1,3
17,3.14967,1.707,-1,3
18,3.15137,1.697,-1,3
19,3.15307,1.694,-1,3
20,3.15644,1.684,-1,3
21,3.15812,1.677,-1,3
22,3.15979,1.669,-1,3
23,3.16145,1.663,-1,3
24,3.16311,1.660,-1,3
25,3.16476,1.655,-1,3
26,3.16641,1.650,-1,3
27,3.16806,1.643,-1,3
28,3.16969,1.637,-1,3
29,3.17133,1.633,-1,3
30,3.17458,1.626,-1,3
31,3.17621,1.624,-1,3
32,3.17621,1.618,-1,3
33,3.17782,1.618,-1,3
34,3.17944,1.612,-1,3
35,3.18105,1.610,-1,3
36,3.18265,1.607,-1,3
37,3.18425,1.602,-1,3
38,3.18585,1.600,-1,3
39,3.18745,1.598,-1,3
40,3.18904,1.590,-1,3
41,3.19063,1.588,-1,3
42,3.19222,1.588,-1,3
43,3.19380,1.585,-1,3
44,3.19538,1.580,-1,3
45,3.19696,1.576,-1,3
46,3.19853,1.573,-1,3
47,3.20010,1.570,-1,3
48,3.20167,1.570,-1,3
49,3.20324,1.569,-1,3
50,3.20481,1.565,-1,3
51,3.20637,1.560,-1,3
52,3.20792,1.557,-1,3
53,3.20948,1.558,-1,3
54,3.21104,1.558,-1,3
55,3.21260,1.557,-1,3
56,3.21415,1.550,-1,3
57,3.21569,1.545,-1,3
58,3.21724,1.545,-1,3
59,3.21878,1.546,-1,3
60,3.22187,1.542,-1,3
61,3.22341,1.535,-1,3
62,3.22494,1.535,-1,3
63,3.22648,1.536,-1,3
64,3.22648,1.540,-1,3
65,3.22956,1.537,-1,3
66,3.23109,1.531,-1,3
67,3.23261,1.524,-1,3
68,3.23414,1.528,-1,3
69,3.23567,1.531,-1,3
70,3.23873,1.526,-1,3
71,3.23873,1.521,-1,3
72,3.24025,1.521,-1,3
73,3.24177,1.520,-1,3
74,3.24330,1.528,-1,3
75,3.24482,1.526,-1,3
76,3.24634,1.520,-1,3
77,3.24786,1.519,-1,3
78,3.24938,1.520,-1,3
79,3.25091,1.525,-1,3
80,3.25395,1.518,-1,3
81,3.25546,1.514,-1,3
82,3.25699,1.525,-1,3
83,3.25851,1.527,-1,3
84,3.26004,1.523,-1,3
85,3.26155,1.513,-1,3
86,3.26307,1.518,-1,3
87,3.26459,1.524,-1,3
88,3.26613,1.536,-1,3
89,3.26918,1.519,-1,3
90,3.27069,1.516,-1,3
91,3.27223,1.533,-1,3
92,3.27377,1.542,-1,3
93,3.27531,1.540,-1,3
94,3.27683,1.528,-1,3
95,3.27836,1.523,-1,3
96,3.27990,1.539,-1,3
97,3.28145,1.554,-1,3
98,3.28300,1.553,-1,3
99,3.28454,1.536,-1,3
100,3.28608,1.537,-1,3
101,3.28763,1.552,-1,3
102,3.28920,1.568,-1,3
103,3.29076,1.567,-1,3
104,3.29231,1.550,-1,3
105,3.29386,1.548,-1,3
106,3.29544,1.575,-1,3
107,3.29702,1.587,-1,3
108,3.29860,1.581,-1,3
109,3.30174,1.569,-1,3
110,3.30333,1.592,-1,3
111,3.30494,1.610,-1,3
112,3.30654,1.604,-1,3
113,3.30813,1.589,-1,3
114,3.30972,1.590,-1,3
115,3.31134,1.613,-1,3
116,3.31297,1.633,-1,3
117,3.31460,1.631,-1,3
118,3.31621,1.615,-1,3
119,3.31947,1.638,-1,3
120,3.31947,1.660,-1,3
121,3.32113,1.660,-1,3
122,3.32279,1.662,-1,3
123,3.32444,1.647,-1,3
124,3.32608,1.644,-1,3
125,3.32775,1.667,-1,3
126,3.32944,1.692,-1,3
127,3.33113,1.691,-1,3
128,3.33450,1.683,-1,3
129,3.33620,1.700,-1,3
130,3.33792,1.721,-1,3
131,3.33964,1.723,-1,3
132,3.34136,1.720,-1,3
133,3.34308,1.724,-1,3
134,3.34482,1.740,-1,3
135,3.34658,1.752,-1,3
136,3.34833,1.758,-1,3
137,3.35010,1.761,-1,3
138,3.35365,1.782,-1,3
139,3.35543,1.787,-1,3
140,3.35723,1.798,-1,3
141,3.35903,1.803,-1,3
142,3.36085,1.819,-1,3
143,3.36268,1.824,-1,3
144,3.36451,1.830,-1,3
145,3.36635,1.840,-1,3
146,3.36820,1.851,-1,3
147,3.37006,1.863,-1,3
148,3.37193,1.872,-1,3
149,3.37381,1.877,-1,3
150,3.37570,1.889,-1,3
151,3.37760,1.901,-1,3
152,3.37951,1.911,-1,3
153,3.38143,1.919,-1,3
154,3.38336,1.929,-1,3
155,3.38530,1.941,-1,3
156,3.38725,1.949,-1,3
157,3.39118,1.974,-1,3
158,3.39317,1.985,-1,3
159,3.39515,1.986,-1,3
160,3.39715,1.996,-1,3
161,3.39916,2.017,-1,3
162,3.40120,2.030,-1,3
163,3.40323,2.034,-1,3
164,3.40527,2.041,-1,3
165,3.40732,2.054,-1,3
166,3.40940,2.073,-1,3
167,3.41148,2.080,-1,3
168,3.41357,2.090,-1,3
169,3.41567,2.099,-1,3
170,3.41778,2.114,-1,3
171,3.41990,2.123,-1,3
172,3.42204,2.133,-1,3
173,3.42418,2.146,-1,3
174,3.42634,2.158,-1,3
175,3.42851,2.167,-1,3
176,3.43288,2.193,-1,3
177,3.43508,2.199,-1,3
178,3.43729,2.211,-1,3
179,3.43951,2.224,-1,3
180,3.44175,2.235,-1,3
181,3.44399,2.241,-1,3
182,3.44624,2.256,-1,3
183,3.44851,2.266,-1,3
184,3.45079,2.277,-1,3
185,3.45307,2.283,-1,3
186,3.45537,2.297,-1,3
187,3.46000,2.318,-1,3
188,3.46000,2.325,-1,3
189,3.46232,2.325,-1,3
190,3.46466,2.340,-1,3
191,3.46701,2.346,-1,3
192,3.46937,2.360,-1,3
193,3.47173,2.368,-1,3
194,3.47411,2.375,-1,3
195,3.47650,2.387,-1,3
196,3.47889,2.396,-1,3
197,3.48371,2.413,-1,3
198,3.48613,2.424,-1,3
199,3.48857,2.431,-1,3
200,3.49100,2.438,-1,3
201,3.49345,2.448,-1,3
202,3.49591,2.457,-1,3
203,3.49837,2.462,-1,3
204,3.50084,2.470,-1,3
205,3.50332,2.480,-1,3
206,3.50581,2.486,-1,3
207,3.50830,2.498,-1,3
208,3.51080,2.498,-1,3
209,3.51330,2.505,-1,3
210,3.51582,2.514,-1,3
211,3.51834,2.520,-1,3
212,3.52086,2.526,-1,3
213,3.52339,2.533,-1,3
214,3.52593,2.539,-1,3
215,3.52848,2.544,-1,3
216,3.53103,2.549,-1,3
217,3.53615,2.564,-1,3
218,3.53871,2.566,-1,3
219,3.54129,2.577,-1,3
220,3.54387,2.582,-1,3
221,3.54646,2.584,-1,3
222,3.54905,2.591,-1,3
223,3.55165,2.599,-1,3
224,3.55425,2.600,-1,3
225,3.55686,2.610,-1,3
226,3.56209,2.618,-1,3
227,3.56471,2.622,-1,3
228,3.56734,2.630,-1,3
229,3.56997,2.632,-1,3
230,3.57261,2.642,-1,3
231,3.57526,2.642,-1,3
232,3.57790,2.648,-1,3
233,3.58056,2.654,-1,3
234,3.58322,2.659,-1,3
235,3.58588,2.663,-1,3
236,3.58855,2.669,-1,3
237,3.59122,2.674,-1,3
238,3.59390,2.677,-1,3
239,3.59658,2.681,-1,3
240,3.59927,2.689,-1,3
241,3.60196,2.693,-1,3
242,3.60466,2.698,-1,3
243,3.60736,2.704,-1,3
244,3.61277,2.710,-1,3
245,3.61549,2.716,-1,3
246,3.61821,2.719,-1,3
247,3.62093,2.723,-1,3
248,3.62366,2.723,-1,3
249,3.62639,2.731,-1,3
250,3.62913,2.738,-1,3
251,3.63186,2.737,-1,3
252,3.63460,2.738,-1,3
253,3.63735,2.749,-1,3
254,3.64010,2.750,-1,3
255,3.64285,2.752,-1,3
256,3.64837,2.760,-1,3
257,3.65113,2.762,-1,3
258,3.65390,2.770,-1,3
259,3.65667,2.769,-1,3
260,3.65944,2.773,-1,3
261,3.66222,2.776,-1,3
262,3.66500,2.781,-1,3
263,3.66779,2.784,-1,3
264,3.67057,2.784,-1,3
265,3.67336,2.789,-1,3
266,3.67894,2.792,-1,3
267,3.67894,2.794,-1,3
268,3.68454,2.801,-1,3
269,3.68734,2.800,-1,3
270,3.68734,2.800,-1,3
271,3.69014,2.804,-1,3
272,3.69295,2.805,-1,3
273,3.69576,2.808,-1,3
274,3.69857,2.810,-1,3
275,3.70138,2.811,-1,3
276,3.70419,2.810,-1,3
277,3.70700,2.814,-1,3
278,3.70982,2.814,-1,3
279,3.71263,2.817,-1,3
280,3.71545,2.820,-1,3
281,3.71827,2.818,-1,3
282,3.72109,2.819,-1,3
283,3.72673,2.821,-1,3
284,3.72955,2.821,-1,3
285,3.73238,2.825,-1,3
286,3.73520,2.822,-1,3
287,3.73802,2.822,-1,3
288,3.74084,2.822,-1,3
289,3.74367,2.824,-1,3
290,3.74649,2.824,-1,3
291,3.74931,2.822,-1,3
292,3.75213,2.820,-1,3
293,3.75495,2.819,-1,3
294,3.75778,2.823,-1,3
295,3.76342,2.818,-1,3
296,3.76623,2.811,-1,3
297,3.76904,2.817,-1,3
298,3.77186,2.818,-1,3
299,3.77467,2.812,-1,3
300,3.77748,2.811,-1,3
301,3.78029,2.808,-1,3
302,3.78309,2.802,-1,3
303,3.78590,2.805,-1,3
304,3.78870,2.804,-1,3
305,3.79430,2.797,-1,3
306,3.79710,2.797,-1,3
307,3.79989,2.792,-1,3
308,3.80268,2.789,-1,3
309,3.80546,2.785,-1,3
310,3.80824,2.780,-1,3
311,3.81102,2.781,-1,3
312,3.81380,2.780,-1,3
313,3.81658,2.776,-1,3
314,3.81935,2.770,-1,3
315,3.82211,2.766,-1,3
316,3.82488,2.768,-1,3
317,3.82765,2.765,-1,3
318,3.83040,2.756,-1,3
319,3.83316,2.755,-1,3
320,3.83591,2.751,-1,3
321,3.83866,2.750,-1,3
322,3.84141,2.747,-1,3
323,3.84415,2.743,-1,3
324,3.84689,2.737,-1,3
325,3.84962,2.736,-1,3
326,3.85236,2.736,-1,3
327,3.85509,2.730,-1,3
328,3.85781,2.720,-1,3
329,3.86053,2.720,-1,3
330,3.86325,2.719,-1,3
331,3.86597,2.715,-1,3
332,3.86869,2.715,-1,3
333,3.87410,2.708,-1,3
334,3.87681,2.703,-1,3
335,3.87951,2.702,-1,3
336,3.88221,2.702,-1,3
337,3.88491,2.697,-1,3
338,3.88760,2.690,-1,3
339,3.89029,2.693,-1,3
340,3.89298,2.691,-1,3
341,3.89567,2.688,-1,3
342,3.89835,2.683,-1,3
343,3.90103,2.681,-1,3
344,3.90372,2.682,-1,3
345,3.90907,2.675,-1,3
346,3.91174,2.674,-1,3
347,3.91441,2.670,-1,3
348,3.91708,2.667,-1,3
349,3.91975,2.670,-1,3
350,3.92241,2.666,-1,3
351,3.92507,2.660,-1,3
352,3.92774,2.663,-1,3
353,3.93040,2.659,-1,3
354,3.93305,2.656,-1,3
355,3.93571,2.658,-1,3
356,3.93836,2.652,-1,3
357,3.94101,2.652,-1,3
358,3.94366,2.649,-1,3
359,3.94631,2.647,-1,3
360,3.94896,2.650,-1,3
361,3.95161,2.645,-1,3
362,3.95425,2.642,-1,3
363,3.95953,2.642,-1,3
364,3.96217,2.638,-1,3
365,3.96481,2.639,-1,3
366,3.96745,2.639,-1,3
367,3.97008,2.635,-1,3
368,3.97272,2.635,-1,3
369,3.97535,2.634,-1,3
370,3.97799,2.633,-1,3
371,3.98062,2.633,-1,3
372,3.98588,2.628,-1,3
373,3.98851,2.629,-1,3
374,3.99114,2.627,-1,3
375,3.99376,2.626,-1,3
376,3.99639,2.626,-1,3
377,3.99902,2.628,-1,3
378,4.00164,2.624,-1,3
379,4.00426,2.624,-1,3
380,4.00689,2.623,-1,3
381,4.00951,2.621,-1,3
382,4.01213,2.622,-1,3
383,4.01476,2.625,-1,3
384,4.01738,2.620,-1,3
385,4.01999,2.619,-1,3
386,4.02262,2.622,-1,3
387,4.02524,2.622,-1,3
388,4.02786,2.622,-1,3
389,4.03048,2.623,-1,3
390,4.03310,2.622,-1,3
391,4.03835,2.622,-1,3
392,4.04097,2.625,-1,3
393,4.04360,2.627,-1,3
394,4.04623,2.626,-1,3
395,4.04885,2.626,-1,3
396,4.05148,2.629,-1,3
397,4.05411,2.632,-1,3
398,4.05674,2.630,-1,3
399,4.05938,2.635,-1,3
400,4.06201,2.634,-1,3
401,4.06465,2.638,-1,3
402,4.06728,2.634,-1,3
403,4.06993,2.642,-1,3
404,4.07257,2.643,-1,3
405,4.07521,2.644,-1,3
406,4.07786,2.648,-1,3
407,4.08051,2.647,-1,3
408,4.08316,2.654,-1,3
409,4.08581,2.654,-1,3
410,4.08847,2.656,-1,3
411,4.09113,2.658,-1,3
412,4.09379,2.661,-1,3
413,4.09646,2.664,-1,3
414,4.09913,2.671,-1,3
415,4.10447,2.673,-1,3
416,4.10715,2.679,-1,3
417,4.10715,2.679,-1,3
418,4.10983,2.682,-1,3
419,4.11251,2.683,-1,3
420,4.11520,2.689,-1,3
421,4.11789,2.689,-1,3
422,4.12058,2.692,-1,3
423,4.12328,2.700,-1,3
424,4.12868,2.699,-1,3
425,4.13138,2.702,-1,3
426,4.13408,2.705,-1,3
427,4.13679,2.710,-1,3
428,4.13951,2.715,-1,3
429,4.14222,2.711,-1,3
430,4.14494,2.715,-1,3
431,4.14766,2.719,-1,3
432,4.15037,2.720,-1,3
433,4.15310,2.724,-1,3
434,4.15583,2.729,-1,3
435,4.15856,2.729,-1,3
436,4.16128,2.727,-1,3
437,4.16402,2.734,-1,3
438,4.16676,2.738,-1,3
439,4.16949,2.739,-1,3
440,4.17224,2.742,-1,3
441,4.17498,2.744,-1,3
442,4.17773,2.747,-1,3
443,4.18048,2.757,-1,3
444,4.18600,2.761,-1,3
445,4.18876,2.760,-1,3
446,4.19152,2.764,-1,3
447,4.19429,2.771,-1,3
448,4.19707,2.776,-1,3
449,4.19985,2.778,-1,3
450,4.20263,2.783,-1,3
451,4.20541,2.784,-1,3
452,4.20820,2.787,-1,3
453,4.21100,2.797,-1,3
454,4.21380,2.800,-1,3
455,4.21660,2.802,-1,3
456,4.21941,2.805,-1,3
457,4.22222,2.812,-1,3
458,4.22504,2.817,-1,3
459,4.22786,2.824,-1,3
460,4.23069,2.827,-1,3
461,4.23352,2.834,-1,3
462,4.23636,2.836,-1,3
463,4.23920,2.845,-1,3
464,4.24205,2.850,-1,3
465,4.24491,2.856,-1,3
466,4.25064,2.867,-1,3
467,4.25351,2.875,-1,3
468,4.25639,2.881,-1,3
469,4.25639,2.881,-1,3
470,4.26217,2.892,-1,3
471,4.26507,2.901,-1,3
472,4.26798,2.906,-1,3
473,4.27089,2.911,-1,3
474,4.27381,2.915,-1,3
475,4.27673,2.926,-1,3
476,4.27966,2.932,-1,3
477,4.28260,2.938,-1,3
478,4.28554,2.941,-1,3
479,4.28849,2.948,-1,3
480,4.29145,2.953,-1,3
481,4.29441,2.963,-1,3
482,4.29738,2.968,-1,3
483,4.30035,2.970,-1,3
484,4.30332,2.978,-1,3
485,4.30631,2.988,-1,3
486,4.31230,2.998,-1,3
487,4.31531,3.005,-1,3
488,4.31832,3.009,-1,3
489,4.32133,3.016,-1,3
490,4.32436,3.022,-1,3
491,4.32739,3.032,-1,3
492,4.33042,3.034,-1,3
493,4.33346,3.042,-1,3
494,4.33651,3.049,-1,3
495,4.34263,3.063,-1,3
496,4.34263,3.066,-1,3
497,4.34570,3.066,-1,3
498,4.34876,3.069,-1,3
499,4.35184,3.079,-1,3
500,4.35493,3.083,-1,3
501,4.35802,3.089,-1,3
502,4.36111,3.099,-1,3
503,4.36421,3.100,-1,3
504,4.36732,3.107,-1,3
505,4.37043,3.124,-1,3
506,4.37356,3.124,-1,3
507,4.37668,3.125,-1,3
508,4.37981,3.128,-1,3
509,4.38295,3.136,-1,3
510,4.38609,3.142,-1,3
511,4.38924,3.149,-1,3
512,4.39240,3.159,-1,3
513,4.39555,3.158,-1,3
514,4.40189,3.169,-1,3
515,4.40507,3.179,-1,3
516,4.40825,3.186,-1,3
517,4.41144,3.191,-1,3
518,4.41464,3.192,-1,3
519,4.41784,3.200,-1,3
520,4.42105,3.209,-1,3
521,4.42426,3.214,-1,3
522,4.42748,3.218,-1,3
523,4.43070,3.222,-1,3
524,4.43393,3.228,-1,3
525,4.43717,3.244,-1,3
526,4.44365,3.241,-1,3
527,4.44365,3.251,-1,3
528,4.44690,3.251,-1,3
529,4.45016,3.257,-1,3
530,4.45342,3.264,-1,3
531,4.45669,3.269,-1,3
532,4.45996,3.270,-1,3
533,4.46324,3.273,-1,3
534,4.46652,3.282,-1,3
535,4.46981,3.291,-1,3
536,4.47310,3.288,-1,3
537,4.47639,3.294,-1,3
538,4.47969,3.298,-1,3
539,4.48299,3.303,-1,3
540,4.48630,3.309,-1,3
541,4.48961,3.309,-1,3
542,4.49292,3.310,-1,3
543,4.49955,3.316,-1,3
544,4.50287,3.321,-1,3
545,4.50619,3.320,-1,3
546,4.50951,3.320,-1,3
547,4.51283,3.324,-1,3
548,4.51616,3.328,-1,3
549,4.51949,3.327,-1,3
550,4.52282,3.328,-1,3
551,4.52615,3.328,-1,3
552,4.52948,3.328,-1,3
553,4.53281,3.333,-1,3
554,4.53614,3.333,-1,3
555,4.53947,3.334,-1,3
556,4.54281,3.332,-1,3
557,4.54614,3.333,-1,3
558,4.54947,3.334,-1,3
559,4.55281,3.334,-1,3
560,4.55614,3.330,-1,3
561,4.55946,3.327,-1,3
562,4.56279,3.329,-1,3
563,4.56612,3.330,-1,3
564,4.56945,3.322,-1,3
565,4.57609,3.319,-1,3
566,4.57941,3.318,-1,3
567,4.58273,3.319,-1,3
568,4.58604,3.315,-1,3
569,4.58936,3.314,-1,3
570,4.59267,3.310,-1,3
571,4.59598,3.308,-1,3
572,4.59928,3.305,-1,3
573,4.60259,3.305,-1,3
574,4.60589,3.301,-1,3
575,4.60919,3.298,-1,3
576,4.61248,3.293,-1,3
577,4.61577,3.291,-1,3
578,4.61906,3.289,-1,3
579,4.62234,3.282,-1,3
580,4.62562,3.282,-1,3
581,4.62890,3.277,-1,3
582,4.63217,3.272,-1,3
583,4.63544,3.268,-1,3
584,4.63870,3.265,-1,3
585,4.64196,3.259,-1,3
586,4.64847,3.251,-1,3
587,4.65172,3.248,-1,3
588,4.65496,3.239,-1,3
589,4.65819,3.234,-1,3
590,4.66142,3.231,-1,3
591,4.66465,3.228,-1,3
592,4.66787,3.220,-1,3
593,4.67108,3.212,-1,3
594,4.67429,3.210,-1,3
595,4.67750,3.205,-1,3
596,4.68389,3.191,-1,3
597,4.68708,3.187,-1,3
598,4.69026,3.182,-1,3
599,4.69344,3.178,-1,3
600,4.69661,3.169,-1,3
601,4.69977,3.165,-1,3
602,4.70293,3.157,-1,3
603,4.70608,3.156,-1,3
604,4.70923,3.144,-1,3
605,4.71550,3.133,-1,3
606,4.71550,3.126,-1,3
607,4.72176,3.126,-1,3
608,4.72487,3.114,-1,3
609,4.72798,3.109,-1,3
610,4.73108,3.102,-1,3
611,4.73418,3.098,-1,3
612,4.73727,3.091,-1,3
613,4.74035,3.085,-1,3
614,4.74343,3.077,-1,3
615,4.74650,3.069,-1,3
616,4.74956,3.066,-1,3
617,4.75263,3.061,-1,3
618,4.75568,3.051,-1,3
619,4.75872,3.046,-1,3
620,4.76176,3.038,-1,3
621,4.76479,3.031,-1,3
622,4.76782,3.026,-1,3
623,4.77084,3.017,-1,3
624,4.77385,3.010,-1,3
625,4.77685,3.008,-1,3
626,4.77985,2.997,-1,3
627,4.78284,2.990,-1,3
628,4.78582,2.985,-1,3
629,4.78880,2.975,-1,3
630,4.79177,2.968,-1,3
631,4.79473,2.963,-1,3
632,4.79769,2.955,-1,3
633,4.80063,2.946,-1,3
634,4.80651,2.933,-1,3
635,4.80944,2.925,-1,3
636,4.80944,2.918,-1,3
637,4.81235,2.914,-1,3
638,4.81818,2.909,-1,3
639,4.82107,2.897,-1,3
640,4.82397,2.894,-1,3
641,4.82685,2.884,-1,3
642,4.82973,2.879,-1,3
643,4.83260,2.871,-1,3
644,4.83547,2.865,-1,3
645,4.83832,2.856,-1,3
646,4.84117,2.848,-1,3
647,4.84401,2.840,-1,3
648,4.84685,2.837,-1,3
649,4.84968,2.829,-1,3
650,4.85250,2.821,-1,3
651,4.85531,2.811,-1,3
652,4.85811,2.804,-1,3
653,4.86091,2.798,-1,3
654,4.86370,2.793,-1,3
655,4.86649,2.775,-1,3
656,4.87203,2.769,-1,3
657,4.87203,2.761,-1,3
658,4.87479,2.753,-1,3
659,4.87754,2.753,-1,3
660,4.88029,2.746,-1,3
661,4.88303,2.739,-1,3
662,4.88848,2.723,-1,3
663,4.89120,2.714,-1,3
664,4.89391,2.711,-1,3
665,4.89661,2.702,-1,3
666,4.89930,2.694,-1,3
667,4.90199,2.687,-1,3
668,4.90467,2.678,-1,3
669,4.90734,2.671,-1,3
670,4.91000,2.664,-1,3
671,4.91266,2.656,-1,3
672,4.91531,2.646,-1,3
673,4.91795,2.643,-1,3
674,4.92058,2.633,-1,3
675,4.92582,2.619,-1,3
676,4.92582,2.612,-1,3
677,4.93104,2.603,-1,3
678,4.93104,2.598,-1,3
679,4.93622,2.587,-1,3
680,4.93880,2.581,-1,3
681,4.93880,2.573,-1,3
682,4.94394,2.567,-1,3
683,4.94650,2.562,-1,3
684,4.94906,2.556,-1,3
685,4.95160,2.543,-1,3
686,4.95414,2.536,-1,3
687,4.95668,2.537,-1,3
688,4.95921,2.529,-1,3
689,4.96172,2.518,-1,3
690,4.96424,2.515,-1,3
691,4.96675,2.508,-1,3
692,4.96924,2.500,-1,3
693,4.97174,2.495,-1,3
694,4.97423,2.491,-1,3
695,4.97671,2.481,-1,3
696,4.97919,2.476,-1,3
697,4.98166,2.473,-1,3
698,4.98413,2.465,-1,3
699,4.98659,2.462,-1,3
700,4.98904,2.453,-1,3
701,4.99149,2.446,-1,3
702,4.99393,2.442,-1,3
703,4.99880,2.430,-1,3
704,5.00122,2.427,-1,3
705,5.00365,2.421,-1,3
706,5.00606,2.413,-1,3
707,5.00847,2.410,-1,3
708,5.01087,2.404,-1,3
709,5.01327,2.397,-1,3
710,5.01566,2.393,-1,3
711,5.01805,2.389,-1,3
712,5.02043,2.382,-1,3
713,5.02281,2.379,-1,3
714,5.02518,2.372,-1,3
715,5.02755,2.368,-1,3
716,5.02992,2.364,-1,3
717,5.03228,2.359,-1,3
718,5.03463,2.356,-1,3
719,5.03697,2.343,-1,3
720,5.03932,2.345,-1,3
721,5.04166,2.342,-1,3
722,5.04400,2.338,-1,3
723,5.04633,2.328,-1,3
724,5.04866,2.331,-1,3
725,5.05099,2.328,-1,3
726,5.05331,2.321,-1,3
727,5.05563,2.318,-1,3
728,5.05794,2.318,-1,3
729,5.06026,2.315,-1,3
730,5.06257,2.312,-1,3
731,5.06488,2.307,-1,3
732,5.06719,2.311,-1,3
733,5.06949,2.305,-1,3
734,5.07180,2.306,-1,3
735,5.07411,2.307,-1,3
736,5.07641,2.303,-1,3
737,5.07871,2.304,-1,3
738,5.08102,2.308,-1,3
739,5.08332,2.303,-1,3
740,5.08563,2.304,-1,3
741,5.08794,2.311,-1,3
742,5.09256,2.309,-1,3
743,5.09487,2.312,-1,3
744,5.09719,2.318,-1,3
745,5.09951,2.323,-1,3
746,5.10183,2.321,-1,3
747,5.10416,2.326,-1,3
748,5.10649,2.332,-1,3
749,5.10882,2.333,-1,3
750,5.11116,2.338,-1,3
751,5.11351,2.345,-1,3
752,5.11586,2.349,-1,3
753,5.11821,2.349,-1,3
754,5.12056,2.356,-1,3
755,5.12292,2.362,-1,3
756,5.12529,2.368,-1,3
757,5.12767,2.377,-1,3
758,5.13004,2.375,-1,3
759,5.13243,2.383,-1,3
760,5.13482,2.388,-1,3
761,5.13721,2.397,-1,3
762,5.13961,2.402,-1,3
763,5.14202,2.406,-1,3
764,5.14443,2.412,-1,3
765,5.14685,2.419,-1,3
766,5.14927,2.423,-1,3
767,5.15170,2.431,-1,3
768,5.15414,2.438,-1,3
769,5.15658,2.441,-1,3
770,5.15903,2.447,-1,3
771,5.16148,2.456,-1,3
772,5.16394,2.460,-1,3
773,5.16641,2.467,-1,3
774,5.16888,2.477,-1,3
775,5.17385,2.484,-1,3
776,5.17634,2.491,-1,3
777,5.17883,2.493,-1,3
778,5.18133,2.502,-1,3
779,5.18384,2.510,-1,3
780,5.18635,2.512,-1,3
781,5.18887,2.518,-1,3
782,5.19140,2.528,-1,3
783,5.19393,2.532,-1,3
784,5.19647,2.535,-1,3
785,5.19901,2.545,-1,3
786,5.20156,2.551,-1,3
787,5.20412,2.557,-1,3
788,5.20668,2.564,-1,3
789,5.20925,2.567,-1,3
790,5.21182,2.575,-1,3
791,5.21441,2.584,-1,3
792,5.21700,2.588,-1,3
793,5.21959,2.596,-1,3
794,5.22220,2.603,-1,3
795,5.22480,2.608,-1,3
796,5.22742,2.615,-1,3
797,5.23004,2.624,-1,3
798,5.23267,2.631,-1,3
799,5.23531,2.635,-1,3
800,5.23795,2.646,-1,3
801,5.24061,2.655,-1,3
802,5.24327,2.659,-1,3
803,5.24594,2.668,-1,3
804,5.24861,2.675,-1,3
805,5.25398,2.690,-1,3
806,5.25668,2.701,-1,3
807,5.25939,2.705,-1,3
808,5.26210,2.713,-1,3
809,5.26482,2.720,-1,3
810,5.26755,2.728,-1,3
811,5.27029,2.738,-1,3
812,5.27303,2.744,-1,3
813,5.27578,2.751,-1,3
814,5.27854,2.760,-1,3
815,5.28131,2.767,-1,3
816,5.28409,2.776,-1,3
817,5.28966,2.790,-1,3
818,5.29246,2.798,-1,3
819,5.29527,2.807,-1,3
820,5.29808,2.817,-1,3
821,5.30091,2.822,-1,3
822,5.30374,2.833,-1,3
823,5.30658,2.839,-1,3
824,5.30943,2.849,-1,3
825,5.31228,2.855,-1,3
826,5.31515,2.866,-1,3
827,5.31802,2.872,-1,3
828,5.32090,2.880,-1,3
829,5.32379,2.889,-1,3
830,5.32668,2.897,-1,3
831,5.32959,2.904,-1,3
832,5.33250,2.915,-1,3
833,5.33542,2.922,-1,3
834,5.33835,2.926,-1,3
835,5.34129,2.947,-1,3
836,5.34423,2.952,-1,3
837,5.34719,2.962,-1,3
838,5.35015,2.962,-1,3
839,5.35312,2.970,-1,3
840,5.35610,2.978,-1,3
841,5.35908,2.986,-1,3
842,5.36208,2.993,-1,3
843,5.36508,3.002,-1,3
844,5.36809,3.018,-1,3
845,5.37413,3.024,-1,3
846,5.37716,3.029,-1,3
847,5.38020,3.043,-1,3
848,5.38325,3.049,-1,3
849,5.38630,3.055,-1,3
850,5.38937,3.062,-1,3
851,5.39244,3.070,-1,3
852,5.39551,3.077,-1,3
853,5.39860,3.086,-1,3
854,5.40169,3.090,-1,3
855,5.40478,3.093,-1,3
856,5.40788,3.103,-1,3
857,5.41100,3.111,-1,3
858,5.41411,3.116,-1,3
859,5.41723,3.123,-1,3
860,5.42036,3.127,-1,3
861,5.42349,3.132,-1,3
862,5.42663,3.140,-1,3
863,5.42978,3.147,-1,3
864,5.43293,3.148,-1,3
865,5.43609,3.158,-1,3
866,5.43925,3.161,-1,3
867,5.44241,3.166,-1,3
868,5.44559,3.174,-1,3
869,5.44876,3.177,-1,3
870,5.45195,3.181,-1,3
871,5.45513,3.188,-1,3
872,5.45833,3.193,-1,3
873,5.46152,3.197,-1,3
