cnt,pos,speed,Dir,Force,
1,3.20872,1.217,-1,4
2,3.20994,1.224,-1,4
3,3.21117,1.230,-1,4
4,3.21240,1.227,-1,4
5,3.21364,1.235,-1,4
6,3.21488,1.243,-1,4
7,3.21613,1.251,-1,4
8,3.21739,1.256,-1,4
9,3.21865,1.267,-1,4
10,3.21992,1.270,-1,4
11,3.22120,1.274,-1,4
12,3.22248,1.279,-1,4
13,3.22377,1.289,-1,4
14,3.22507,1.301,-1,4
15,3.22638,1.310,-1,4
16,3.22769,1.313,-1,4
17,3.22901,1.322,-1,4
18,3.23034,1.327,-1,4
19,3.23167,1.334,-1,4
20,3.23302,1.348,-1,4
21,3.23438,1.361,-1,4
22,3.23575,1.366,-1,4
23,3.23711,1.368,-1,4
24,3.23849,1.376,-1,4
25,3.23988,1.387,-1,4
26,3.24128,1.401,-1,4
27,3.24269,1.413,-1,4
28,3.24411,1.418,-1,4
29,3.24552,1.414,-1,4
30,3.24695,1.428,-1,4
31,3.24840,1.447,-1,4
32,3.24986,1.459,-1,4
33,3.25132,1.458,-1,4
34,3.25278,1.460,-1,4
35,3.25424,1.467,-1,4
36,3.25573,1.485,-1,4
37,3.25723,1.504,-1,4
38,3.25874,1.506,-1,4
39,3.26024,1.498,-1,4
40,3.26174,1.504,-1,4
41,3.26326,1.542,-1,4
42,3.26481,1.542,-1,4
43,3.26636,1.551,-1,4
44,3.26790,1.542,-1,4
45,3.26944,1.538,-1,4
46,3.27099,1.555,-1,4
47,3.27258,1.582,-1,4
48,3.27416,1.589,-1,4
49,3.27574,1.580,-1,4
50,3.27732,1.574,-1,4
51,3.27891,1.613,-1,4
52,3.28215,1.626,-1,4
53,3.28215,1.612,-1,4
54,3.28536,1.607,-1,4
55,3.28536,1.619,-1,4
56,3.28698,1.619,-1,4
57,3.28863,1.655,-1,4
58,3.29028,1.642,-1,4
59,3.29192,1.633,-1,4
60,3.29521,1.651,-1,4
61,3.29688,1.675,-1,4
62,3.29856,1.678,-1,4
63,3.30023,1.666,-1,4
64,3.30189,1.658,-1,4
65,3.30356,1.679,-1,4
66,3.30527,1.704,-1,4
67,3.30697,1.703,-1,4
68,3.30866,1.685,-1,4
69,3.31034,1.680,-1,4
70,3.31204,1.699,-1,4
71,3.31376,1.724,-1,4
72,3.31548,1.724,-1,4
73,3.31719,1.704,-1,4
74,3.31889,1.700,-1,4
75,3.32061,1.720,-1,4
76,3.32235,1.742,-1,4
77,3.32409,1.742,-1,4
78,3.32581,1.722,-1,4
79,3.32753,1.721,-1,4
80,3.32927,1.742,-1,4
81,3.33103,1.757,-1,4
82,3.33279,1.755,-1,4
83,3.33453,1.745,-1,4
84,3.33628,1.744,-1,4
85,3.33803,1.755,-1,4
86,3.33980,1.767,-1,4
87,3.34157,1.768,-1,4
88,3.34333,1.768,-1,4
89,3.34510,1.764,-1,4
90,3.34686,1.766,-1,4
91,3.34864,1.776,-1,4
92,3.35042,1.783,-1,4
93,3.35221,1.790,-1,4
94,3.35400,1.783,-1,4
95,3.35577,1.776,-1,4
96,3.35756,1.783,-1,4
97,3.35935,1.797,-1,4
98,3.36116,1.807,-1,4
99,3.36474,1.786,-1,4
100,3.36654,1.792,-1,4
101,3.36834,1.807,-1,4
102,3.37016,1.818,-1,4
103,3.37197,1.812,-1,4
104,3.37377,1.799,-1,4
105,3.37557,1.801,-1,4
106,3.37739,1.815,-1,4
107,3.37921,1.823,-1,4
108,3.38103,1.813,-1,4
109,3.38285,1.813,-1,4
110,3.38466,1.812,-1,4
111,3.38648,1.819,-1,4
112,3.38831,1.828,-1,4
113,3.39014,1.837,-1,4
114,3.39197,1.829,-1,4
115,3.39379,1.821,-1,4
116,3.39561,1.821,-1,4
117,3.39745,1.833,-1,4
118,3.39930,1.849,-1,4
119,3.40114,1.844,-1,4
120,3.40297,1.828,-1,4
121,3.40479,1.826,-1,4
122,3.40663,1.840,-1,4
123,3.40849,1.858,-1,4
124,3.41035,1.857,-1,4
125,3.41219,1.842,-1,4
126,3.41402,1.834,-1,4
127,3.41587,1.847,-1,4
128,3.41774,1.865,-1,4
129,3.41960,1.862,-1,4
130,3.42145,1.851,-1,4
131,3.42330,1.847,-1,4
132,3.42515,1.852,-1,4
133,3.42701,1.865,-1,4
134,3.42888,1.870,-1,4
135,3.43075,1.867,-1,4
136,3.43261,1.858,-1,4
137,3.43446,1.853,-1,4
138,3.43633,1.866,-1,4
139,3.43821,1.879,-1,4
140,3.44009,1.878,-1,4
141,3.44195,1.866,-1,4
142,3.44381,1.857,-1,4
143,3.44568,1.869,-1,4
144,3.44756,1.884,-1,4
145,3.44945,1.884,-1,4
146,3.45132,1.873,-1,4
147,3.45318,1.865,-1,4
148,3.45506,1.876,-1,4
149,3.45695,1.887,-1,4
150,3.45883,1.885,-1,4
151,3.46072,1.883,-1,4
152,3.46259,1.878,-1,4
153,3.46448,1.882,-1,4
154,3.46636,1.885,-1,4
155,3.46825,1.892,-1,4
156,3.47014,1.893,-1,4
157,3.47203,1.888,-1,4
158,3.47392,1.885,-1,4
159,3.47581,1.890,-1,4
160,3.47771,1.899,-1,4
161,3.47961,1.893,-1,4
162,3.48150,1.890,-1,4
163,3.48529,1.900,-1,4
164,3.48720,1.906,-1,4
165,3.48910,1.904,-1,4
166,3.49100,1.897,-1,4
167,3.49290,1.904,-1,4
168,3.49481,1.911,-1,4
169,3.49672,1.909,-1,4
170,3.49863,1.906,-1,4
171,3.50053,1.906,-1,4
172,3.50245,1.915,-1,4
173,3.50436,1.916,-1,4
174,3.50627,1.912,-1,4
175,3.50819,1.914,-1,4
176,3.51010,1.915,-1,4
177,3.51202,1.921,-1,4
178,3.51394,1.921,-1,4
179,3.51586,1.918,-1,4
180,3.51778,1.921,-1,4
181,3.51971,1.922,-1,4
182,3.52163,1.928,-1,4
183,3.52356,1.929,-1,4
184,3.52549,1.926,-1,4
185,3.52934,1.926,-1,4
186,3.52934,1.926,-1,4
187,3.53322,1.939,-1,4
188,3.53515,1.935,-1,4
189,3.53708,1.929,-1,4
190,3.53902,1.937,-1,4
191,3.54097,1.950,-1,4
192,3.54292,1.947,-1,4
193,3.54485,1.937,-1,4
194,3.54679,1.939,-1,4
195,3.54875,1.952,-1,4
196,3.55071,1.960,-1,4
197,3.55265,1.949,-1,4
198,3.55460,1.945,-1,4
199,3.55655,1.952,-1,4
200,3.55852,1.964,-1,4
201,3.56048,1.954,-1,4
202,3.56439,1.956,-1,4
203,3.56635,1.962,-1,4
204,3.56832,1.970,-1,4
205,3.57029,1.970,-1,4
206,3.57226,1.966,-1,4
207,3.57423,1.968,-1,4
208,3.57620,1.971,-1,4
209,3.57818,1.978,-1,4
210,3.58015,1.979,-1,4
211,3.58213,1.976,-1,4
212,3.58411,1.975,-1,4
213,3.58608,1.978,-1,4
214,3.58808,1.992,-1,4
215,3.59007,1.990,-1,4
216,3.59205,1.981,-1,4
217,3.59402,1.978,-1,4
218,3.59602,1.994,-1,4
219,3.59802,2.003,-1,4
220,3.60200,1.986,-1,4
221,3.60399,1.995,-1,4
222,3.60600,2.007,-1,4
223,3.60801,2.005,-1,4
224,3.61000,1.998,-1,4
225,3.61200,2.001,-1,4
226,3.61401,2.008,-1,4
227,3.61603,2.013,-1,4
228,3.61804,2.011,-1,4
229,3.62005,2.012,-1,4
230,3.62206,2.013,-1,4
231,3.62407,2.012,-1,4
232,3.62610,2.024,-1,4
233,3.62812,2.026,-1,4
234,3.63014,2.020,-1,4
235,3.63216,2.016,-1,4
236,3.63419,2.029,-1,4
237,3.63623,2.040,-1,4
238,3.63826,2.036,-1,4
239,3.64029,2.027,-1,4
240,3.64232,2.029,-1,4
241,3.64437,2.049,-1,4
242,3.64642,2.051,-1,4
243,3.64847,2.043,-1,4
244,3.65050,2.039,-1,4
245,3.65256,2.052,-1,4
246,3.65462,2.066,-1,4
247,3.65668,2.060,-1,4
248,3.65874,2.056,-1,4
249,3.66080,2.059,-1,4
250,3.66287,2.073,-1,4
251,3.66495,2.077,-1,4
252,3.66702,2.078,-1,4
253,3.66910,2.072,-1,4
254,3.67118,2.080,-1,4
255,3.67327,2.094,-1,4
256,3.67537,2.099,-1,4
257,3.67746,2.092,-1,4
258,3.67955,2.090,-1,4
259,3.68166,2.106,-1,4
260,3.68377,2.117,-1,4
261,3.68589,2.115,-1,4
262,3.68800,2.110,-1,4
263,3.69012,2.116,-1,4
264,3.69225,2.134,-1,4
265,3.69439,2.136,-1,4
266,3.69652,2.135,-1,4
267,3.69866,2.135,-1,4
268,3.70080,2.147,-1,4
269,3.70296,2.154,-1,4
270,3.70511,2.158,-1,4
271,3.70727,2.158,-1,4
272,3.70943,2.161,-1,4
273,3.71160,2.170,-1,4
274,3.71378,2.180,-1,4
275,3.71597,2.184,-1,4
276,3.71815,2.183,-1,4
277,3.72034,2.190,-1,4
278,3.72254,2.196,-1,4
279,3.72474,2.204,-1,4
280,3.72695,2.206,-1,4
281,3.72916,2.213,-1,4
282,3.73137,2.216,-1,4
283,3.73360,2.221,-1,4
284,3.73582,2.225,-1,4
285,3.73806,2.235,-1,4
286,3.74029,2.239,-1,4
287,3.74253,2.239,-1,4
288,3.74478,2.244,-1,4
289,3.74703,2.253,-1,4
290,3.74929,2.259,-1,4
291,3.75155,2.260,-1,4
292,3.75381,2.264,-1,4
293,3.75608,2.265,-1,4
294,3.75836,2.278,-1,4
295,3.76064,2.281,-1,4
296,3.76292,2.280,-1,4
297,3.76520,2.278,-1,4
298,3.76749,2.292,-1,4
299,3.76979,2.297,-1,4
300,3.77208,2.296,-1,4
301,3.77438,2.296,-1,4
302,3.77668,2.305,-1,4
303,3.77899,2.308,-1,4
304,3.78130,2.312,-1,4
305,3.78361,2.311,-1,4
306,3.78593,2.324,-1,4
307,3.78826,2.324,-1,4
308,3.79058,2.321,-1,4
309,3.79291,2.329,-1,4
310,3.79524,2.334,-1,4
311,3.79758,2.337,-1,4
312,3.80226,2.343,-1,4
313,3.80461,2.348,-1,4
314,3.80696,2.349,-1,4
315,3.80931,2.354,-1,4
316,3.81167,2.357,-1,4
317,3.81403,2.361,-1,4
318,3.81639,2.367,-1,4
319,3.81876,2.367,-1,4
320,3.82113,2.369,-1,4
321,3.82351,2.375,-1,4
322,3.82589,2.384,-1,4
323,3.82827,2.382,-1,4
324,3.83065,2.379,-1,4
325,3.83304,2.392,-1,4
326,3.83544,2.395,-1,4
327,3.83783,2.395,-1,4
328,3.84023,2.398,-1,4
329,3.84264,2.405,-1,4
330,3.84504,2.402,-1,4
331,3.84745,2.408,-1,4
332,3.84986,2.412,-1,4
333,3.85227,2.414,-1,4
334,3.85469,2.415,-1,4
335,3.85711,2.422,-1,4
336,3.85953,2.421,-1,4
337,3.86195,2.423,-1,4
338,3.86438,2.428,-1,4
339,3.86681,2.429,-1,4
340,3.86924,2.430,-1,4
341,3.87168,2.436,-1,4
342,3.87412,2.440,-1,4
343,3.87655,2.435,-1,4
344,3.87899,2.439,-1,4
345,3.88143,2.444,-1,4
346,3.88388,2.446,-1,4
347,3.88633,2.446,-1,4
348,3.88878,2.450,-1,4
349,3.89123,2.450,-1,4
350,3.89368,2.453,-1,4
351,3.89613,2.453,-1,4
352,3.89858,2.453,-1,4
353,3.90104,2.456,-1,4
354,3.90350,2.462,-1,4
355,3.90596,2.458,-1,4
356,3.90842,2.460,-1,4
357,3.91088,2.463,-1,4
358,3.91335,2.462,-1,4
359,3.91581,2.460,-1,4
360,3.91827,2.465,-1,4
361,3.92074,2.465,-1,4
362,3.92320,2.461,-1,4
363,3.92566,2.461,-1,4
364,3.92813,2.467,-1,4
365,3.93059,2.465,-1,4
366,3.93305,2.461,-1,4
367,3.93552,2.464,-1,4
368,3.93798,2.464,-1,4
369,3.94044,2.464,-1,4
370,3.94291,2.460,-1,4
371,3.94537,2.460,-1,4
372,3.94783,2.462,-1,4
373,3.95029,2.462,-1,4
374,3.95275,2.458,-1,4
375,3.95521,2.457,-1,4
376,3.95766,2.459,-1,4
377,3.96012,2.456,-1,4
378,3.96257,2.454,-1,4
379,3.96748,2.457,-1,4
380,3.96993,2.450,-1,4
381,3.97238,2.446,-1,4
382,3.97483,2.448,-1,4
383,3.97727,2.445,-1,4
384,3.97972,2.443,-1,4
385,3.98216,2.440,-1,4
386,3.98460,2.440,-1,4
387,3.98703,2.433,-1,4
388,3.98946,2.431,-1,4
389,3.99189,2.427,-1,4
390,3.99432,2.429,-1,4
391,3.99674,2.427,-1,4
392,3.99916,2.420,-1,4
393,4.00158,2.415,-1,4
394,4.00399,2.416,-1,4
395,4.00641,2.413,-1,4
396,4.00881,2.405,-1,4
397,4.01121,2.400,-1,4
398,4.01362,2.403,-1,4
399,4.01601,2.395,-1,4
400,4.01840,2.386,-1,4
401,4.02078,2.387,-1,4
402,4.02317,2.383,-1,4
403,4.02555,2.379,-1,4
404,4.02792,2.373,-1,4
405,4.03028,2.366,-1,4
406,4.03265,2.363,-1,4
407,4.03500,2.356,-1,4
408,4.03736,2.352,-1,4
409,4.03970,2.349,-1,4
410,4.04205,2.343,-1,4
411,4.04438,2.336,-1,4
412,4.04671,2.329,-1,4
413,4.04903,2.322,-1,4
414,4.05136,2.324,-1,4
415,4.05367,2.315,-1,4
416,4.05598,2.304,-1,4
417,4.05828,2.300,-1,4
418,4.06057,2.296,-1,4
419,4.06286,2.288,-1,4
420,4.06514,2.282,-1,4
421,4.06742,2.275,-1,4
422,4.06969,2.269,-1,4
423,4.07195,2.259,-1,4
424,4.07420,2.256,-1,4
425,4.07645,2.248,-1,4
426,4.07870,2.245,-1,4
427,4.08093,2.234,-1,4
428,4.08316,2.227,-1,4
429,4.08538,2.221,-1,4
430,4.08759,2.217,-1,4
431,4.08980,2.207,-1,4
432,4.09200,2.202,-1,4
433,4.09419,2.191,-1,4
434,4.09638,2.185,-1,4
435,4.09856,2.182,-1,4
436,4.10074,2.176,-1,4
437,4.10290,2.163,-1,4
438,4.10505,2.155,-1,4
439,4.10721,2.155,-1,4
440,4.10935,2.146,-1,4
441,4.11149,2.135,-1,4
442,4.11362,2.127,-1,4
443,4.11574,2.126,-1,4
444,4.11786,2.117,-1,4
445,4.11997,2.109,-1,4
446,4.12207,2.100,-1,4
447,4.12416,2.096,-1,4
448,4.12625,2.089,-1,4
449,4.12833,2.076,-1,4
450,4.13040,2.074,-1,4
451,4.13247,2.063,-1,4
452,4.13452,2.057,-1,4
453,4.13657,2.045,-1,4
454,4.13861,2.044,-1,4
455,4.14266,2.020,-1,4
456,4.14468,2.018,-1,4
457,4.14669,2.012,-1,4
458,4.14869,1.999,-1,4
459,4.15068,1.985,-1,4
460,4.15266,1.984,-1,4
461,4.15464,1.982,-1,4
462,4.15661,1.969,-1,4
463,4.15857,1.954,-1,4
464,4.16051,1.944,-1,4
465,4.16246,1.947,-1,4
466,4.16439,1.939,-1,4
467,4.16632,1.923,-1,4
468,4.16823,1.913,-1,4
469,4.17014,1.909,-1,4
470,4.17204,1.905,-1,4
471,4.17394,1.894,-1,4
472,4.17582,1.882,-1,4
473,4.17769,1.873,-1,4
474,4.17956,1.869,-1,4
475,4.18143,1.862,-1,4
476,4.18328,1.852,-1,4
477,4.18512,1.842,-1,4
478,4.18695,1.831,-1,4
479,4.18877,1.819,-1,4
480,4.19059,1.821,-1,4
481,4.19240,1.812,-1,4
482,4.19420,1.799,-1,4
483,4.19599,1.783,-1,4
484,4.19776,1.775,-1,4
485,4.19954,1.777,-1,4
486,4.20131,1.776,-1,4
487,4.20307,1.753,-1,4
488,4.20480,1.735,-1,4
489,4.20653,1.730,-1,4
490,4.20827,1.733,-1,4
491,4.21000,1.732,-1,4
492,4.21171,1.709,-1,4
493,4.21340,1.691,-1,4
494,4.21508,1.685,-1,4
495,4.21677,1.687,-1,4
496,4.21845,1.685,-1,4
497,4.22012,1.668,-1,4
498,4.22177,1.646,-1,4
499,4.22341,1.640,-1,4
500,4.22505,1.642,-1,4
501,4.22669,1.636,-1,4
502,4.22831,1.627,-1,4
503,4.22992,1.607,-1,4
504,4.23152,1.598,-1,4
505,4.23311,1.595,-1,4
506,4.23470,1.589,-1,4
507,4.23628,1.580,-1,4
508,4.23786,1.573,-1,4
509,4.24096,1.548,-1,4
510,4.24251,1.544,-1,4
511,4.24404,1.535,-1,4
512,4.24557,1.530,-1,4
513,4.24710,1.528,-1,4
514,4.24861,1.513,-1,4
515,4.25011,1.496,-1,4
516,4.25160,1.490,-1,4
517,4.25309,1.487,-1,4
518,4.25458,1.490,-1,4
519,4.25606,1.482,-1,4
520,4.25752,1.463,-1,4
521,4.25897,1.443,-1,4
522,4.26041,1.441,-1,4
523,4.26185,1.449,-1,4
524,4.26330,1.447,-1,4
525,4.26473,1.433,-1,4
526,4.26615,1.411,-1,4
527,4.26754,1.394,-1,4
528,4.26894,1.397,-1,4
529,4.27034,1.408,-1,4
530,4.27175,1.404,-1,4
531,4.27313,1.377,-1,4
532,4.27448,1.357,-1,4
533,4.27584,1.353,-1,4
534,4.27720,1.361,-1,4
535,4.27856,1.365,-1,4
536,4.27991,1.351,-1,4
537,4.28124,1.325,-1,4
538,4.28255,1.309,-1,4
539,4.28386,1.315,-1,4
540,4.28519,1.328,-1,4
541,4.28651,1.319,-1,4
542,4.28780,1.296,-1,4
543,4.28908,1.275,-1,4
544,4.29035,1.269,-1,4
545,4.29163,1.279,-1,4
546,4.29291,1.284,-1,4
547,4.29419,1.275,-1,4
548,4.29543,1.248,-1,4
549,4.29666,1.225,-1,4
550,4.29789,1.228,-1,4
551,4.29913,1.242,-1,4
552,4.30037,1.241,-1,4
553,4.30159,1.223,-1,4
554,4.30279,1.201,-1,4
555,4.30399,1.192,-1,4
556,4.30637,1.192,-1,4
557,4.30756,1.195,-1,4
558,4.30874,1.181,-1,4
559,4.30990,1.159,-1,4
560,4.31105,1.149,-1,4
561,4.31220,1.153,-1,4
562,4.31336,1.156,-1,4
563,4.31450,1.143,-1,4
564,4.31563,1.127,-1,4
565,4.31675,1.122,-1,4
566,4.31788,1.122,-1,4
567,4.31899,1.115,-1,4
568,4.32009,1.102,-1,4
569,4.32118,1.093,-1,4
570,4.32228,1.091,-1,4
571,4.32336,1.087,-1,4
572,4.32444,1.080,-1,4
573,4.32657,1.062,-1,4
574,4.32763,1.051,-1,4
575,4.32867,1.046,-1,4
576,4.32972,1.044,-1,4
577,4.33076,1.042,-1,4
578,4.33179,1.034,-1,4
579,4.33281,1.022,-1,4
580,4.33382,1.009,-1,4
581,4.33483,1.007,-1,4
582,4.33584,1.010,-1,4
583,4.33684,1.002,-1,4
584,4.33783,0.986,-1,4
585,4.33881,0.979,-1,4
586,4.33979,0.982,-1,4
587,4.34078,0.971,-1,4
588,4.34270,0.953,-1,4
589,4.34364,0.943,-1,4
590,4.34460,0.952,-1,4
591,4.34555,0.957,-1,4
592,4.34650,0.947,-1,4
593,4.34743,0.928,-1,4
594,4.34834,0.915,-1,4
595,4.34927,0.925,-1,4
596,4.35020,0.930,-1,4
597,4.35112,0.917,-1,4
598,4.35201,0.898,-1,4
599,4.35290,0.889,-1,4
600,4.35380,0.897,-1,4
601,4.35560,0.896,-1,4
602,4.35560,0.872,-1,4
603,4.35647,0.860,-1,4
604,4.35733,0.860,-1,4
605,4.35908,0.878,-1,4
606,4.35908,0.871,-1,4
607,4.36080,0.850,-1,4
608,4.36163,0.834,-1,4
609,4.36247,0.839,-1,4
610,4.36333,0.854,-1,4
611,4.36418,0.851,-1,4
612,4.36501,0.831,-1,4
613,4.36582,0.809,-1,4
614,4.36663,0.808,-1,4
615,4.36745,0.826,-1,4
616,4.36828,0.831,-1,4
617,4.36910,0.815,-1,4
618,4.36989,0.791,-1,4
619,4.37068,0.786,-1,4
620,4.37147,0.796,-1,4
621,4.37228,0.800,-1,4
622,4.37308,0.800,-1,4
623,4.37386,0.777,-1,4
624,4.37462,0.761,-1,4
625,4.37539,0.766,-1,4
626,4.37617,0.783,-1,4
627,4.37695,0.783,-1,4
628,4.37772,0.766,-1,4
629,4.37847,0.747,-1,4
630,4.37921,0.746,-1,4
631,4.37997,0.756,-1,4
632,4.38073,0.760,-1,4
633,4.38148,0.749,-1,4
634,4.38221,0.737,-1,4
635,4.38294,0.727,-1,4
636,4.38367,0.733,-1,4
637,4.38441,0.740,-1,4
638,4.38515,0.732,-1,4
639,4.38587,0.721,-1,4
640,4.38658,0.718,-1,4
641,4.38730,0.720,-1,4
642,4.38803,0.722,-1,4
643,4.38874,0.714,-1,4
644,4.38944,0.703,-1,4
645,4.39014,0.701,-1,4
646,4.39085,0.708,-1,4
647,4.39156,0.710,-1,4
648,4.39226,0.701,-1,4
649,4.39296,0.694,-1,4
650,4.39365,0.691,-1,4
651,4.39434,0.697,-1,4
652,4.39504,0.697,-1,4
653,4.39574,0.694,-1,4
654,4.39642,0.682,-1,4
655,4.39710,0.682,-1,4
656,4.39778,0.683,-1,4
657,4.39847,0.686,-1,4
658,4.39915,0.680,-1,4
659,4.39983,0.678,-1,4
660,4.40051,0.678,-1,4
661,4.40119,0.678,-1,4
662,4.40186,0.678,-1,4
663,4.40254,0.673,-1,4
664,4.40321,0.669,-1,4
665,4.40387,0.673,-1,4
666,4.40522,0.671,-1,4
667,4.40588,0.667,-1,4
668,4.40654,0.660,-1,4
669,4.40721,0.662,-1,4
670,4.40787,0.666,-1,4
671,4.40854,0.664,-1,4
672,4.40920,0.662,-1,4
673,4.40986,0.659,-1,4
674,4.41052,0.660,-1,4
675,4.41118,0.660,-1,4
676,4.41183,0.655,-1,4
677,4.41248,0.652,-1,4
678,4.41314,0.652,-1,4
679,4.41379,0.652,-1,4
680,4.41444,0.656,-1,4
681,4.41509,0.651,-1,4
682,4.41574,0.645,-1,4
683,4.41639,0.649,-1,4
684,4.41704,0.652,-1,4
685,4.41769,0.651,-1,4
686,4.41834,0.647,-1,4
687,4.41898,0.644,-1,4
688,4.41963,0.645,-1,4
689,4.42028,0.649,-1,4
690,4.42092,0.645,-1,4
691,4.42156,0.640,-1,4
692,4.42220,0.638,-1,4
693,4.42284,0.643,-1,4
694,4.42349,0.646,-1,4
695,4.42413,0.644,-1,4
696,4.42477,0.639,-1,4
697,4.42541,0.638,-1,4
698,4.42605,0.642,-1,4
699,4.42669,0.642,-1,4
700,4.42733,0.639,-1,4
701,4.42797,0.639,-1,4
702,4.42861,0.639,-1,4
703,4.42925,0.639,-1,4
704,4.42989,0.640,-1,4
705,4.43116,0.632,-1,4
706,4.43179,0.636,-1,4
707,4.43243,0.639,-1,4
708,4.43307,0.637,-1,4
709,4.43370,0.633,-1,4
710,4.43433,0.632,-1,4
711,4.43497,0.635,-1,4
712,4.43560,0.635,-1,4
713,4.43624,0.633,-1,4
714,4.43687,0.631,-1,4
715,4.43750,0.629,-1,4
716,4.43813,0.631,-1,4
717,4.43876,0.633,-1,4
718,4.43939,0.628,-1,4
719,4.44001,0.624,-1,4
720,4.44064,0.627,-1,4
721,4.44127,0.629,-1,4
722,4.44190,0.629,-1,4
723,4.44252,0.625,-1,4
724,4.44315,0.624,-1,4
725,4.44377,0.623,-1,4
726,4.44440,0.623,-1,4
727,4.44502,0.622,-1,4
728,4.44564,0.620,-1,4
729,4.44626,0.618,-1,4
730,4.44687,0.618,-1,4
731,4.44749,0.621,-1,4
732,4.44812,0.621,-1,4
733,4.44873,0.616,-1,4
734,4.44935,0.613,-1,4
735,4.44996,0.613,-1,4
736,4.45057,0.615,-1,4
737,4.45119,0.613,-1,4
738,4.45180,0.609,-1,4
739,4.45240,0.608,-1,4
740,4.45301,0.606,-1,4
741,4.45362,0.607,-1,4
742,4.45422,0.604,-1,4
743,4.45482,0.601,-1,4
744,4.45542,0.600,-1,4
745,4.45602,0.600,-1,4
746,4.45662,0.602,-1,4
747,4.45722,0.597,-1,4
748,4.45781,0.593,-1,4
749,4.45840,0.591,-1,4
750,4.45899,0.590,-1,4
751,4.45958,0.587,-1,4
752,4.46016,0.582,-1,4
753,4.46074,0.579,-1,4
754,4.46132,0.579,-1,4
755,4.46190,0.578,-1,4
756,4.46247,0.574,-1,4
757,4.46304,0.569,-1,4
758,4.46361,0.568,-1,4
759,4.46418,0.567,-1,4
760,4.46474,0.563,-1,4
761,4.46530,0.560,-1,4
762,4.46585,0.557,-1,4
763,4.46641,0.554,-1,4
764,4.46696,0.544,-1,4
765,4.46750,0.544,-1,4
766,4.46804,0.540,-1,4
767,4.46858,0.537,-1,4
768,4.46911,0.534,-1,4
769,4.46965,0.531,-1,4
770,4.47070,0.523,-1,4
771,4.47122,0.521,-1,4
772,4.47174,0.520,-1,4
773,4.47225,0.515,-1,4
774,4.47277,0.513,-1,4
775,4.47327,0.507,-1,4
776,4.47378,0.505,-1,4
777,4.47428,0.500,-1,4
778,4.47478,0.499,-1,4
779,4.47527,0.495,-1,4
780,4.47576,0.489,-1,4
781,4.47625,0.486,-1,4
782,4.47673,0.482,-1,4
783,4.47721,0.481,-1,4
784,4.47769,0.476,-1,4
785,4.47816,0.470,-1,4
786,4.47862,0.467,-1,4
787,4.47909,0.464,-1,4
788,4.47955,0.460,-1,4
789,4.48000,0.456,-1,4
790,4.48046,0.451,-1,4
791,4.48090,0.447,-1,4
792,4.48135,0.446,-1,4
793,4.48179,0.441,-1,4
794,4.48222,0.436,-1,4
795,4.48266,0.430,-1,4
796,4.48308,0.425,-1,4
797,4.48350,0.423,-1,4
798,4.48392,0.418,-1,4
799,4.48433,0.414,-1,4
800,4.48474,0.407,-1,4
801,4.48515,0.404,-1,4
802,4.48554,0.399,-1,4
803,4.48594,0.394,-1,4
804,4.48633,0.389,-1,4
805,4.48671,0.383,-1,4
806,4.48709,0.379,-1,4
807,4.48746,0.373,-1,4
808,4.48783,0.368,-1,4
809,4.48820,0.364,-1,4
810,4.48855,0.358,-1,4
811,4.48890,0.352,-1,4
812,4.48925,0.347,-1,4
813,4.48959,0.342,-1,4
814,4.48993,0.336,-1,4
815,4.49026,0.330,-1,4
816,4.49059,0.327,-1,4
817,4.49091,0.321,-1,4
818,4.49122,0.316,-1,4
819,4.49154,0.312,-1,4
820,4.49184,0.306,-1,4
821,4.49214,0.301,-1,4
822,4.49244,0.296,-1,4
823,4.49273,0.291,-1,4
824,4.49302,0.280,-1,4
825,4.49357,0.274,-1,4
826,4.49384,0.270,-1,4
827,4.49410,0.265,-1,4
828,4.49436,0.259,-1,4
829,4.49462,0.253,-1,4
830,4.49487,0.249,-1,4
831,4.49511,0.243,-1,4
832,4.49535,0.240,-1,4
833,4.49558,0.234,-1,4
834,4.49581,0.228,-1,4
835,4.49604,0.225,-1,4
836,4.49625,0.219,-1,4
837,4.49647,0.214,-1,4
838,4.49668,0.209,-1,4
839,4.49688,0.202,-1,4
840,4.49708,0.198,-1,4
841,4.49727,0.192,-1,4
842,4.49746,0.186,-1,4
843,4.49764,0.181,-1,4
844,4.49781,0.174,-1,4
845,4.49798,0.168,-1,4
846,4.49814,0.164,-1,4
847,4.49830,0.157,-1,4
848,4.49845,0.153,-1,4
849,4.49860,0.146,-1,4
850,4.49874,0.142,-1,4
851,4.49888,0.136,-1,4
852,4.49901,0.132,-1,4
853,4.49914,0.125,-1,4
854,4.49926,0.122,-1,4
855,4.49937,0.116,-1,4
856,4.49949,0.113,-1,4
857,4.49959,0.107,-1,4
858,4.49969,0.102,-1,4
859,4.49979,0.098,-1,4
860,4.49989,0.093,-1,4
861,4.49997,0.088,-1,4
862,4.50006,0.083,-1,4
863,4.50013,0.078,-1,4
864,4.50021,0.072,-1,4
865,4.50027,0.069,-1,4
866,4.50034,0.063,-1,4
867,4.50040,0.058,-1,4
868,4.50045,0.052,-1,4
869,4.50049,0.047,-1,4
870,4.50054,0.043,-1,4
871,4.50057,0.037,-1,4
872,4.50061,0.031,-1,4
873,4.50063,0.026,-1,4
