cnt,pos,speed,Dir,Force,
1,3.20279,0.838,-1,4
2,3.20363,0.847,-1,4
3,3.20449,0.858,-1,4
4,3.20535,0.860,-1,4
5,3.20620,0.850,-1,4
6,3.20704,0.841,-1,4
7,3.20789,0.848,-1,4
8,3.20875,0.863,-1,4
9,3.20963,0.872,-1,4
10,3.21049,0.866,-1,4
11,3.21134,0.854,-1,4
12,3.21220,0.851,-1,4
13,3.21306,0.865,-1,4
14,3.21394,0.882,-1,4
15,3.21483,0.884,-1,4
16,3.21570,0.873,-1,4
17,3.21657,0.867,-1,4
18,3.21744,0.877,-1,4
19,3.21834,0.895,-1,4
20,3.21924,0.904,-1,4
21,3.22014,0.896,-1,4
22,3.22102,0.886,-1,4
23,3.22191,0.886,-1,4
24,3.22282,0.906,-1,4
25,3.22374,0.922,-1,4
26,3.22466,0.923,-1,4
27,3.22557,0.909,-1,4
28,3.22647,0.904,-1,4
29,3.22740,0.921,-1,4
30,3.22833,0.939,-1,4
31,3.22927,0.938,-1,4
32,3.23020,0.929,-1,4
33,3.23112,0.923,-1,4
34,3.23302,0.956,-1,4
35,3.23398,0.960,-1,4
36,3.23398,0.952,-1,4
37,3.23493,0.952,-1,4
38,3.23587,0.940,-1,4
39,3.23682,0.950,-1,4
40,3.23779,0.966,-1,4
41,3.23876,0.978,-1,4
42,3.23973,0.969,-1,4
43,3.24069,0.962,-1,4
44,3.24265,0.986,-1,4
45,3.24364,0.988,-1,4
46,3.24462,0.982,-1,4
47,3.24559,0.974,-1,4
48,3.24658,0.986,-1,4
49,3.24758,1.003,-1,4
50,3.24858,1.005,-1,4
51,3.24958,0.997,-1,4
52,3.25057,0.990,-1,4
53,3.25157,1.003,-1,4
54,3.25259,1.016,-1,4
55,3.25361,1.016,-1,4
56,3.25462,1.010,-1,4
57,3.25563,1.014,-1,4
58,3.25666,1.026,-1,4
59,3.25769,1.032,-1,4
60,3.25872,1.030,-1,4
61,3.25974,1.022,-1,4
62,3.26077,1.030,-1,4
63,3.26181,1.045,-1,4
64,3.26287,1.052,-1,4
65,3.26391,1.048,-1,4
66,3.26496,1.046,-1,4
67,3.26601,1.055,-1,4
68,3.26708,1.063,-1,4
69,3.26814,1.064,-1,4
70,3.26920,1.062,-1,4
71,3.27027,1.070,-1,4
72,3.27135,1.082,-1,4
73,3.27244,1.086,-1,4
74,3.27352,1.081,-1,4
75,3.27460,1.081,-1,4
76,3.27569,1.091,-1,4
77,3.27679,1.099,-1,4
78,3.27789,1.100,-1,4
79,3.27899,1.100,-1,4
80,3.28010,1.109,-1,4
81,3.28121,1.116,-1,4
82,3.28233,1.112,-1,4
83,3.28344,1.112,-1,4
84,3.28569,1.131,-1,4
85,3.28569,1.134,-1,4
86,3.28682,1.133,-1,4
87,3.28909,1.135,-1,4
88,3.29024,1.144,-1,4
89,3.29138,1.145,-1,4
90,3.29253,1.146,-1,4
91,3.29368,1.154,-1,4
92,3.29485,1.166,-1,4
93,3.29601,1.167,-1,4
94,3.29717,1.161,-1,4
95,3.29834,1.163,-1,4
96,3.29951,1.182,-1,4
97,3.30069,1.181,-1,4
98,3.30306,1.185,-1,4
99,3.30425,1.190,-1,4
100,3.30544,1.192,-1,4
101,3.30663,1.194,-1,4
102,3.30783,1.198,-1,4
103,3.30903,1.201,-1,4
104,3.31024,1.209,-1,4
105,3.31145,1.209,-1,4
106,3.31266,1.214,-1,4
107,3.31388,1.220,-1,4
108,3.31510,1.217,-1,4
109,3.31632,1.217,-1,4
110,3.31754,1.226,-1,4
111,3.31878,1.238,-1,4
112,3.32002,1.238,-1,4
113,3.32125,1.234,-1,4
114,3.32249,1.237,-1,4
115,3.32373,1.244,-1,4
116,3.32498,1.251,-1,4
117,3.32624,1.254,-1,4
118,3.32750,1.259,-1,4
119,3.32876,1.260,-1,4
120,3.33001,1.258,-1,4
121,3.33128,1.265,-1,4
122,3.33255,1.274,-1,4
123,3.33383,1.278,-1,4
124,3.33511,1.278,-1,4
125,3.33638,1.278,-1,4
126,3.33767,1.286,-1,4
127,3.33895,1.284,-1,4
128,3.34024,1.289,-1,4
129,3.34154,1.300,-1,4
130,3.34285,1.305,-1,4
131,3.34415,1.301,-1,4
132,3.34545,1.301,-1,4
133,3.34676,1.308,-1,4
134,3.34807,1.315,-1,4
135,3.34939,1.320,-1,4
136,3.35072,1.326,-1,4
137,3.35205,1.327,-1,4
138,3.35337,1.325,-1,4
139,3.35470,1.327,-1,4
140,3.35604,1.340,-1,4
141,3.35738,1.345,-1,4
142,3.35873,1.343,-1,4
143,3.36007,1.348,-1,4
144,3.36143,1.354,-1,4
145,3.36278,1.356,-1,4
146,3.36414,1.355,-1,4
147,3.36550,1.362,-1,4
148,3.36687,1.367,-1,4
149,3.36824,1.370,-1,4
150,3.36961,1.374,-1,4
151,3.37099,1.376,-1,4
152,3.37236,1.374,-1,4
153,3.37374,1.381,-1,4
154,3.37513,1.391,-1,4
155,3.37653,1.388,-1,4
156,3.37931,1.390,-1,4
157,3.37931,1.390,-1,4
158,3.38071,1.408,-1,4
159,3.38211,1.408,-1,4
160,3.38352,1.408,-1,4
161,3.38493,1.409,-1,4
162,3.38633,1.403,-1,4
163,3.38774,1.408,-1,4
164,3.38917,1.425,-1,4
165,3.39060,1.432,-1,4
166,3.39202,1.424,-1,4
167,3.39344,1.419,-1,4
168,3.39486,1.421,-1,4
169,3.39629,1.431,-1,4
170,3.39774,1.448,-1,4
171,3.39919,1.448,-1,4
172,3.40062,1.437,-1,4
173,3.40205,1.430,-1,4
174,3.40349,1.441,-1,4
175,3.40496,1.461,-1,4
176,3.40642,1.466,-1,4
177,3.40788,1.457,-1,4
178,3.40933,1.448,-1,4
179,3.41078,1.450,-1,4
180,3.41224,1.465,-1,4
181,3.41372,1.482,-1,4
182,3.41520,1.479,-1,4
183,3.41667,1.466,-1,4
184,3.41813,1.461,-1,4
185,3.41960,1.471,-1,4
186,3.42109,1.486,-1,4
187,3.42258,1.496,-1,4
188,3.42407,1.484,-1,4
189,3.42554,1.471,-1,4
190,3.42702,1.478,-1,4
191,3.42851,1.498,-1,4
192,3.43002,1.502,-1,4
193,3.43151,1.500,-1,4
194,3.43300,1.487,-1,4
195,3.43448,1.483,-1,4
196,3.43599,1.501,-1,4
197,3.43750,1.517,-1,4
198,3.43902,1.513,-1,4
199,3.44051,1.497,-1,4
200,3.44201,1.493,-1,4
201,3.44351,1.501,-1,4
202,3.44503,1.523,-1,4
203,3.44656,1.527,-1,4
204,3.44807,1.515,-1,4
205,3.44957,1.498,-1,4
206,3.45107,1.502,-1,4
207,3.45259,1.522,-1,4
208,3.45413,1.538,-1,4
209,3.45566,1.531,-1,4
210,3.45718,1.512,-1,4
211,3.45868,1.520,-1,4
212,3.46020,1.543,-1,4
213,3.46329,1.547,-1,4
214,3.46482,1.529,-1,4
215,3.46633,1.512,-1,4
216,3.46784,1.515,-1,4
217,3.46939,1.545,-1,4
218,3.47094,1.554,-1,4
219,3.47248,1.539,-1,4
220,3.47400,1.523,-1,4
221,3.47553,1.522,-1,4
222,3.47707,1.540,-1,4
223,3.47862,1.555,-1,4
224,3.48017,1.548,-1,4
225,3.48169,1.526,-1,4
226,3.48322,1.526,-1,4
227,3.48476,1.544,-1,4
228,3.48632,1.553,-1,4
229,3.48787,1.549,-1,4
230,3.48940,1.530,-1,4
231,3.49093,1.529,-1,4
232,3.49247,1.545,-1,4
233,3.49403,1.559,-1,4
234,3.49558,1.548,-1,4
235,3.49711,1.528,-1,4
236,3.49864,1.530,-1,4
237,3.50018,1.544,-1,4
238,3.50174,1.560,-1,4
239,3.50329,1.554,-1,4
240,3.50482,1.529,-1,4
241,3.50635,1.527,-1,4
242,3.50789,1.541,-1,4
243,3.51100,1.555,-1,4
244,3.51254,1.537,-1,4
245,3.51406,1.525,-1,4
246,3.51559,1.530,-1,4
247,3.51714,1.553,-1,4
248,3.51870,1.552,-1,4
249,3.52023,1.538,-1,4
250,3.52176,1.526,-1,4
251,3.52329,1.526,-1,4
252,3.52483,1.542,-1,4
253,3.52638,1.547,-1,4
254,3.52791,1.537,-1,4
255,3.52943,1.521,-1,4
256,3.53096,1.528,-1,4
257,3.53250,1.537,-1,4
258,3.53403,1.536,-1,4
259,3.53556,1.527,-1,4
260,3.53708,1.518,-1,4
261,3.53860,1.523,-1,4
262,3.54014,1.536,-1,4
263,3.54167,1.531,-1,4
264,3.54318,1.513,-1,4
265,3.54469,1.510,-1,4
266,3.54621,1.521,-1,4
267,3.54774,1.531,-1,4
268,3.54927,1.524,-1,4
269,3.55078,1.508,-1,4
270,3.55227,1.496,-1,4
271,3.55379,1.514,-1,4
272,3.55532,1.530,-1,4
273,3.55684,1.518,-1,4
274,3.55833,1.497,-1,4
275,3.55983,1.493,-1,4
276,3.56133,1.508,-1,4
277,3.56286,1.523,-1,4
278,3.56437,1.515,-1,4
279,3.56735,1.487,-1,4
280,3.56885,1.506,-1,4
281,3.56885,1.517,-1,4
282,3.57188,1.507,-1,4
283,3.57337,1.490,-1,4
284,3.57485,1.485,-1,4
285,3.57635,1.497,-1,4
286,3.57787,1.517,-1,4
287,3.57937,1.505,-1,4
288,3.58086,1.488,-1,4
289,3.58234,1.482,-1,4
290,3.58384,1.499,-1,4
291,3.58535,1.510,-1,4
292,3.58686,1.504,-1,4
293,3.58835,1.490,-1,4
294,3.58983,1.480,-1,4
295,3.59132,1.491,-1,4
296,3.59282,1.505,-1,4
297,3.59432,1.501,-1,4
298,3.59581,1.488,-1,4
299,3.59730,1.484,-1,4
300,3.59878,1.486,-1,4
301,3.60028,1.495,-1,4
302,3.60178,1.498,-1,4
303,3.60326,1.488,-1,4
304,3.60475,1.482,-1,4
305,3.60623,1.485,-1,4
306,3.60772,1.489,-1,4
307,3.60921,1.487,-1,4
308,3.61070,1.490,-1,4
309,3.61218,1.482,-1,4
310,3.61366,1.478,-1,4
311,3.61514,1.480,-1,4
312,3.61662,1.484,-1,4
313,3.61810,1.482,-1,4
314,3.61958,1.482,-1,4
315,3.62105,1.470,-1,4
316,3.62400,1.475,-1,4
317,3.62548,1.479,-1,4
318,3.62695,1.477,-1,4
319,3.62841,1.462,-1,4
320,3.62987,1.456,-1,4
321,3.63133,1.463,-1,4
322,3.63281,1.472,-1,4
323,3.63428,1.471,-1,4
324,3.63573,1.458,-1,4
325,3.63718,1.445,-1,4
326,3.63863,1.451,-1,4
327,3.64009,1.460,-1,4
328,3.64155,1.459,-1,4
329,3.64300,1.451,-1,4
330,3.64444,1.443,-1,4
331,3.64588,1.437,-1,4
332,3.64732,1.443,-1,4
333,3.64877,1.442,-1,4
334,3.65165,1.430,-1,4
335,3.65308,1.428,-1,4
336,3.65451,1.432,-1,4
337,3.65594,1.431,-1,4
338,3.65737,1.430,-1,4
339,3.65879,1.427,-1,4
340,3.66021,1.417,-1,4
341,3.66163,1.415,-1,4
342,3.66305,1.419,-1,4
343,3.66446,1.419,-1,4
344,3.66588,1.410,-1,4
345,3.66729,1.410,-1,4
346,3.66869,1.402,-1,4
347,3.67010,1.402,-1,4
348,3.67151,1.410,-1,4
349,3.67292,1.409,-1,4
350,3.67431,1.396,-1,4
351,3.67570,1.387,-1,4
352,3.67709,1.391,-1,4
353,3.67849,1.397,-1,4
354,3.67988,1.396,-1,4
355,3.68127,1.388,-1,4
356,3.68265,1.378,-1,4
357,3.68403,1.377,-1,4
358,3.68541,1.384,-1,4
359,3.68679,1.386,-1,4
360,3.68817,1.375,-1,4
361,3.68954,1.369,-1,4
362,3.69091,1.371,-1,4
363,3.69228,1.371,-1,4
364,3.69365,1.367,-1,4
365,3.69501,1.366,-1,4
366,3.69638,1.365,-1,4
367,3.69774,1.359,-1,4
368,3.69909,1.356,-1,4
369,3.70045,1.355,-1,4
370,3.70180,1.352,-1,4
371,3.70315,1.349,-1,4
372,3.70450,1.348,-1,4
373,3.70584,1.344,-1,4
374,3.70718,1.337,-1,4
375,3.70852,1.339,-1,4
376,3.70986,1.342,-1,4
377,3.71120,1.334,-1,4
378,3.71252,1.327,-1,4
379,3.71385,1.324,-1,4
380,3.71517,1.327,-1,4
381,3.71650,1.324,-1,4
382,3.71782,1.320,-1,4
383,3.72045,1.311,-1,4
384,3.72045,1.308,-1,4
385,3.72175,1.306,-1,4
386,3.72306,1.306,-1,4
387,3.72437,1.306,-1,4
388,3.72567,1.300,-1,4
389,3.72696,1.293,-1,4
390,3.72954,1.290,-1,4
391,3.73083,1.283,-1,4
392,3.73211,1.280,-1,4
393,3.73339,1.279,-1,4
394,3.73466,1.274,-1,4
395,3.73592,1.264,-1,4
396,3.73719,1.267,-1,4
397,3.73845,1.262,-1,4
398,3.73971,1.254,-1,4
399,3.74095,1.247,-1,4
400,3.74220,1.248,-1,4
401,3.74345,1.246,-1,4
402,3.74469,1.237,-1,4
403,3.74592,1.229,-1,4
404,3.74714,1.230,-1,4
405,3.74837,1.223,-1,4
406,3.74959,1.218,-1,4
407,3.75080,1.215,-1,4
408,3.75201,1.211,-1,4
409,3.75322,1.205,-1,4
410,3.75441,1.192,-1,4
411,3.75560,1.194,-1,4
412,3.75680,1.195,-1,4
413,3.75798,1.186,-1,4
414,3.75916,1.176,-1,4
415,3.76033,1.171,-1,4
416,3.76150,1.171,-1,4
417,3.76267,1.163,-1,4
418,3.76382,1.155,-1,4
419,3.76497,1.153,-1,4
420,3.76613,1.154,-1,4
421,3.76727,1.146,-1,4
422,3.76841,1.134,-1,4
423,3.76953,1.127,-1,4
424,3.77066,1.130,-1,4
425,3.77179,1.126,-1,4
426,3.77291,1.116,-1,4
427,3.77402,1.109,-1,4
428,3.77513,1.110,-1,4
429,3.77623,1.107,-1,4
430,3.77842,1.088,-1,4
431,3.77842,1.087,-1,4
432,3.78059,1.087,-1,4
433,3.78059,1.079,-1,4
434,3.78167,1.079,-1,4
435,3.78274,1.071,-1,4
436,3.78381,1.069,-1,4
437,3.78488,1.068,-1,4
438,3.78594,1.047,-1,4
439,3.78803,1.044,-1,4
440,3.78803,1.049,-1,4
441,3.79012,1.045,-1,4
442,3.79115,1.030,-1,4
443,3.79217,1.024,-1,4
444,3.79320,1.025,-1,4
445,3.79423,1.026,-1,4
446,3.79524,1.016,-1,4
447,3.79624,1.000,-1,4
448,3.79724,1.000,-1,4
449,3.79825,1.008,-1,4
450,3.79925,1.005,-1,4
451,3.80024,0.986,-1,4
452,3.80122,0.976,-1,4
453,3.80220,0.978,-1,4
454,3.80318,0.987,-1,4
455,3.80416,0.975,-1,4
456,3.80512,0.960,-1,4
457,3.80607,0.951,-1,4
458,3.80703,0.965,-1,4
459,3.80800,0.963,-1,4
460,3.80894,0.948,-1,4
461,3.80987,0.928,-1,4
462,3.81080,0.928,-1,4
463,3.81174,0.942,-1,4
464,3.81268,0.937,-1,4
465,3.81360,0.922,-1,4
466,3.81450,0.904,-1,4
467,3.81541,0.905,-1,4
468,3.81632,0.915,-1,4
469,3.81723,0.909,-1,4
470,3.81812,0.889,-1,4
471,3.81899,0.872,-1,4
472,3.81987,0.879,-1,4
473,3.82076,0.892,-1,4
474,3.82165,0.884,-1,4
475,3.82251,0.861,-1,4
476,3.82336,0.850,-1,4
477,3.82507,0.860,-1,4
478,3.82592,0.850,-1,4
479,3.82675,0.831,-1,4
480,3.82757,0.821,-1,4
481,3.82840,0.827,-1,4
482,3.82923,0.831,-1,4
483,3.83005,0.824,-1,4
484,3.83086,0.805,-1,4
485,3.83165,0.794,-1,4
486,3.83245,0.798,-1,4
487,3.83325,0.798,-1,4
488,3.83403,0.788,-1,4
489,3.83481,0.775,-1,4
490,3.83558,0.772,-1,4
491,3.83636,0.775,-1,4
492,3.83713,0.770,-1,4
493,3.83788,0.754,-1,4
494,3.83862,0.742,-1,4
495,3.83937,0.747,-1,4
496,3.84012,0.746,-1,4
497,3.84085,0.736,-1,4
498,3.84158,0.725,-1,4
499,3.84229,0.712,-1,4
500,3.84300,0.715,-1,4
501,3.84372,0.718,-1,4
502,3.84443,0.708,-1,4
503,3.84581,0.685,-1,4
504,3.84650,0.689,-1,4
505,3.84718,0.684,-1,4
506,3.84786,0.674,-1,4
507,3.84852,0.662,-1,4
508,3.84918,0.660,-1,4
509,3.84984,0.659,-1,4
510,3.85049,0.653,-1,4
511,3.85113,0.644,-1,4
512,3.85177,0.635,-1,4
513,3.85240,0.632,-1,4
514,3.85303,0.632,-1,4
515,3.85366,0.626,-1,4
516,3.85428,0.616,-1,4
517,3.85488,0.606,-1,4
518,3.85549,0.605,-1,4
519,3.85609,0.604,-1,4
520,3.85668,0.594,-1,4
521,3.85727,0.583,-1,4
522,3.85785,0.580,-1,4
523,3.85843,0.581,-1,4
524,3.85900,0.576,-1,4
525,3.85957,0.566,-1,4
526,3.86013,0.557,-1,4
527,3.86068,0.555,-1,4
528,3.86124,0.555,-1,4
529,3.86179,0.548,-1,4
530,3.86232,0.536,-1,4
531,3.86285,0.531,-1,4
532,3.86338,0.530,-1,4
533,3.86391,0.528,-1,4
534,3.86443,0.517,-1,4
535,3.86493,0.507,-1,4
536,3.86544,0.501,-1,4
537,3.86594,0.502,-1,4
538,3.86644,0.498,-1,4
539,3.86692,0.487,-1,4
540,3.86740,0.478,-1,4
541,3.86788,0.476,-1,4
542,3.86835,0.475,-1,4
543,3.86882,0.468,-1,4
544,3.86928,0.458,-1,4
545,3.86973,0.451,-1,4
546,3.87017,0.446,-1,4
547,3.87062,0.444,-1,4
548,3.87106,0.438,-1,4
549,3.87148,0.426,-1,4
550,3.87232,0.415,-1,4
551,3.87273,0.413,-1,4
552,3.87313,0.404,-1,4
553,3.87353,0.395,-1,4
554,3.87392,0.388,-1,4
555,3.87430,0.386,-1,4
556,3.87468,0.380,-1,4
557,3.87505,0.370,-1,4
558,3.87541,0.362,-1,4
559,3.87577,0.357,-1,4
560,3.87612,0.353,-1,4
561,3.87647,0.336,-1,4
562,3.87681,0.328,-1,4
563,3.87713,0.328,-1,4
564,3.87746,0.319,-1,4
565,3.87778,0.313,-1,4
566,3.87809,0.303,-1,4
567,3.87869,0.298,-1,4
568,3.87899,0.295,-1,4
569,3.87928,0.290,-1,4
570,3.87956,0.282,-1,4
571,3.87983,0.274,-1,4
572,3.88010,0.268,-1,4
573,3.88037,0.263,-1,4
574,3.88062,0.258,-1,4
575,3.88087,0.251,-1,4
576,3.88112,0.243,-1,4
577,3.88136,0.239,-1,4
578,3.88159,0.235,-1,4
579,3.88182,0.229,-1,4
580,3.88204,0.222,-1,4
581,3.88226,0.215,-1,4
582,3.88247,0.213,-1,4
583,3.88268,0.209,-1,4
584,3.88288,0.203,-1,4
585,3.88308,0.197,-1,4
586,3.88327,0.192,-1,4
587,3.88346,0.189,-1,4
588,3.88364,0.184,-1,4
589,3.88382,0.179,-1,4
590,3.88400,0.172,-1,4
591,3.88416,0.169,-1,4
592,3.88433,0.164,-1,4
593,3.88449,0.159,-1,4
594,3.88464,0.155,-1,4
595,3.88479,0.148,-1,4
596,3.88494,0.145,-1,4
597,3.88508,0.141,-1,4
598,3.88521,0.137,-1,4
599,3.88534,0.130,-1,4
600,3.88547,0.127,-1,4
601,3.88559,0.122,-1,4
602,3.88571,0.120,-1,4
603,3.88583,0.115,-1,4
604,3.88594,0.110,-1,4
605,3.88604,0.107,-1,4
606,3.88615,0.104,-1,4
607,3.88635,0.098,-1,4
608,3.88635,0.094,-1,4
609,3.88644,0.091,-1,4
610,3.88653,0.091,-1,4
611,3.88662,0.087,-1,4
612,3.88671,0.084,-1,4
613,3.88687,0.081,-1,4
614,3.88695,0.077,-1,4
615,3.88703,0.077,-1,4
616,3.88710,0.074,-1,4
617,3.88717,0.070,-1,4
618,3.88724,0.067,-1,4
619,3.88731,0.068,-1,4
620,3.88737,0.065,-1,4
621,3.88743,0.062,-1,4
622,3.88749,0.058,-1,4
623,3.88755,0.057,-1,4
624,3.88760,0.056,-1,4
625,3.88766,0.053,-1,4
626,3.88771,0.051,-1,4
627,3.88776,0.048,-1,4
628,3.88780,0.047,-1,4
629,3.88785,0.046,-1,4
630,3.88789,0.043,-1,4
631,3.88793,0.041,-1,4
632,3.88797,0.039,-1,4
633,3.88801,0.036,-1,4
634,3.88804,0.035,-1,4
635,3.88808,0.034,-1,4
636,3.88811,0.032,-1,4
637,3.88814,0.029,-1,4
638,3.88817,0.028,-1,4
639,3.88819,0.027,-1,4
640,3.88822,0.025,-1,4
641,3.88824,0.023,-1,4
642,3.88826,0.020,-1,4
643,3.88828,0.019,-1,4
644,3.88830,0.018,-1,4
645,3.88831,0.016,-1,4
646,3.88833,0.014,-1,4
647,3.88834,0.013,-1,4
648,3.88835,0.013,-1,4
649,3.88837,0.011,-1,4
650,3.88838,0.010,-1,4
651,3.88838,0.008,-1,4
652,3.88840,0.007,-1,4
653,3.88841,0.006,-1,4
654,3.88841,0.005,-1,4
655,3.88841,0.004,-1,4
656,3.88841,0.004,-1,4
657,3.88842,0.003,-1,4
658,3.88842,0.002,-1,4
659,3.88842,0.002,-1,4
660,3.88843,0.001,-1,4
661,3.88843,0.001,-1,4
662,3.88843,0.001,-1,4
663,3.88843,0.001,-1,4
664,3.88843,0.000,-1,4
665,3.88843,0.000,-1,4
666,3.88843,0.000,-1,4
667,3.88843,0.000,-1,4
668,3.88843,-0.000,-1,4
669,3.88843,0.000,-1,4
670,3.88843,0.000,-1,4
671,3.88843,-0.000,-1,4
672,3.88843,0.000,-1,4
673,3.88843,0.000,-1,4
674,3.88843,0.000,-1,4
675,3.88843,0.000,-1,4
676,3.88843,0.000,-1,4
677,3.88843,0.000,-1,4
678,3.88843,0.000,-1,4
679,3.88843,-0.000,-1,4
680,3.88843,0.000,-1,4
681,3.88843,0.000,-1,4
682,3.88843,-0.000,-1,4
683,3.88843,0.000,-1,4
684,3.88843,-0.000,-1,4
685,3.88843,-0.000,-1,4
686,3.88843,0.000,-1,4
687,3.88843,0.000,-1,4
688,3.88843,-0.000,-1,4
689,3.88843,-0.000,-1,4
690,3.88843,-0.000,-1,4
691,3.88843,-0.000,-1,4
692,3.88843,-0.000,-1,4
693,3.88843,0.000,-1,4
694,3.88843,-0.000,-1,4
695,3.88843,-0.000,-1,4
696,3.88843,0.000,-1,4
697,3.88843,-0.000,-1,4
698,3.88843,-0.000,-1,4
699,3.88843,-0.000,-1,4
700,3.88843,0.000,-1,4
701,3.88843,0.000,-1,4
702,3.88843,-0.000,-1,4
703,3.88843,-0.000,-1,4
704,3.88843,0.000,-1,4
705,3.88843,-0.000,-1,4
706,3.88843,-0.000,-1,4
707,3.88843,0.000,-1,4
708,3.88843,0.000,-1,4
709,3.88843,-0.000,-1,4
710,3.88843,-0.000,-1,4
711,3.88843,0.000,-1,4
712,3.88843,0.000,-1,4
713,3.88843,-0.000,-1,4
714,3.88843,0.000,-1,4
715,3.88843,0.000,-1,4
716,3.88843,0.000,-1,4
717,3.88843,0.000,-1,4
718,3.88843,0.000,-1,4
719,3.88843,0.000,-1,4
720,3.88843,0.000,-1,4
721,3.88843,0.000,-1,4
722,3.88843,0.000,-1,4
723,3.88843,0.000,-1,4
724,3.88843,0.000,-1,4
725,3.88843,0.000,-1,4
726,3.88843,0.000,-1,4
727,3.88843,0.001,-1,4
728,3.88843,0.001,-1,4
729,3.88843,0.001,-1,4
730,3.88843,0.001,-1,4
731,3.88843,0.001,-1,4
732,3.88844,0.001,-1,4
733,3.88844,0.001,-1,4
734,3.88844,0.000,-1,4
735,3.88844,0.000,-1,4
736,3.88844,0.000,-1,4
737,3.88844,-0.000,-1,4
738,3.88844,-0.000,-1,4
739,3.88844,-0.000,-1,4
740,3.88844,-0.000,-1,4
741,3.88844,-0.000,-1,4
742,3.88844,-0.000,-1,4
743,3.88844,0.000,-1,4
744,3.88844,0.000,-1,4
745,3.88844,-0.000,-1,4
746,3.88844,-0.000,-1,4
747,3.88844,0.000,-1,4
748,3.88844,-0.000,-1,4
749,3.88844,-0.000,-1,4
750,3.88844,-0.000,-1,4
751,3.88844,-0.000,-1,4
752,3.88843,-0.000,-1,4
753,3.88843,-0.000,-1,4
754,3.88843,-0.000,-1,4
755,3.88843,-0.000,-1,4
756,3.88843,-0.000,-1,4
757,3.88843,-0.000,-1,4
758,3.88843,-0.000,-1,4
759,3.88843,-0.000,-1,4
760,3.88843,-0.000,-1,4
761,3.88843,-0.000,-1,4
762,3.88843,-0.000,-1,4
763,3.88843,-0.000,-1,4
764,3.88843,-0.000,-1,4
765,3.88843,-0.000,-1,4
766,3.88843,-0.000,-1,4
767,3.88843,-0.000,-1,4
768,3.88843,-0.000,-1,4
769,3.88843,-0.000,-1,4
770,3.88843,-0.000,-1,4
771,3.88843,-0.000,-1,4
772,3.88843,-0.000,-1,4
773,3.88843,-0.001,-1,4
774,3.88843,-0.001,-1,4
775,3.88843,-0.001,-1,4
776,3.88843,-0.001,-1,4
777,3.88843,-0.001,-1,4
778,3.88843,-0.001,-1,4
779,3.88843,-0.001,-1,4
780,3.88842,-0.001,-1,4
781,3.88842,-0.001,-1,4
782,3.88842,-0.001,-1,4
783,3.88842,-0.001,-1,4
784,3.88842,-0.001,-1,4
785,3.88842,-0.001,-1,4
786,3.88842,-0.001,-1,4
787,3.88842,-0.002,-1,4
788,3.88842,-0.001,-1,4
789,3.88841,-0.001,-1,4
790,3.88841,-0.002,-1,4
791,3.88841,-0.002,-1,4
792,3.88841,-0.002,-1,4
793,3.88841,-0.002,-1,4
794,3.88841,-0.002,-1,4
795,3.88840,-0.002,-1,4
796,3.88840,-0.002,-1,4
797,3.88840,-0.002,-1,4
798,3.88840,-0.002,-1,4
799,3.88839,-0.002,-1,4
800,3.88839,-0.002,-1,4
801,3.88839,-0.003,-1,4
802,3.88839,-0.003,-1,4
803,3.88838,-0.002,-1,4
804,3.88838,-0.003,-1,4
805,3.88838,-0.003,-1,4
806,3.88838,-0.003,-1,4
807,3.88837,-0.003,-1,4
808,3.88837,-0.003,-1,4
809,3.88837,-0.003,-1,4
810,3.88836,-0.003,-1,4
811,3.88836,-0.003,-1,4
812,3.88836,-0.003,-1,4
813,3.88835,-0.004,-1,4
814,3.88835,-0.004,-1,4
815,3.88835,-0.004,-1,4
816,3.88834,-0.004,-1,4
817,3.88834,-0.004,-1,4
818,3.88833,-0.005,-1,4
819,3.88833,-0.005,-1,4
820,3.88832,-0.005,-1,4
821,3.88831,-0.005,-1,4
822,3.88831,-0.005,-1,4
823,3.88831,-0.006,-1,4
824,3.88830,-0.006,-1,4
825,3.88830,-0.006,-1,4
826,3.88829,-0.006,-1,4
827,3.88828,-0.006,-1,4
828,3.88827,-0.007,-1,4
829,3.88826,-0.007,-1,4
830,3.88826,-0.007,-1,4
831,3.88825,-0.007,-1,4
832,3.88824,-0.007,-1,4
833,3.88823,-0.008,-1,4
834,3.88823,-0.008,-1,4
835,3.88822,-0.008,-1,4
836,3.88821,-0.008,-1,4
837,3.88820,-0.008,-1,4
838,3.88819,-0.009,-1,4
839,3.88818,-0.008,-1,4
840,3.88818,-0.009,-1,4
841,3.88817,-0.009,-1,4
842,3.88816,-0.009,-1,4
843,3.88815,-0.009,-1,4
844,3.88814,-0.009,-1,4
845,3.88813,-0.009,-1,4
846,3.88812,-0.010,-1,4
847,3.88811,-0.010,-1,4
848,3.88810,-0.010,-1,4
849,3.88809,-0.011,-1,4
850,3.88808,-0.011,-1,4
851,3.88807,-0.011,-1,4
852,3.88806,-0.011,-1,4
853,3.88805,-0.011,-1,4
854,3.88803,-0.012,-1,4
855,3.88802,-0.012,-1,4
856,3.88801,-0.013,-1,4
857,3.88798,-0.013,-1,4
858,3.88797,-0.013,-1,4
859,3.88796,-0.014,-1,4
860,3.88794,-0.015,-1,4
861,3.88793,-0.015,-1,4
862,3.88791,-0.015,-1,4
863,3.88790,-0.015,-1,4
864,3.88788,-0.016,-1,4
865,3.88787,-0.016,-1,4
866,3.88785,-0.017,-1,4
