cnt,pos,speed,Dir,Force,
1,3.11903,2.938,-1,4
2,3.12193,2.899,-1,4
3,3.12484,2.912,-1,4
4,3.12773,2.891,-1,4
5,3.13060,2.873,-1,4
6,3.13342,2.813,-1,4
7,3.13624,2.826,-1,4
8,3.13904,2.800,-1,4
9,3.14182,2.778,-1,4
10,3.14460,2.778,-1,4
11,3.14735,2.748,-1,4
12,3.15007,2.722,-1,4
13,3.15278,2.709,-1,4
14,3.15546,2.684,-1,4
15,3.15811,2.645,-1,4
16,3.16076,2.653,-1,4
17,3.16338,2.614,-1,4
18,3.16599,2.614,-1,4
19,3.16860,2.610,-1,4
20,3.17117,2.571,-1,4
21,3.17371,2.537,-1,4
22,3.17625,2.537,-1,4
23,3.17876,2.481,-1,4
24,3.18370,2.463,-1,4
25,3.18616,2.455,-1,4
26,3.18858,2.425,-1,4
27,3.19100,2.420,-1,4
28,3.19342,2.416,-1,4
29,3.19576,2.343,-1,4
30,3.19812,2.356,-1,4
31,3.20045,2.338,-1,4
32,3.20278,2.321,-1,4
33,3.20509,2.312,-1,4
34,3.20735,2.252,-1,4
35,3.20960,2.252,-1,4
36,3.21183,2.231,-1,4
37,3.21406,2.231,-1,4
38,3.21626,2.200,-1,4
39,3.21846,2.200,-1,4
40,3.22063,2.166,-1,4
41,3.22489,2.123,-1,4
42,3.22699,2.101,-1,4
43,3.22907,2.080,-1,4
44,3.23112,2.058,-1,4
45,3.23318,2.054,-1,4
46,3.23521,2.032,-1,4
47,3.23721,2.002,-1,4
48,3.23920,1.989,-1,4
49,3.24118,1.980,-1,4
50,3.24315,1.972,-1,4
51,3.24507,1.920,-1,4
52,3.24890,1.898,-1,4
53,3.25077,1.872,-1,4
54,3.25264,1.868,-1,4
55,3.25445,1.812,-1,4
56,3.25627,1.821,-1,4
57,3.25807,1.799,-1,4
58,3.25985,1.782,-1,4
59,3.26161,1.756,-1,4
60,3.26336,1.752,-1,4
61,3.26509,1.730,-1,4
62,3.26678,1.696,-1,4
63,3.26846,1.683,-1,4
64,3.27014,1.674,-1,4
65,3.27179,1.648,-1,4
66,3.27341,1.622,-1,4
67,3.27500,1.592,-1,4
68,3.27657,1.570,-1,4
69,3.27814,1.570,-1,4
70,3.27970,1.553,-1,4
71,3.28123,1.532,-1,4
72,3.28275,1.519,-1,4
73,3.28423,1.488,-1,4
74,3.28571,1.475,-1,4
75,3.28717,1.458,-1,4
76,3.28859,1.419,-1,4
77,3.28999,1.406,-1,4
78,3.29140,1.402,-1,4
79,3.29278,1.381,-1,4
80,3.29413,1.355,-1,4
81,3.29548,1.350,-1,4
82,3.29678,1.303,-1,4
83,3.29809,1.307,-1,4
84,3.29938,1.286,-1,4
85,3.30063,1.251,-1,4
86,3.30187,1.238,-1,4
87,3.30309,1.221,-1,4
88,3.30429,1.204,-1,4
89,3.30548,1.191,-1,4
90,3.30779,1.148,-1,4
91,3.30892,1.135,-1,4
92,3.31003,1.109,-1,4
93,3.31113,1.096,-1,4
94,3.31219,1.066,-1,4
95,3.31325,1.053,-1,4
96,3.31428,1.031,-1,4
97,3.31529,1.014,-1,4
98,3.31629,1.001,-1,4
99,3.31822,0.966,-1,4
100,3.31916,0.941,-1,4
101,3.32007,0.906,-1,4
102,3.32096,0.893,-1,4
103,3.32183,0.871,-1,4
104,3.32271,0.876,-1,4
105,3.32355,0.846,-1,4
106,3.32437,0.815,-1,4
107,3.32518,0.807,-1,4
108,3.32596,0.781,-1,4
109,3.32672,0.764,-1,4
110,3.32747,0.746,-1,4
111,3.32819,0.720,-1,4
112,3.32891,0.725,-1,4
113,3.32960,0.690,-1,4
114,3.33028,0.673,-1,4
115,3.33092,0.647,-1,4
116,3.33157,0.647,-1,4
117,3.33219,0.621,-1,4
118,3.33278,0.591,-1,4
119,3.33338,0.600,-1,4
120,3.33393,0.548,-1,4
121,3.33447,0.544,-1,4
122,3.33500,0.522,-1,4
123,3.33551,0.513,-1,4
124,3.33599,0.479,-1,4
125,3.33646,0.475,-1,4
126,3.33690,0.440,-1,4
127,3.33736,0.457,-1,4
128,3.33777,0.406,-1,4
129,3.33815,0.388,-1,4
130,3.33888,0.354,-1,4
131,3.33923,0.345,-1,4
132,3.33956,0.332,-1,4
133,3.33985,0.293,-1,4
134,3.34014,0.289,-1,4
135,3.34041,0.263,-1,4
136,3.34064,0.237,-1,4
137,3.34088,0.233,-1,4
138,3.34110,0.220,-1,4
139,3.34129,0.194,-1,4
140,3.34146,0.155,-1,4
141,3.34175,0.129,-1,4
142,3.34186,0.116,-1,4
143,3.34186,0.099,-1,4
144,3.34196,0.099,-1,4
145,3.34205,0.082,-1,4
146,3.34211,0.060,-1,4
147,3.34215,0.043,-1,4
148,3.34219,0.013,-1,4
149,3.34218,-0.013,-1,4
150,3.34215,-0.026,-1,4
151,3.34211,-0.043,-1,4
152,3.34205,-0.065,-1,4
153,3.34197,-0.078,-1,4
154,3.34187,-0.099,-1,4
155,3.34176,-0.108,-1,4
156,3.34149,-0.142,-1,4
157,3.34133,-0.164,-1,4
158,3.34114,-0.181,-1,4
159,3.34094,-0.203,-1,4
160,3.34072,-0.224,-1,4
161,3.34049,-0.224,-1,4
162,3.34024,-0.255,-1,4
163,3.33998,-0.259,-1,4
164,3.33970,-0.276,-1,4
165,3.33941,-0.293,-1,4
166,3.33909,-0.324,-1,4
167,3.33875,-0.337,-1,4
168,3.33840,-0.345,-1,4
169,3.33805,-0.354,-1,4
170,3.33767,-0.384,-1,4
171,3.33727,-0.397,-1,4
172,3.33684,-0.427,-1,4
173,3.33642,-0.423,-1,4
174,3.33598,-0.444,-1,4
175,3.33552,-0.457,-1,4
176,3.33503,-0.483,-1,4
177,3.33453,-0.500,-1,4
178,3.33403,-0.505,-1,4
179,3.33350,-0.531,-1,4
180,3.33295,-0.548,-1,4
181,3.33239,-0.557,-1,4
182,3.33182,-0.578,-1,4
183,3.33121,-0.604,-1,4
184,3.33060,-0.608,-1,4
185,3.32998,-0.626,-1,4
186,3.32934,-0.634,-1,4
187,3.32867,-0.673,-1,4
188,3.32801,-0.664,-1,4
189,3.32732,-0.686,-1,4
190,3.32661,-0.708,-1,4
191,3.32590,-0.712,-1,4
192,3.32516,-0.746,-1,4
193,3.32439,-0.764,-1,4
194,3.32363,-0.764,-1,4
195,3.32284,-0.820,-1,4
196,3.32121,-0.811,-1,4
197,3.32037,-0.837,-1,4
198,3.31953,-0.846,-1,4
199,3.31867,-0.859,-1,4
200,3.31778,-0.893,-1,4
201,3.31687,-0.910,-1,4
202,3.31596,-0.906,-1,4
203,3.31501,-0.949,-1,4
204,3.31407,-0.945,-1,4
205,3.31310,-0.966,-1,4
206,3.31211,-0.988,-1,4
207,3.31111,-1.001,-1,4
208,3.31010,-1.014,-1,4
209,3.30907,-1.031,-1,4
210,3.30801,-1.057,-1,4
211,3.30695,-1.061,-1,4
212,3.30586,-1.083,-1,4
213,3.30364,-1.135,-1,4
214,3.30253,-1.117,-1,4
215,3.30137,-1.152,-1,4
216,3.30022,-1.152,-1,4
217,3.29904,-1.186,-1,4
218,3.29785,-1.186,-1,4
219,3.29662,-1.225,-1,4
220,3.29541,-1.212,-1,4
221,3.29415,-1.260,-1,4
222,3.29290,-1.251,-1,4
223,3.29162,-1.286,-1,4
224,3.29032,-1.299,-1,4
225,3.28902,-1.299,-1,4
226,3.28770,-1.320,-1,4
227,3.28635,-1.346,-1,4
228,3.28501,-1.342,-1,4
229,3.28363,-1.376,-1,4
230,3.28223,-1.406,-1,4
231,3.28084,-1.389,-1,4
232,3.27941,-1.428,-1,4
233,3.27797,-1.441,-1,4
234,3.27651,-1.458,-1,4
235,3.27506,-1.450,-1,4
236,3.27358,-1.484,-1,4
237,3.27208,-1.497,-1,4
238,3.27056,-1.523,-1,4
239,3.26904,-1.519,-1,4
240,3.26749,-1.553,-1,4
241,3.26592,-1.570,-1,4
242,3.26432,-1.592,-1,4
243,3.26272,-1.601,-1,4
244,3.26112,-1.601,-1,4
245,3.25950,-1.626,-1,4
246,3.25785,-1.644,-1,4
247,3.25452,-1.674,-1,4
248,3.25452,-1.683,-1,4
249,3.25283,-1.683,-1,4
250,3.24939,-1.730,-1,4
251,3.24939,-1.734,-1,4
252,3.24765,-1.752,-1,4
253,3.24412,-1.778,-1,4
254,3.24233,-1.790,-1,4
255,3.24053,-1.803,-1,4
256,3.23870,-1.825,-1,4
257,3.23687,-1.834,-1,4
258,3.23502,-1.847,-1,4
259,3.23316,-1.868,-1,4
260,3.23129,-1.868,-1,4
261,3.22939,-1.903,-1,4
262,3.22747,-1.911,-1,4
263,3.22555,-1.924,-1,4
264,3.22362,-1.933,-1,4
265,3.22165,-1.963,-1,4
266,3.21968,-1.972,-1,4
267,3.21768,-2.006,-1,4
268,3.21567,-2.002,-1,4
269,3.21365,-2.028,-1,4
270,3.21161,-2.054,-1,4
271,3.20750,-2.054,-1,4
272,3.20543,-2.071,-1,4
273,3.20333,-2.101,-1,4
274,3.20122,-2.110,-1,4
275,3.19909,-2.131,-1,4
276,3.19693,-2.157,-1,4
277,3.19476,-2.170,-1,4
278,3.19260,-2.161,-1,4
279,3.19041,-2.183,-1,4
280,3.18821,-2.200,-1,4
281,3.18599,-2.222,-1,4
282,3.18375,-2.243,-1,4
283,3.18150,-2.248,-1,4
284,3.17924,-2.261,-1,4
285,3.17694,-2.300,-1,4
286,3.17465,-2.295,-1,4
287,3.17233,-2.317,-1,4
288,3.17000,-2.325,-1,4
289,3.16764,-2.360,-1,4
290,3.16528,-2.364,-1,4
291,3.16290,-2.382,-1,4
292,3.16050,-2.394,-1,4
293,3.15808,-2.420,-1,4
294,3.15568,-2.407,-1,4
295,3.15323,-2.446,-1,4
296,3.15078,-2.451,-1,4
297,3.14832,-2.463,-1,4
298,3.14583,-2.485,-1,4
299,3.14330,-2.528,-1,4
300,3.14079,-2.511,-1,4
301,3.13826,-2.533,-1,4
302,3.13569,-2.567,-1,4
303,3.13312,-2.567,-1,4
304,3.13055,-2.576,-1,4
305,3.12795,-2.602,-1,4
306,3.12532,-2.632,-1,4
307,3.12268,-2.636,-1,4
308,3.12005,-2.632,-1,4
309,3.11739,-2.662,-1,4
310,3.11471,-2.675,-1,4
311,3.11203,-2.684,-1,4
312,3.10932,-2.709,-1,4
313,3.10657,-2.748,-1,4
314,3.10384,-2.731,-1,4
315,3.10108,-2.757,-1,4
316,3.09829,-2.787,-1,4
317,3.09551,-2.783,-1,4
318,3.09272,-2.796,-1,3
319,3.08990,-2.817,-1,3
320,3.08709,-2.813,-1,3
321,3.08423,-2.852,-1,3
322,3.08137,-2.869,-1,3
323,3.07850,-2.865,-1,3
324,3.07559,-2.912,-1,3
325,3.07271,-2.882,-1,3
326,3.06979,-2.921,-1,3
327,3.06684,-2.947,-1,2
328,3.06389,-2.947,-1,2
329,3.06092,-2.973,-1,2
330,3.05796,-2.964,-1,2
331,3.05497,-2.990,-1,2
332,3.05195,-3.016,-1,2
333,3.04895,-2.998,-1,2
334,3.04591,-3.042,-1,1
335,3.04289,-3.016,-1,1
336,3.03986,-3.037,-1,1
337,3.03679,-3.063,-1,1
338,3.03373,-3.063,-1,1
339,3.03067,-3.059,-1,1
340,3.02761,-3.063,-1,1
341,3.02451,-3.098,-1,1
342,3.02144,-3.072,-1,0
343,3.01834,-3.098,-1,0
344,3.01525,-3.093,-1,0
345,3.01214,-3.106,-1,0
346,3.00904,-3.106,-1,0
347,3.00595,-3.089,-1,0
348,3.00287,-3.076,-1,0
349,2.99978,-3.093,-1,0
350,2.99665,-3.124,-1,0
351,2.99353,-3.128,-1,0
352,2.99042,-3.102,-1,0
353,2.98730,-3.128,-1,0
354,2.98418,-3.115,-1,0
355,2.98106,-3.119,-1,0
356,2.97797,-3.089,-1,0
357,2.97490,-3.072,-1,0
358,2.97181,-3.093,-1,0
359,2.96871,-3.102,-1,0
360,2.96563,-3.076,-1,0
361,2.96255,-3.080,-1,0
362,2.95945,-3.098,-1,0
363,2.95637,-3.085,-1,0
364,2.95330,-3.067,-1,0
365,2.95022,-3.080,-1,0
366,2.94715,-3.072,-1,0
367,2.94408,-3.063,-1,0
368,2.94102,-3.067,-1,0
369,2.93795,-3.063,-1,0
370,2.93487,-3.085,-1,0
371,2.93180,-3.067,-1,0
372,2.92875,-3.055,-1,0
373,2.92567,-3.072,-1,0
374,2.92265,-3.024,-1,0
375,2.91957,-3.076,-1,0
376,2.91653,-3.046,-1,0
377,2.91347,-3.059,-1,0
378,2.91045,-3.020,-1,0
379,2.90740,-3.046,-1,0
380,2.90438,-3.020,-1,0
381,2.90134,-3.042,-1,0
382,2.89832,-3.024,-1,0
383,2.89529,-3.024,-1,0
384,2.89228,-3.016,-1,0
385,2.88928,-2.994,-1,0
386,2.88629,-2.998,-1,0
387,2.88327,-3.016,-1,0
388,2.88027,-2.998,-1,0
389,2.87729,-2.977,-1,0
390,2.87431,-2.981,-1,0
391,2.87132,-2.990,-1,0
392,2.86836,-2.960,-1,0
393,2.86541,-2.955,-1,0
394,2.86245,-2.960,-1,0
395,2.85949,-2.955,-1,0
396,2.85653,-2.964,-1,0
397,2.85359,-2.938,-1,0
398,2.85061,-2.977,-1,0
399,2.84761,-3.007,-1,0
400,2.84454,-3.063,-1,0
401,2.84148,-3.063,-1,0
402,2.83842,-3.059,-1,0
403,2.83539,-3.029,-1,0
404,2.83234,-3.050,-1,0
405,2.82932,-3.020,-1,0
406,2.82630,-3.020,-1,0
407,2.82329,-3.011,-1,0
408,2.82030,-2.990,-1,0
409,2.81731,-2.990,-1,0
410,2.81431,-3.003,-1,0
411,2.81132,-2.990,-1,0
412,2.80832,-3.003,-1,0
413,2.80533,-2.990,-1,0
414,2.80233,-2.998,-1,0
415,2.79931,-3.020,-1,0
416,2.79631,-2.994,-1,0
417,2.79331,-3.007,-1,0
418,2.79033,-2.977,-1,0
419,2.78735,-2.977,-1,0
420,2.78437,-2.986,-1,0
421,2.78138,-2.986,-1,0
422,2.77840,-2.981,-1,0
423,2.77543,-2.968,-1,0
424,2.77246,-2.968,-1,0
425,2.76948,-2.986,-1,0
426,2.76652,-2.960,-1,0
427,2.76354,-2.977,-1,0
428,2.76058,-2.960,-1,0
429,2.75762,-2.960,-1,0
430,2.75465,-2.973,-1,0
431,2.75169,-2.964,-1,0
432,2.74872,-2.968,-1,0
433,2.74575,-2.968,-1,0
434,2.74279,-2.960,-1,0
435,2.73983,-2.960,-1,0
436,2.73688,-2.955,-1,0
437,2.73392,-2.955,-1,0
438,2.73096,-2.960,-1,0
439,2.72801,-2.951,-1,0
440,2.72506,-2.951,-1,0
441,2.72212,-2.942,-1,0
442,2.71919,-2.925,-1,0
443,2.71623,-2.964,-1,0
444,2.71330,-2.929,-1,0
445,2.71036,-2.942,-1,0
446,2.70743,-2.921,-1,0
447,2.70449,-2.947,-1,0
448,2.70157,-2.921,-1,0
449,2.69862,-2.947,-1,0
450,2.69570,-2.921,-1,0
451,2.69276,-2.942,-1,0
452,2.68985,-2.904,-1,0
453,2.68694,-2.916,-1,0
454,2.68400,-2.942,-1,0
455,2.68109,-2.904,-1,0
456,2.67818,-2.916,-1,0
457,2.67526,-2.912,-1,0
458,2.67235,-2.912,-1,0
459,2.66945,-2.899,-1,0
460,2.66655,-2.904,-1,0
461,2.66365,-2.899,-1,0
462,2.66074,-2.912,-1,0
463,2.65786,-2.878,-1,0
464,2.65496,-2.895,-1,0
465,2.65207,-2.891,-1,0
466,2.64920,-2.869,-1,0
467,2.64632,-2.882,-1,0
468,2.64347,-2.852,-1,0
469,2.64062,-2.852,-1,0
470,2.63779,-2.830,-1,0
471,2.63493,-2.860,-1,0
472,2.63212,-2.813,-1,0
473,2.62929,-2.826,-1,0
474,2.62651,-2.778,-1,0
475,2.62370,-2.809,-1,0
476,2.62088,-2.826,-1,0
477,2.61808,-2.796,-1,0
478,2.61528,-2.804,-1,0
479,2.61248,-2.800,-1,0
480,2.60968,-2.796,-1,0
481,2.60692,-2.765,-1,0
482,2.60415,-2.770,-1,0
483,2.60138,-2.765,-1,0
484,2.59861,-2.765,-1,0
485,2.59588,-2.731,-1,0
486,2.59315,-2.735,-1,0
487,2.59041,-2.735,-1,0
488,2.58770,-2.718,-1,0
489,2.58499,-2.709,-1,0
490,2.58229,-2.692,-1,0
491,2.57958,-2.709,-1,0
492,2.57690,-2.684,-1,0
493,2.57423,-2.666,-1,0
494,2.57156,-2.623,-1,0
495,2.56629,-2.640,-1,0
496,2.56629,-2.614,-1,0
497,2.56368,-2.602,-1,0
498,2.56108,-2.614,-1,0
499,2.55586,-2.597,-1,0
500,2.55332,-2.545,-1,0
501,2.55075,-2.571,-1,0
502,2.54821,-2.541,-1,0
503,2.54564,-2.567,-1,0
504,2.54312,-2.524,-1,0
505,2.54059,-2.524,-1,0
506,2.53807,-2.520,-1,0
507,2.53556,-2.515,-1,0
508,2.53303,-2.524,-1,0
509,2.53053,-2.498,-1,0
510,2.52807,-2.468,-1,0
511,2.52560,-2.468,-1,0
512,2.52310,-2.498,-1,0
513,2.52065,-2.455,-1,0
514,2.51820,-2.451,-1,0
515,2.51575,-2.446,-1,0
516,2.51331,-2.442,-1,0
517,2.51087,-2.438,-1,0
518,2.50846,-2.407,-1,0
519,2.50607,-2.394,-1,0
520,2.50368,-2.386,-1,0
521,2.50128,-2.399,-1,0
522,2.49892,-2.364,-1,0
523,2.49654,-2.382,-1,0
524,2.49417,-2.364,-1,0
525,2.49186,-2.317,-1,0
526,2.48953,-2.325,-1,0
527,2.48721,-2.325,-1,0
528,2.48490,-2.308,-1,0
529,2.48259,-2.304,-1,0
530,2.48030,-2.291,-1,0
531,2.47805,-2.252,-1,0
532,2.47579,-2.265,-1,0
533,2.47355,-2.239,-1,0
534,2.47131,-2.239,-1,0
535,2.46908,-2.231,-1,0
536,2.46686,-2.213,-1,0
537,2.46467,-2.196,-1,0
538,2.46249,-2.174,-1,0
539,2.46030,-2.196,-1,0
540,2.45813,-2.166,-1,0
541,2.45599,-2.140,-1,0
542,2.45385,-2.140,-1,0
543,2.45173,-2.123,-1,0
544,2.44961,-2.123,-1,0
545,2.44751,-2.101,-1,0
546,2.44541,-2.092,-1,0
547,2.44334,-2.071,-1,0
548,2.44128,-2.067,-1,0
549,2.43923,-2.045,-1,0
550,2.43719,-2.045,-1,0
551,2.43515,-2.032,-1,0
552,2.43313,-2.028,-1,0
553,2.43111,-2.015,-1,0
554,2.42911,-2.002,-1,0
555,2.42712,-1.989,-1,0
556,2.42514,-1.980,-1,0
557,2.42318,-1.963,-1,0
558,2.42120,-1.976,-1,0
559,2.41924,-1.959,-1,0
560,2.41728,-1.959,-1,0
561,2.41534,-1.941,-1,0
562,2.41341,-1.937,-1,0
563,2.41150,-1.907,-1,0
564,2.40960,-1.903,-1,0
565,2.40769,-1.907,-1,0
566,2.40579,-1.898,-1,0
567,2.40391,-1.885,-1,0
568,2.40204,-1.864,-1,0
569,2.40018,-1.859,-1,0
570,2.39833,-1.855,-1,0
571,2.39647,-1.859,-1,0
572,2.39464,-1.829,-1,0
573,2.39280,-1.834,-1,0
574,2.39097,-1.834,-1,0
575,2.38918,-1.790,-1,0
576,2.38737,-1.812,-1,0
577,2.38558,-1.786,-1,0
578,2.38381,-1.769,-1,0
579,2.38204,-1.778,-1,0
580,2.38028,-1.760,-1,0
581,2.37854,-1.739,-1,0
582,2.37680,-1.739,-1,0
583,2.37506,-1.726,-1,0
584,2.37333,-1.713,-1,0
585,2.37162,-1.713,-1,0
586,2.36822,-1.691,-1,0
587,2.36653,-1.683,-1,0
588,2.36486,-1.678,-1,0
589,2.36319,-1.670,-1,0
590,2.36153,-1.661,-1,0
591,2.35988,-1.648,-1,0
592,2.35825,-1.626,-1,0
593,2.35664,-1.614,-1,0
594,2.35502,-1.622,-1,0
595,2.35340,-1.614,-1,0
596,2.35180,-1.601,-1,0
597,2.35021,-1.592,-1,0
598,2.34862,-1.588,-1,0
599,2.34708,-1.540,-1,0
600,2.34553,-1.553,-1,0
601,2.34399,-1.540,-1,0
602,2.34244,-1.545,-1,0
603,2.34093,-1.514,-1,0
604,2.33941,-1.514,-1,0
605,2.33790,-1.514,-1,0
606,2.33640,-1.501,-1,0
607,2.33492,-1.475,-1,0
608,2.33345,-1.475,-1,0
609,2.33197,-1.480,-1,0
610,2.33053,-1.437,-1,0
611,2.32907,-1.458,-1,0
612,2.32763,-1.441,-1,0
613,2.32623,-1.406,-1,0
614,2.32480,-1.424,-1,0
615,2.32342,-1.381,-1,0
616,2.32202,-1.398,-1,0
617,2.32065,-1.372,-1,0
618,2.31925,-1.398,-1,0
619,2.31789,-1.359,-1,0
620,2.31519,-1.333,-1,0
621,2.31386,-1.333,-1,0
622,2.31253,-1.333,-1,0
623,2.31124,-1.286,-1,0
624,2.30993,-1.316,-1,0
625,2.30865,-1.273,-1,0
626,2.30736,-1.290,-1,0
627,2.30609,-1.273,-1,0
628,2.30482,-1.273,-1,0
629,2.30356,-1.255,-1,0
630,2.30233,-1.230,-1,0
631,2.30109,-1.243,-1,0
632,2.29989,-1.204,-1,0
633,2.29867,-1.212,-1,0
634,2.29745,-1.221,-1,0
635,2.29627,-1.182,-1,0
636,2.29508,-1.195,-1,0
637,2.29390,-1.173,-1,0
638,2.29273,-1.169,-1,0
639,2.29157,-1.161,-1,0
640,2.29043,-1.148,-1,0
641,2.28928,-1.148,-1,0
642,2.28816,-1.122,-1,0
643,2.28704,-1.113,-1,0
644,2.28595,-1.096,-1,0
645,2.28483,-1.113,-1,0
646,2.28374,-1.092,-1,0
647,2.28267,-1.074,-1,0
648,2.28158,-1.092,-1,0
649,2.28052,-1.053,-1,0
650,2.27946,-1.066,-1,0
651,2.27841,-1.044,-1,0
652,2.27736,-1.053,-1,0
653,2.27634,-1.027,-1,0
654,2.27529,-1.044,-1,0
655,2.27428,-1.014,-1,0
656,2.27326,-1.018,-1,0
657,2.27227,-0.992,-1,0
658,2.27126,-1.010,-1,0
659,2.27027,-0.984,-1,0
660,2.26928,-0.992,-1,0
661,2.26829,-0.988,-1,0
662,2.26731,-0.988,-1,0
663,2.26634,-0.962,-1,0
664,2.26538,-0.962,-1,0
665,2.26442,-0.958,-1,0
666,2.26347,-0.958,-1,0
667,2.26252,-0.941,-1,0
668,2.26159,-0.932,-1,0
669,2.26065,-0.941,-1,0
670,2.25971,-0.941,-1,0
671,2.25880,-0.915,-1,0
672,2.25788,-0.915,-1,0
673,2.25698,-0.902,-1,0
674,2.25518,-0.884,-1,0
675,2.25430,-0.884,-1,0
676,2.25339,-0.906,-1,0
677,2.25252,-0.867,-1,0
678,2.25166,-0.867,-1,0
679,2.25076,-0.893,-1,0
680,2.24991,-0.850,-1,0
681,2.24906,-0.854,-1,0
682,2.24821,-0.854,-1,0
683,2.24736,-0.846,-1,0
684,2.24653,-0.828,-1,0
685,2.24571,-0.824,-1,0
686,2.24488,-0.828,-1,0
687,2.24408,-0.802,-1,0
688,2.24327,-0.807,-1,0
689,2.24244,-0.833,-1,0
690,2.24160,-0.837,-1,0
691,2.24078,-0.824,-1,0
692,2.23994,-0.837,-1,0
693,2.23909,-0.854,-1,0
694,2.23824,-0.850,-1,0
695,2.23740,-0.837,-1,0
696,2.23657,-0.833,-1,0
697,2.23572,-0.846,-1,0
698,2.23489,-0.833,-1,0
699,2.23405,-0.833,-1,0
700,2.23325,-0.802,-1,0
701,2.23245,-0.802,-1,0
702,2.23163,-0.820,-1,0
703,2.23084,-0.794,-1,0
704,2.23005,-0.790,-1,0
705,2.22923,-0.820,-1,0
706,2.22844,-0.785,-1,0
707,2.22763,-0.811,-1,0
708,2.22685,-0.781,-1,0
709,2.22606,-0.785,-1,0
710,2.22527,-0.798,-1,0
711,2.22451,-0.759,-1,0
712,2.22373,-0.777,-1,0
713,2.22296,-0.772,-1,0
714,2.22219,-0.764,-1,0
715,2.22141,-0.785,-1,0
716,2.22065,-0.759,-1,0
717,2.21988,-0.768,-1,0
718,2.21912,-0.759,-1,0
719,2.21838,-0.746,-1,0
720,2.21761,-0.768,-1,0
721,2.21686,-0.746,-1,0
722,2.21612,-0.738,-1,0
723,2.21536,-0.759,-1,0
724,2.21463,-0.733,-1,0
725,2.21389,-0.742,-1,0
726,2.21316,-0.733,-1,0
727,2.21244,-0.716,-1,0
728,2.21171,-0.733,-1,0
729,2.21099,-0.716,-1,0
730,2.21028,-0.712,-1,0
731,2.20954,-0.733,-1,0
732,2.20884,-0.708,-1,0
733,2.20812,-0.720,-1,0
734,2.20741,-0.712,-1,0
735,2.20671,-0.699,-1,0
736,2.20599,-0.720,-1,0
737,2.20528,-0.703,-1,0
738,2.20459,-0.695,-1,0
739,2.20388,-0.708,-1,0
740,2.20320,-0.677,-1,0
741,2.20251,-0.690,-1,0
742,2.20181,-0.703,-1,0
743,2.20113,-0.682,-1,0
744,2.20045,-0.682,-1,0
745,2.19976,-0.690,-1,0
746,2.19907,-0.682,-1,0
747,2.19841,-0.664,-1,0
748,2.19772,-0.690,-1,0
749,2.19707,-0.651,-1,0
750,2.19641,-0.660,-1,0
751,2.19574,-0.664,-1,0
752,2.19508,-0.664,-1,0
753,2.19443,-0.651,-1,0
754,2.19376,-0.664,-1,0
755,2.19310,-0.660,-1,0
756,2.19246,-0.639,-1,0
757,2.19180,-0.660,-1,0
758,2.19116,-0.647,-1,0
759,2.19052,-0.634,-1,0
760,2.18989,-0.634,-1,0
761,2.18925,-0.639,-1,0
762,2.18800,-0.613,-1,0
763,2.18800,-0.643,-1,0
764,2.18736,-0.630,-1,0
765,2.18673,-0.630,-1,0
766,2.18610,-0.613,-1,0
767,2.18549,-0.621,-1,0
768,2.18425,-0.617,-1,0
769,2.18365,-0.604,-1,0
770,2.18303,-0.613,-1,0
771,2.18243,-0.608,-1,0
772,2.18183,-0.600,-1,0
773,2.18122,-0.604,-1,0
774,2.18063,-0.591,-1,0
775,2.18004,-0.591,-1,0
776,2.17944,-0.595,-1,0
777,2.17886,-0.582,-1,0
778,2.17828,-0.582,-1,0
779,2.17770,-0.578,-1,0
780,2.17712,-0.582,-1,0
781,2.17655,-0.565,-1,0
782,2.17598,-0.569,-1,0
783,2.17541,-0.569,-1,0
784,2.17485,-0.565,-1,0
785,2.17429,-0.557,-1,0
786,2.17373,-0.561,-1,0
787,2.17318,-0.557,-1,0
788,2.17262,-0.557,-1,0
789,2.17207,-0.552,-1,0
790,2.17154,-0.531,-1,0
791,2.17100,-0.539,-1,0
792,2.17044,-0.552,-1,0
793,2.16991,-0.531,-1,0
794,2.16938,-0.531,-1,0
795,2.16887,-0.513,-1,0
796,2.16834,-0.531,-1,0
797,2.16782,-0.522,-1,0
798,2.16729,-0.522,-1,0
799,2.16679,-0.500,-1,0
800,2.16627,-0.522,-1,0
801,2.16575,-0.518,-1,0
802,2.16525,-0.500,-1,0
803,2.16476,-0.492,-1,0
804,2.16427,-0.492,-1,0
805,2.16377,-0.505,-1,0
806,2.16327,-0.492,-1,0
807,2.16280,-0.479,-1,0
808,2.16232,-0.475,-1,0
809,2.16184,-0.483,-1,0
810,2.16135,-0.483,-1,0
811,2.16089,-0.466,-1,0
812,2.16043,-0.457,-1,0
813,2.15998,-0.449,-1,0
814,2.15952,-0.466,-1,0
815,2.15906,-0.457,-1,0
816,2.15861,-0.440,-1,0
817,2.15817,-0.444,-1,0
818,2.15773,-0.444,-1,0
819,2.15730,-0.431,-1,0
820,2.15688,-0.423,-1,0
821,2.15646,-0.418,-1,0
822,2.15604,-0.418,-1,0
823,2.15562,-0.418,-1,0
824,2.15520,-0.418,-1,0
825,2.15480,-0.406,-1,0
826,2.15440,-0.401,-1,0
827,2.15400,-0.393,-1,0
828,2.15360,-0.401,-1,0
829,2.15321,-0.388,-1,0
830,2.15283,-0.380,-1,0
831,2.15245,-0.384,-1,0
832,2.15207,-0.375,-1,0
833,2.15169,-0.388,-1,0
834,2.15132,-0.367,-1,0
835,2.15095,-0.367,-1,0
836,2.15059,-0.362,-1,0
837,2.15023,-0.358,-1,0
838,2.14989,-0.341,-1,0
839,2.14954,-0.354,-1,0
840,2.14920,-0.332,-1,0
841,2.14886,-0.341,-1,0
842,2.14854,-0.324,-1,0
