cnt,pos,speed,Dir,Force,
1,0,1.001,1,5
2,0.000989914,0.992,1,5
3,0.00197983,0.997,1,5
4,0.00298023,0.992,1,5
5,0.00399017,1.018,1,5
6,0.00500011,1.01,1,5
7,0.00602055,1.014,1,5
8,0.00705051,1.035,1,5
9,0.00808048,1.031,1,5
10,0.00911999,1.04,1,5
11,0.0101604,1.031,1,5
12,0.01122,1.061,1,5
13,0.01227,1.048,1,5
14,0.01334,1.07,1,5
15,0.0144005,1.061,1,5
16,0.0154705,1.079,1,5
17,0.0165405,1.07,1,5
18,0.0176201,1.079,1,5
19,0.0187197,1.096,1,5
20,0.0198002,1.083,1,5
21,0.0209103,1.104,1,5
22,0.0219898,1.113,1,5
23,0.0231104,1.113,1,5
24,0.0241899,1.087,1,5
25,0.0253105,1.117,1,5
26,0.0264397,1.126,1,5
27,0.0275602,1.143,1,5
28,0.0286999,1.117,1,5
29,0.0309801,1.156,1,5
30,0.0321102,1.139,1,5
31,0.0321102,1.148,1,5
32,0.0332603,1.148,1,5
33,0.03442,1.156,1,5
34,0.0355701,1.152,1,5
35,0.0367298,1.161,1,5
36,0.0378799,1.143,1,5
37,0.0390501,1.178,1,5
38,0.0402298,1.182,1,5
39,0.0414,1.165,1,5
40,0.0425997,1.199,1,5
41,0.0437698,1.173,1,5
42,0.0449705,1.199,1,5
43,0.0461597,1.191,1,5
44,0.04737,1.204,1,5
45,0.0485802,1.212,1,5
46,0.0497799,1.199,1,5
47,0.0509996,1.225,1,5
48,0.0522099,1.204,1,5
49,0.0534296,1.221,1,5
50,0.0546598,1.23,1,5
51,0.0558996,1.238,1,5
52,0.0571299,1.234,1,5
53,0.0583601,1.23,1,5
54,0.0595798,1.264,1,5
55,0.0608501,1.264,1,5
56,0.0620899,1.281,1,5
57,0.0633698,1.281,1,5
58,0.06462,1.281,1,5
59,0.0658998,1.281,1,5
60,0.0684299,1.273,1,5
61,0.0697002,1.273,1,5
62,0.0709801,1.277,1,5
63,0.0722599,1.277,1,5
64,0.0735598,1.303,1,5
65,0.0748501,1.294,1,5
66,0.0761404,1.29,1,5
67,0.0774603,1.32,1,5
68,0.0787497,1.29,1,5
69,0.0800705,1.316,1,5
70,0.0813999,1.333,1,5
71,0.0826998,1.294,1,5
72,0.0840197,1.32,1,5
73,0.0853605,1.346,1,5
74,0.0866804,1.32,1,5
75,0.0880404,1.359,1,5
76,0.0893803,1.342,1,5
77,0.0907202,1.342,1,5
78,0.0920897,1.363,1,5
79,0.0934601,1.368,1,5
80,0.0948105,1.35,1,5
81,0.0961704,1.363,1,5
82,0.0975504,1.376,1,5
83,0.0988903,1.346,1,5
84,0.10028,1.385,1,5
85,0.10167,1.398,1,5
86,0.10306,1.389,1,5
87,0.10445,1.385,1,5
88,0.10585,1.398,1,5
89,0.10725,1.406,1,5
90,0.10865,1.398,1,5
91,0.11006,1.406,1,5
92,0.11147,1.411,1,5
93,0.11287,1.398,1,5
94,0.1143,1.432,1,5
95,0.11573,1.428,1,5
96,0.11714,1.411,1,5
97,0.11858,1.441,1,5
98,0.12001,1.428,1,5
99,0.12143,1.419,1,5
100,0.12287,1.445,1,5
101,0.12432,1.45,1,5
102,0.12576,1.437,1,5
103,0.12721,1.454,1,5
104,0.12864,1.424,1,5
105,0.13156,1.45,1,5
106,0.13303,1.467,1,5
107,0.13448,1.454,1,5
108,0.13596,1.475,1,5
109,0.13743,1.471,1,5
110,0.13887,1.445,1,5
111,0.14034,1.471,1,5
112,0.1418,1.454,1,5
113,0.14327,1.471,1,5
114,0.14476,1.488,1,5
115,0.14621,1.45,1,5
116,0.14769,1.484,1,5
117,0.14919,1.497,1,5
118,0.15064,1.454,1,5
119,0.15213,1.488,1,5
120,0.15362,1.493,1,5
121,0.1551,1.48,1,5
122,0.15659,1.484,1,5
123,0.15807,1.484,1,5
124,0.15955,1.48,1,5
125,0.16103,1.475,1,5
126,0.16252,1.493,1,5
127,0.16401,1.493,1,5
128,0.16552,1.51,1,5
129,0.16701,1.484,1,5
130,0.16849,1.484,1,5
131,0.169991,1.497,1,5
132,0.17148,1.493,1,5
133,0.17296,1.475,1,5
134,0.17445,1.493,1,5
135,0.17595,1.501,1,5
136,0.17746,1.506,1,5
137,0.17894,1.488,1,5
138,0.18043,1.484,1,5
139,0.18194,1.51,1,5
140,0.18345,1.51,1,5
141,0.18495,1.501,1,5
142,0.18644,1.488,1,5
143,0.18794,1.506,1,5
144,0.18946,1.514,1,5
145,0.19096,1.501,1,5
146,0.192471,1.51,1,5
147,0.19549,1.506,1,5
148,0.197021,1.532,1,5
149,0.19852,1.497,1,5
150,0.20004,1.523,1,5
151,0.20156,1.519,1,5
152,0.20309,1.527,1,5
153,0.20461,1.519,1,5
154,0.20613,1.523,1,5
155,0.20765,1.523,1,5
156,0.20918,1.527,1,5
157,0.21072,1.536,1,5
158,0.21225,1.532,1,5
159,0.21378,1.536,1,5
160,0.21531,1.527,1,5
161,0.21686,1.549,1,5
162,0.21839,1.536,1,5
163,0.21995,1.557,1,5
164,0.22151,1.562,1,5
165,0.22305,1.54,1,5
166,0.22461,1.553,1,5
167,0.226171,1.562,1,5
168,0.22773,1.562,1,5
169,0.22929,1.557,1,5
170,0.23085,1.562,1,5
171,0.23243,1.579,1,5
172,0.234,1.575,1,5
173,0.2356,1.592,1,5
174,0.23716,1.562,1,5
175,0.23872,1.566,1,5
176,0.24031,1.583,1,5
177,0.24189,1.583,1,5
178,0.24349,1.601,1,5
179,0.2451,1.605,1,5
180,0.24669,1.592,1,5
181,0.2483,1.614,1,5
182,0.24991,1.605,1,5
183,0.25152,1.618,1,5
184,0.25314,1.618,1,5
185,0.25475,1.605,1,5
186,0.256371,1.626,1,5
187,0.25964,1.639,1,5
188,0.26125,1.609,1,5
189,0.26289,1.644,1,5
190,0.26454,1.652,1,5
191,0.26618,1.639,1,5
192,0.26783,1.648,1,5
193,0.26949,1.657,1,5
194,0.27115,1.661,1,5
195,0.27281,1.661,1,5
196,0.27448,1.674,1,5
197,0.27614,1.657,1,5
198,0.27782,1.678,1,5
199,0.27949,1.67,1,5
200,0.28117,1.683,1,5
201,0.28287,1.696,1,5
202,0.28454,1.674,1,5
203,0.286221,1.678,1,5
204,0.28792,1.704,1,5
205,0.28962,1.7,1,5
206,0.29132,1.7,1,5
207,0.29301,1.687,1,5
208,0.29472,1.708,1,5
209,0.29645,1.73,1,5
210,0.29817,1.726,1,5
211,0.2999,1.726,1,5
212,0.30163,1.734,1,5
213,0.30336,1.721,1,5
214,0.30509,1.734,1,5
215,0.30681,1.721,1,5
216,0.30855,1.734,1,5
217,0.31206,1.756,1,5
218,0.31381,1.752,1,5
219,0.31557,1.76,1,5
220,0.31734,1.769,1,5
221,0.3191,1.765,1,5
222,0.32085,1.743,1,5
223,0.3226,1.756,1,5
224,0.32439,1.786,1,5
225,0.32796,1.786,1,5
226,0.329761,1.799,1,5
227,0.33154,1.778,1,5
228,0.33335,1.808,1,5
229,0.33513,1.782,1,5
230,0.33694,1.816,1,5
231,0.33875,1.803,1,5
232,0.34057,1.821,1,5
233,0.34236,1.79,1,5
234,0.34418,1.825,1,5
235,0.34602,1.838,1,5
236,0.34785,1.825,1,5
237,0.34969,1.842,1,5
238,0.351521,1.834,1,5
239,0.35336,1.842,1,5
240,0.35521,1.847,1,5
241,0.35705,1.838,1,5
242,0.35891,1.859,1,5
243,0.36077,1.859,1,5
244,0.36263,1.864,1,5
245,0.3645,1.872,1,5
246,0.36636,1.859,1,5
247,0.36824,1.877,1,5
248,0.37012,1.877,1,5
249,0.37201,1.89,1,5
250,0.3739,1.903,1,5
251,0.3758,1.903,1,5
252,0.37771,1.903,1,5
253,0.37961,1.903,1,5
254,0.38343,1.916,1,5
255,0.38536,1.929,1,5
256,0.3873,1.933,1,5
257,0.38923,1.933,1,5
258,0.39118,1.95,1,5
259,0.39311,1.933,1,5
260,0.39505,1.937,1,5
261,0.397,1.95,1,5
262,0.39896,1.963,1,5
263,0.40091,1.95,1,5
264,0.40289,1.98,1,5
265,0.40485,1.959,1,5
266,0.40683,1.98,1,5
267,0.4088,1.989,1,5
268,0.41079,1.993,1,5
269,0.41278,1.993,1,5
270,0.41477,1.993,1,5
271,0.41678,2.006,1,5
272,0.41878,2.002,1,5
273,0.4208,2.015,1,5
274,0.422791,1.989,1,5
275,0.4248,2.015,1,5
276,0.42681,2.01,1,5
277,0.42883,2.015,1,5
278,0.430861,2.032,1,5
279,0.4329,2.041,1,5
280,0.43492,2.023,1,5
281,0.43697,2.049,1,5
282,0.43901,2.036,1,5
283,0.441051,2.041,1,5
284,0.44308,2.032,1,5
285,0.44515,2.067,1,5
286,0.44721,2.062,1,5
287,0.44927,2.058,1,5
288,0.45132,2.058,1,5
289,0.4534,2.071,1,5
290,0.45545,2.049,1,5
291,0.45752,2.075,1,5
292,0.4596,2.084,1,5
293,0.4617,2.092,1,5
294,0.46377,2.075,1,5
295,0.46586,2.092,1,5
296,0.46796,2.092,1,5
297,0.47004,2.088,1,5
298,0.47213,2.088,1,5
299,0.47633,2.101,1,5
300,0.47843,2.101,1,5
301,0.47843,2.105,1,5
302,0.48054,2.105,1,5
303,0.48266,2.123,1,5
304,0.48477,2.11,1,5
305,0.48688,2.114,1,5
306,0.48901,2.127,1,5
307,0.49114,2.114,1,5
308,0.49537,2.123,1,5
309,0.49748,2.11,1,5
310,0.49961,2.131,1,5
311,0.50174,2.123,1,5
312,0.50386,2.123,1,5
313,0.506001,2.136,1,5
314,0.50813,2.131,1,5
315,0.51025,2.123,1,5
316,0.51238,2.131,1,5
317,0.51452,2.14,1,5
318,0.51666,2.14,1,5
319,0.51879,2.127,1,5
320,0.52091,2.118,1,5
321,0.52303,2.127,1,5
322,0.52516,2.123,1,5
323,0.52729,2.131,1,5
324,0.52942,2.136,1,5
325,0.53155,2.123,1,5
326,0.53368,2.136,1,5
327,0.53582,2.14,1,5
328,0.53794,2.118,1,5
329,0.54006,2.123,1,5
330,0.54221,2.144,1,5
331,0.54433,2.127,1,5
332,0.54647,2.136,1,5
333,0.54859,2.118,1,5
334,0.55072,2.131,1,5
335,0.55286,2.14,1,5
336,0.555,2.14,1,5
337,0.55713,2.136,1,5
338,0.55927,2.136,1,5
339,0.5614,2.14,1,5
340,0.56569,2.149,1,5
341,0.56781,2.118,1,5
342,0.56994,2.131,1,5
343,0.57207,2.136,1,5
344,0.5742,2.127,1,5
345,0.57634,2.14,1,5
346,0.57848,2.14,1,5
347,0.58062,2.144,1,5
348,0.58277,2.144,1,5
349,0.58704,2.144,1,5
350,0.58918,2.14,1,5
351,0.591311,2.123,1,5
352,0.593451,2.144,1,5
353,0.59559,2.14,1,5
354,0.59776,2.166,1,5
355,0.59991,2.153,1,5
356,0.60204,2.131,1,5
357,0.60417,2.127,1,5
358,0.60631,2.144,1,5
359,0.60847,2.157,1,5
360,0.61061,2.136,1,5
361,0.612761,2.157,1,5
362,0.6149,2.14,1,5
363,0.61705,2.153,1,5
364,0.61921,2.157,1,5
365,0.62136,2.153,1,5
366,0.62352,2.153,1,5
367,0.62566,2.144,1,5
368,0.6278,2.14,1,5
369,0.62998,2.174,1,5
370,0.63215,2.17,1,5
371,0.6343,2.149,1,5
372,0.63645,2.157,1,5
373,0.63862,2.166,1,5
374,0.64078,2.161,1,5
375,0.64295,2.174,1,5
376,0.64512,2.161,1,5
377,0.64729,2.179,1,5
378,0.64945,2.153,1,5
379,0.65163,2.183,1,5
380,0.65382,2.192,1,5
381,0.65601,2.187,1,5
382,0.66038,2.192,1,5
383,0.66257,2.187,1,5
384,0.66257,2.2,1,5
385,0.66477,2.205,1,5
386,0.66698,2.205,1,5
387,0.67138,2.2,1,5
388,0.67138,2.218,1,5
389,0.67359,2.209,1,5
390,0.6758,2.2,1,5
391,0.68023,2.231,1,5
392,0.68245,2.218,1,5
393,0.68468,2.231,1,5
394,0.68691,2.226,1,5
395,0.68915,2.243,1,5
396,0.691381,2.226,1,5
397,0.69362,2.239,1,5
398,0.69586,2.248,1,5
399,0.69813,2.269,1,5
400,0.70039,2.252,1,5
401,0.70261,2.222,1,5
402,0.70486,2.248,1,5
403,0.70712,2.265,1,5
404,0.70938,2.256,1,5
405,0.71163,2.252,1,5
406,0.71389,2.265,1,5
407,0.71617,2.274,1,5
408,0.718451,2.278,1,5
409,0.72073,2.287,1,5
410,0.723001,2.269,1,5
411,0.72526,2.261,1,5
412,0.72754,2.282,1,5
413,0.72982,2.278,1,5
414,0.73211,2.282,1,5
415,0.7344,2.295,1,5
416,0.736691,2.291,1,5
417,0.73898,2.287,1,5
418,0.74127,2.291,1,5
419,0.74356,2.295,1,5
420,0.74585,2.291,1,5
421,0.74815,2.3,1,5
422,0.75046,2.304,1,5
423,0.75275,2.291,1,5
424,0.75506,2.312,1,5
425,0.75737,2.291,1,5
426,0.761991,2.33,1,5
427,0.76429,2.3,1,5
428,0.76661,2.312,1,5
429,0.76661,2.321,1,5
430,0.76893,2.321,1,5
431,0.77357,2.325,1,5
432,0.77591,2.338,1,5
433,0.7782,2.295,1,5
434,0.78053,2.325,1,5
435,0.78286,2.334,1,5
436,0.78518,2.321,1,5
437,0.78751,2.33,1,5
438,0.78984,2.325,1,5
439,0.79216,2.321,1,5
440,0.79448,2.321,1,5
441,0.79682,2.343,1,5
442,0.79918,2.356,1,5
443,0.80151,2.325,1,5
444,0.80383,2.33,1,5
445,0.80615,2.312,1,5
446,0.80849,2.343,1,5
447,0.81085,2.356,1,5
448,0.81319,2.347,1,5
449,0.81553,2.334,1,5
450,0.81788,2.351,1,5
451,0.82021,2.334,1,5
452,0.82255,2.334,1,5
453,0.8249,2.351,1,5
454,0.82726,2.364,1,5
455,0.8296,2.343,1,5
456,0.83196,2.36,1,5
457,0.834311,2.347,1,5
458,0.83667,2.356,1,5
459,0.83901,2.347,1,5
460,0.84138,2.369,1,5
461,0.84375,2.364,1,5
462,0.84611,2.36,1,5
463,0.84848,2.377,1,5
464,0.850821,2.338,1,5
465,0.8532,2.373,1,5
466,0.85555,2.356,1,5
467,0.85791,2.36,1,5
468,0.86028,2.369,1,5
469,0.86266,2.382,1,5
470,0.86505,2.39,1,5
471,0.86744,2.39,1,5
472,0.86982,2.382,1,5
473,0.87219,2.369,1,5
474,0.87457,2.377,1,5
475,0.87698,2.412,1,5
476,0.87937,2.39,1,5
477,0.884151,2.399,1,5
478,0.88656,2.403,1,5
479,0.88895,2.394,1,5
480,0.89135,2.399,1,5
481,0.89375,2.403,1,5
482,0.89616,2.407,1,5
483,0.898581,2.42,1,5
484,0.90098,2.403,1,5
485,0.90342,2.438,1,5
486,0.90584,2.416,1,5
487,0.90827,2.433,1,5
488,0.91069,2.416,1,5
489,0.91314,2.451,1,5
490,0.91558,2.438,1,5
491,0.91802,2.446,1,5
492,0.92046,2.438,1,5
493,0.92291,2.451,1,5
494,0.92538,2.472,1,5
495,0.92784,2.459,1,5
496,0.93029,2.451,1,5
497,0.93272,2.433,1,5
498,0.9352,2.472,1,5
499,0.93769,2.489,1,5
500,0.94016,2.476,1,5
501,0.94265,2.489,1,5
502,0.94512,2.468,1,5
503,0.94761,2.494,1,5
504,0.95011,2.498,1,5
505,0.95261,2.494,1,5
506,0.9551,2.498,1,5
507,0.95763,2.528,1,5
508,0.96012,2.485,1,5
509,0.96263,2.511,1,5
510,0.96514,2.511,1,5
511,0.96767,2.528,1,5
512,0.970181,2.515,1,5
513,0.97272,2.541,1,5
514,0.97525,2.528,1,5
515,0.97778,2.524,1,5
516,0.98031,2.524,1,5
517,0.982841,2.533,1,5
518,0.98538,2.541,1,5
519,0.98791,2.533,1,5
520,0.99304,2.558,1,5
521,0.99558,2.541,1,5
522,0.99814,2.558,1,5
523,1.00069,2.554,1,5
524,1.00326,2.567,1,5
525,1.00585,2.589,1,5
526,1.00839,2.545,1,5
527,1.01097,2.576,1,5
528,1.01356,2.589,1,5
529,1.01614,2.58,1,5
530,1.01873,2.589,1,5
531,1.0213,2.571,1,5
532,1.0239,2.602,1,5
533,1.02648,2.584,1,5
534,1.0291,2.614,1,5
535,1.03171,2.614,1,5
536,1.03431,2.597,1,5
537,1.0369,2.593,1,5
538,1.03953,2.627,1,5
539,1.04214,2.61,1,5
540,1.04478,2.636,1,5
541,1.0474,2.627,1,5
542,1.05003,2.623,1,5
543,1.05265,2.623,1,5
544,1.05531,2.658,1,5
545,1.05794,2.632,1,5
546,1.0606,2.658,1,5
547,1.06322,2.627,1,5
548,1.06588,2.653,1,5
549,1.06852,2.64,1,5
550,1.07117,2.653,1,5
551,1.07384,2.671,1,5
552,1.07649,2.645,1,5
553,1.07914,2.653,1,5
554,1.08183,2.688,1,5
555,1.08449,2.666,1,5
556,1.08715,2.684,1,5
557,1.09251,2.679,1,5
558,1.09519,2.684,1,5
559,1.09789,2.701,1,5
560,1.10059,2.692,1,5
561,1.10327,2.679,1,5
562,1.10597,2.705,1,5
563,1.10868,2.705,1,5
564,1.11138,2.705,1,5
565,1.11409,2.705,1,5
566,1.1168,2.714,1,5
567,1.11954,2.74,1,5
568,1.12228,2.735,1,5
569,1.125,2.727,1,5
570,1.12774,2.74,1,5
571,1.13048,2.74,1,5
572,1.13323,2.748,1,5
573,1.13597,2.757,1,5
574,1.13873,2.757,1,5
575,1.1415,2.77,1,5
576,1.14428,2.783,1,5
577,1.14705,2.77,1,5
578,1.14984,2.791,1,5
579,1.15263,2.783,1,5
580,1.1554,2.77,1,5
581,1.15818,2.787,1,5
582,1.16099,2.804,1,5
583,1.1638,2.813,1,5
584,1.1666,2.8,1,5
585,1.1694,2.804,1,5
586,1.1722,2.8,1,5
587,1.17503,2.822,1,5
588,1.17785,2.822,1,5
589,1.18066,2.817,1,5
590,1.18349,2.822,1,5
591,1.18634,2.852,1,5
592,1.18917,2.835,1,5
593,1.192,2.826,1,5
594,1.19485,2.847,1,5
595,1.1977,2.852,1,5
596,1.20053,2.835,1,5
597,1.20624,2.856,1,5
598,1.20911,2.873,1,5
599,1.20911,2.852,1,5
600,1.21483,2.865,1,5
601,1.21483,2.869,1,5
602,1.2206,2.904,1,5
603,1.22349,2.886,1,5
604,1.22638,2.891,1,5
605,1.22927,2.886,1,5
606,1.23216,2.891,1,5
607,1.23506,2.908,1,5
608,1.23798,2.916,1,5
609,1.2409,2.921,1,5
610,1.24379,2.886,1,5
611,1.24674,2.951,1,5
612,1.25257,2.916,1,5
613,1.25554,2.968,1,5
614,1.25846,2.921,1,5
615,1.26139,2.938,1,5
616,1.26435,2.951,1,5
617,1.26728,2.938,1,5
618,1.27022,2.938,1,5
619,1.27317,2.951,1,5
620,1.27615,2.977,1,5
621,1.27909,2.938,1,5
622,1.28205,2.964,1,5
623,1.28502,2.964,1,5
624,1.28798,2.964,1,5
625,1.29093,2.951,1,5
626,1.2939,2.968,1,5
627,1.29688,2.986,1,5
628,1.29986,2.973,1,5
629,1.30283,2.977,1,5
630,1.30579,2.96,1,5
631,1.30879,2.994,1,5
632,1.31176,2.973,1,5
633,1.31476,3.003,1,5
634,1.31773,2.964,1,5
635,1.32072,2.994,1,5
636,1.32371,2.99,1,5
637,1.32669,2.981,1,5
638,1.32969,2.994,1,5
639,1.33269,3.007,1,5
640,1.33568,2.986,1,5
641,1.33868,2.998,1,5
642,1.34168,3.003,1,5
643,1.34466,2.981,1,5
644,1.34766,3.003,1,5
645,1.35068,3.011,1,5
646,1.35368,3.003,1,5
647,1.35967,2.99,1,5
648,1.36268,3.011,1,5
649,1.36569,3.011,1,5
650,1.36871,3.016,1,5
651,1.37168,2.973,1,5
652,1.37471,3.029,1,5
653,1.37771,2.998,1,5
654,1.38073,3.02,1,5
655,1.38373,3.003,1,5
656,1.38675,3.02,1,5
657,1.38975,3.003,1,5
658,1.39278,3.024,1,5
659,1.39579,3.016,1,5
660,1.39881,3.011,1,5
661,1.40183,3.024,1,5
662,1.40486,3.029,1,5
663,1.40788,3.024,1,5
664,1.41092,3.033,1,5
665,1.41394,3.024,1,5
666,1.41695,3.007,1,5
667,1.41998,3.029,1,5
668,1.42301,3.029,1,5
669,1.426,2.994,1,5
670,1.42905,3.05,1,5
671,1.43206,3.016,1,5
672,1.43511,3.046,1,5
673,1.43812,3.007,1,5
674,1.44114,3.024,1,5
675,1.44418,3.042,1,5
676,1.4472,3.02,1,5
677,1.45024,3.033,1,5
678,1.45323,2.99,1,5
679,1.45626,3.033,1,5
680,1.45927,3.007,1,5
681,1.46229,3.02,1,5
682,1.4653,3.011,1,5
683,1.46831,3.016,1,5
684,1.47132,3.011,1,5
685,1.47435,3.02,1,5
686,1.47736,3.011,1,5
687,1.48037,3.016,1,5
688,1.48336,2.986,1,5
689,1.48636,3.007,1,5
690,1.49234,2.99,1,5
691,1.49534,3.007,1,5
692,1.49534,2.973,1,5
693,1.49832,2.973,1,5
694,1.5043,2.977,1,5
695,1.5043,2.998,1,5
696,1.51026,2.964,1,5
697,1.51324,2.986,1,5
698,1.51621,2.968,1,5
699,1.5192,2.986,1,5
700,1.52216,2.964,1,5
701,1.52806,2.942,1,5
702,1.531,2.942,1,5
703,1.53397,2.968,1,5
704,1.53692,2.947,1,5
705,1.53985,2.925,1,5
706,1.54277,2.929,1,5
707,1.54572,2.947,1,5
708,1.54866,2.942,1,5
709,1.55158,2.912,1,5
710,1.55447,2.895,1,5
711,1.55737,2.904,1,5
712,1.56028,2.904,1,5
713,1.5632,2.921,1,5
714,1.56608,2.886,1,5
715,1.56899,2.904,1,5
716,1.57187,2.878,1,5
717,1.57472,2.856,1,5
718,1.57763,2.908,1,5
719,1.58049,2.856,1,5
720,1.58338,2.891,1,5
721,1.5862,2.826,1,5
722,1.58908,2.882,1,5
723,1.59193,2.847,1,5
724,1.59479,2.86,1,5
725,1.59764,2.847,1,5
726,1.60047,2.83,1,5
727,1.60331,2.839,1,5
728,1.60614,2.83,1,5
729,1.60896,2.822,1,5
730,1.61178,2.817,1,5
731,1.61462,2.839,1,5
732,1.61742,2.804,1,5
733,1.62024,2.822,1,5
734,1.62305,2.8,1,5
735,1.62864,2.791,1,5
736,1.63144,2.796,1,5
737,1.63421,2.774,1,5
738,1.637,2.791,1,5
739,1.63977,2.77,1,5
740,1.64252,2.748,1,5
741,1.6453,2.774,1,5
742,1.64805,2.753,1,5
743,1.6508,2.744,1,5
744,1.65354,2.744,1,5
745,1.65626,2.718,1,5
746,1.659,2.744,1,5
747,1.66173,2.731,1,5
748,1.66445,2.714,1,5
749,1.66717,2.722,1,5
750,1.66987,2.696,1,5
751,1.67257,2.701,1,5
752,1.67526,2.696,1,5
753,1.67796,2.701,1,5
754,1.68064,2.675,1,5
755,1.68332,2.679,1,5
756,1.68599,2.675,1,5
757,1.68868,2.684,1,5
758,1.69133,2.649,1,5
759,1.69399,2.666,1,5
760,1.69665,2.658,1,5
761,1.69928,2.632,1,5
762,1.70191,2.632,1,5
763,1.70455,2.64,1,5
764,1.70718,2.627,1,5
765,1.70981,2.627,1,5
766,1.71504,2.614,1,5
767,1.71765,2.61,1,5
768,1.72023,2.576,1,5
769,1.7228,2.571,1,5
770,1.72542,2.619,1,5
771,1.72797,2.554,1,5
772,1.73055,2.576,1,5
773,1.73311,2.567,1,5
774,1.73565,2.537,1,5
775,1.73819,2.541,1,5
776,1.74075,2.528,1,5
777,1.74328,2.528,1,5
778,1.7458,2.52,1,5
779,1.74831,2.511,1,5
780,1.75333,2.498,1,5
781,1.75581,2.485,1,5
782,1.7583,2.485,1,5
783,1.7608,2.502,1,5
784,1.76327,2.472,1,5
785,1.76574,2.472,1,5
786,1.76818,2.442,1,5
787,1.77064,2.455,1,5
788,1.77309,2.451,1,5
789,1.77553,2.438,1,5
790,1.77799,2.459,1,5
791,1.78038,2.39,1,5
792,1.7828,2.42,1,5
793,1.78521,2.416,1,5
794,1.78763,2.42,1,5
795,1.79005,2.416,1,5
796,1.79244,2.39,1,5
797,1.79483,2.386,1,5
798,1.7972,2.377,1,5
799,1.7996,2.394,1,5
800,1.80198,2.386,1,5
801,1.80435,2.369,1,5
802,1.80671,2.356,1,5
803,1.80906,2.351,1,5
804,1.81142,2.36,1,5
805,1.81377,2.351,1,5
806,1.81612,2.351,1,5
807,1.81847,2.347,1,5
808,1.82081,2.343,1,5
809,1.82314,2.334,1,5
810,1.82545,2.304,1,5
811,1.82778,2.334,1,5
812,1.83011,2.33,1,5
813,1.83244,2.33,1,5
814,1.83476,2.317,1,5
815,1.83936,2.3,1,5
816,1.84166,2.3,1,5
817,1.84166,2.295,1,5
818,1.84395,2.304,1,5
819,1.84626,2.304,1,5
820,1.85084,2.3,1,5
821,1.85313,2.287,1,5
822,1.85539,2.256,1,5
823,1.85769,2.304,1,5
824,1.85998,2.291,1,5
825,1.86225,2.265,1,5
826,1.86453,2.287,1,5
827,1.8668,2.269,1,5
828,1.86905,2.248,1,5
829,1.87133,2.278,1,5
830,1.87362,2.295,1,5
831,1.87589,2.269,1,5
832,1.87815,2.261,1,5
833,1.88043,2.274,1,5
834,1.88269,2.261,1,5
835,1.88495,2.261,1,5
836,1.88721,2.261,1,5
837,1.88949,2.287,1,5
838,1.89175,2.252,1,5
839,1.89402,2.278,1,5
840,1.89629,2.269,1,5
841,1.89856,2.269,1,5
842,1.90084,2.278,1,5
843,1.90311,2.269,1,5
844,1.90539,2.278,1,5
845,1.90767,2.282,1,5
846,1.90995,2.278,1,5
847,1.91222,2.274,1,5
848,1.91451,2.287,1,5
849,1.91679,2.282,1,5
850,1.91908,2.291,1,5
851,1.92137,2.291,1,5
852,1.92366,2.287,1,5
853,1.92596,2.304,1,5
854,1.92827,2.308,1,5
855,1.93057,2.3,1,5
856,1.93288,2.312,1,5
857,1.93518,2.3,1,5
858,1.93748,2.3,1,5
859,1.93983,2.343,1,5
860,1.94215,2.325,1,5
861,1.94447,2.321,1,5
862,1.9468,2.33,1,5
863,1.95148,2.338,1,5
864,1.95383,2.351,1,5
865,1.95619,2.364,1,5
866,1.95853,2.338,1,5
867,1.9609,2.364,1,5
868,1.96327,2.369,1,5
869,1.96564,2.377,1,5
870,1.96802,2.382,1,5
871,1.97043,2.407,1,5
872,1.9728,2.373,1,5
873,1.9752,2.399,1,5
874,1.97761,2.407,1,5
875,1.98002,2.412,1,5
876,1.98243,2.412,1,5
877,1.98486,2.425,1,5
878,1.98729,2.433,1,5
879,1.98973,2.433,1,5
880,1.99218,2.455,1,5
881,1.99463,2.455,1,5
882,1.99709,2.459,1,5
883,1.99957,2.476,1,5
884,2.00206,2.489,1,5
885,2.00451,2.455,1,5
886,2.007,2.485,1,5
887,2.00951,2.511,1,5
888,2.01202,2.511,1,5
889,2.01454,2.515,1,5
890,2.01702,2.485,1,5
891,2.01957,2.545,1,5
892,2.02209,2.524,1,5
893,2.02463,2.541,1,5
894,2.02718,2.545,1,5
895,2.02974,2.558,1,5
896,2.03231,2.571,1,5
897,2.03489,2.58,1,5
898,2.03747,2.58,1,5
899,2.04266,2.61,1,5
900,2.04527,2.614,1,5
901,2.04788,2.606,1,5
902,2.0505,2.619,1,5
903,2.0505,2.64,1,5
904,2.05577,2.636,1,5
905,2.05577,2.666,1,5
906,2.05844,2.666,1,5
907,2.0611,2.653,1,5
908,2.06644,2.688,1,5
909,2.06914,2.705,1,5
910,2.07184,2.692,1,5
911,2.07456,2.727,1,5
912,2.07727,2.709,1,5
913,2.07999,2.718,1,5
914,2.08275,2.761,1,5
