cnt,pos,speed,Dir,Force,
1,0,1.01,1,3
2,0.00100899,1.01,1,3
3,0.00302887,1.027,1,3
4,0.00403023,1.001,1,3
5,0.0050602,1.031,1,3
6,0.00605965,0.997,1,3
7,0.00709915,1.04,1,3
8,0.00810051,1.005,1,3
9,0.00914001,1.04,1,3
10,0.0101795,1.031,1,3
11,0.0112305,1.053,1,3
12,0.01227,1.044,1,3
13,0.013319,1.044,1,3
14,0.0143604,1.048,1,3
15,0.01544,1.074,1,3
16,0.016489,1.053,1,3
17,0.0175591,1.074,1,3
18,0.0186291,1.061,1,3
19,0.0196991,1.074,1,3
20,0.0207691,1.066,1,3
21,0.0218391,1.074,1,3
22,0.0229301,1.087,1,3
23,0.0240307,1.096,1,3
24,0.0251102,1.087,1,3
25,0.0262089,1.1,1,3
26,0.0273094,1.096,1,3
27,0.028429,1.117,1,3
28,0.0295296,1.109,1,3
29,0.0306396,1.104,1,3
30,0.0317593,1.117,1,3
31,0.0328999,1.143,1,3
32,0.0340099,1.109,1,3
33,0.0351391,1.13,1,3
34,0.0362797,1.143,1,3
35,0.0374203,1.143,1,3
36,0.038559,1.139,1,3
37,0.0397205,1.161,1,3
38,0.0408707,1.148,1,3
39,0.0420589,1.191,1,3
40,0.0432205,1.156,1,3
41,0.0444107,1.186,1,3
42,0.0455799,1.173,1,3
43,0.0467491,1.169,1,3
44,0.0479393,1.191,1,3
45,0.0491104,1.173,1,3
46,0.0503197,1.212,1,3
47,0.0515289,1.204,1,3
48,0.0527401,1.217,1,3
49,0.0539589,1.212,1,3
50,0.0551701,1.217,1,3
51,0.0564194,1.243,1,3
52,0.0576496,1.23,1,3
53,0.0588799,1.238,1,3
54,0.0601196,1.234,1,3
55,0.0613899,1.268,1,3
56,0.0626507,1.264,1,3
57,0.0639191,1.264,1,3
58,0.0651989,1.286,1,3
59,0.0664692,1.273,1,3
60,0.06777,1.299,1,3
61,0.0690594,1.29,1,3
62,0.0703602,1.299,1,3
63,0.0716896,1.329,1,3
64,0.073019,1.333,1,3
65,0.0743389,1.32,1,3
66,0.0756798,1.342,1,3
67,0.0770397,1.359,1,3
68,0.0783901,1.35,1,3
69,0.0797596,1.372,1,3
70,0.0811291,1.372,1,3
71,0.083889,1.394,1,3
72,0.085289,1.394,1,3
73,0.0867195,1.432,1,3
74,0.0881195,1.402,1,3
75,0.08955,1.432,1,3
76,0.0910091,1.454,1,3
77,0.0924606,1.45,1,3
78,0.0939102,1.454,1,3
79,0.0953789,1.467,1,3
80,0.0968494,1.471,1,3
81,0.0983295,1.48,1,3
82,0.0998306,1.501,1,3
83,0.101339,1.506,1,3
84,0.10285,1.514,1,3
85,0.10437,1.523,1,3
86,0.105919,1.545,1,3
87,0.10747,1.549,1,3
88,0.10903,1.566,1,3
89,0.1106,1.566,1,3
90,0.112181,1.575,1,3
91,0.11376,1.583,1,3
92,0.11536,1.605,1,3
93,0.116989,1.622,1,3
94,0.118589,1.609,1,3
95,0.12022,1.626,1,3
96,0.12187,1.648,1,3
97,0.123499,1.635,1,3
98,0.12516,1.661,1,3
99,0.126841,1.678,1,3
100,0.12851,1.67,1,3
101,0.130199,1.687,1,3
102,0.13191,1.708,1,3
103,0.133619,1.708,1,3
104,0.13534,1.721,1,3
105,0.137051,1.717,1,3
106,0.13879,1.739,1,3
107,0.140539,1.747,1,3
108,0.142309,1.769,1,3
109,0.144079,1.773,1,3
110,0.14587,1.786,1,3
111,0.147659,1.786,1,3
112,0.14945,1.799,1,3
113,0.15127,1.812,1,3
114,0.15494,1.842,1,3
115,0.15679,1.851,1,3
116,0.158649,1.859,1,3
117,0.160521,1.864,1,3
118,0.162399,1.885,1,3
119,0.16428,1.877,1,3
120,0.16618,1.903,1,3
121,0.16811,1.924,1,3
122,0.170031,1.924,1,3
123,0.17198,1.946,1,3
124,0.173929,1.95,1,3
125,0.17588,1.954,1,3
126,0.177839,1.959,1,3
127,0.17984,1.998,1,3
128,0.181839,2.002,1,3
129,0.183859,2.023,1,3
130,0.185869,2.006,1,3
131,0.187901,2.036,1,3
132,0.189949,2.045,1,3
133,0.191999,2.049,1,3
134,0.194069,2.071,1,3
135,0.19614,2.071,1,3
136,0.198231,2.088,1,3
137,0.200319,2.092,1,3
138,0.20244,2.118,1,3
139,0.204569,2.131,1,3
140,0.206709,2.144,1,3
141,0.208879,2.161,1,3
142,0.211029,2.153,1,3
143,0.2132,2.174,1,3
144,0.21538,2.179,1,3
145,0.21756,2.174,1,3
146,0.219759,2.205,1,3
147,0.221979,2.222,1,3
148,0.224199,2.213,1,3
149,0.22644,2.248,1,3
150,0.228701,2.261,1,3
151,0.23093,2.231,1,3
152,0.2332,2.269,1,3
153,0.235479,2.274,1,3
154,0.23777,2.287,1,3
155,0.242371,2.312,1,3
156,0.24468,2.312,1,3
157,0.24468,2.33,1,3
158,0.249359,2.347,1,3
159,0.249359,2.334,1,3
160,0.251699,2.36,1,3
161,0.256451,2.39,1,3
162,0.258841,2.39,1,3
163,0.2612,2.369,1,3
164,0.263609,2.403,1,3
165,0.26601,2.407,1,3
166,0.26844,2.425,1,3
167,0.27087,2.433,1,3
168,0.273331,2.459,1,3
169,0.275789,2.459,1,3
170,0.27825,2.455,1,3
171,0.280729,2.485,1,3
172,0.28322,2.489,1,3
173,0.28574,2.524,1,3
174,0.28825,2.507,1,3
175,0.29077,2.515,1,3
176,0.29331,2.545,1,3
177,0.29587,2.563,1,3
178,0.298439,2.563,1,3
179,0.301001,2.563,1,3
180,0.303579,2.584,1,3
181,0.306179,2.602,1,3
182,0.30879,2.606,1,3
183,0.311409,2.619,1,3
184,0.31403,2.619,1,3
185,0.31669,2.666,1,3
186,0.31934,2.649,1,3
187,0.32201,2.671,1,3
188,0.324709,2.696,1,3
189,0.32741,2.696,1,3
190,0.330099,2.696,1,3
191,0.33279,2.688,1,3
192,0.33551,2.722,1,3
193,0.33824,2.722,1,3
194,0.34375,2.761,1,3
195,0.34375,2.765,1,3
196,0.349279,2.77,1,3
197,0.352049,2.774,1,3
198,0.354849,2.791,1,3
199,0.357679,2.83,1,3
200,0.360489,2.813,1,3
201,0.363319,2.83,1,3
202,0.36614,2.822,1,3
203,0.36899,2.852,1,3
204,0.371861,2.869,1,3
205,0.37472,2.856,1,3
206,0.377609,2.895,1,3
207,0.380489,2.873,1,3
208,0.383379,2.899,1,3
209,0.38632,2.934,1,3
210,0.38924,2.916,1,3
211,0.39217,2.934,1,3
212,0.395121,2.951,1,3
213,0.398069,2.951,1,3
214,0.401051,2.977,1,3
215,0.40402,2.973,1,3
216,0.407021,2.998,1,3
217,0.410019,2.998,1,3
218,0.413031,3.007,1,3
219,0.416059,3.037,1,3
220,0.419081,3.016,1,3
221,0.422119,3.046,1,3
222,0.42518,3.059,1,3
223,0.428249,3.067,1,3
224,0.431311,3.063,1,3
225,0.434389,3.076,1,3
226,0.437479,3.093,1,3
227,0.44058,3.102,1,3
228,0.44372,3.132,1,3
229,0.446819,3.141,1,3
230,0.449961,3.128,1,3
231,0.456261,3.162,1,3
232,0.459419,3.162,1,3
233,0.462601,3.18,1,3
234,0.46578,3.188,1,3
235,0.46899,3.201,1,3
236,0.4722,3.21,1,3
237,0.47542,3.227,1,3
238,0.47863,3.206,1,3
239,0.48189,3.257,1,3
240,0.485119,3.236,1,3
241,0.48839,3.266,1,3
242,0.491671,3.283,1,3
243,0.494949,3.283,1,3
244,0.498249,3.292,1,3
245,0.50153,3.288,1,3
246,0.504839,3.305,1,3
247,0.508169,3.335,1,3
248,0.511509,3.339,1,3
249,0.51483,3.318,1,3
250,0.5182,3.365,1,3
251,0.52157,3.374,1,3
252,0.52494,3.369,1,3
253,0.52833,3.395,1,3
254,0.531731,3.395,1,3
255,0.53513,3.404,1,3
256,0.538559,3.43,1,3
257,0.54199,3.43,1,3
258,0.545441,3.451,1,3
259,0.548889,3.447,1,3
260,0.552361,3.473,1,3
261,0.555809,3.447,1,3
262,0.559299,3.486,1,3
263,0.56282,3.52,1,3
264,0.56632,3.499,1,3
265,0.569839,3.52,1,3
266,0.57337,3.529,1,3
267,0.57692,3.551,1,3
268,0.580469,3.555,1,3
269,0.584049,3.572,1,3
270,0.587601,3.551,1,3
271,0.5912,3.602,1,3
272,0.59479,3.594,1,3
273,0.5984,3.607,1,3
274,0.602011,3.615,1,3
275,0.605629,3.62,1,3
276,0.609289,3.654,1,3
277,0.61294,3.654,1,3
278,0.61659,3.65,1,3
279,0.62026,3.667,1,3
280,0.623949,3.671,1,3
281,0.627621,3.715,1,3
282,0.63133,3.715,1,3
283,0.63504,3.706,1,3
284,0.638781,3.736,1,3
285,0.642509,3.736,1,3
286,0.64624,3.732,1,3
287,0.653759,3.766,1,3
288,0.657539,3.779,1,3
289,0.661329,3.792,1,3
290,0.665119,3.792,1,3
291,0.668921,3.797,1,3
292,0.672739,3.827,1,3
293,0.67658,3.835,1,3
294,0.68041,3.835,1,3
295,0.684259,3.848,1,3
296,0.68812,3.861,1,3
297,0.691999,3.879,1,3
298,0.69586,3.857,1,3
299,0.699749,3.892,1,3
300,0.70363,3.883,1,3
301,0.707541,3.909,1,3
302,0.71146,3.922,1,3
303,0.71537,3.909,1,3
304,0.719311,3.935,1,3
305,0.723259,3.956,1,3
306,0.731171,3.943,1,3
307,0.731171,3.982,1,3
308,0.735149,3.982,1,3
309,0.73914,3.982,1,3
310,0.743111,3.978,1,3
311,0.74715,4.034,1,3
312,0.755209,4.047,1,3
313,0.759239,4.034,1,3
314,0.7633,4.055,1,3
315,0.767361,4.068,1,3
316,0.77146,4.094,1,3
317,0.775549,4.09,1,3
318,0.77965,4.099,1,3
319,0.783739,4.09,1,3
320,0.78787,4.137,1,3
321,0.792019,4.146,1,3
322,0.796141,4.124,1,3
323,0.800301,4.15,1,3
324,0.804449,4.15,1,3
325,0.80863,4.181,1,3
326,0.812799,4.176,1,3
327,0.81699,4.185,1,3
328,0.821199,4.215,1,3
329,0.825409,4.206,1,3
330,0.82962,4.206,1,3
331,0.833849,4.232,1,3
332,0.838089,4.241,1,3
333,0.842319,4.228,1,3
334,0.84659,4.275,1,3
335,0.85088,4.288,1,3
336,0.85516,4.28,1,3
337,0.85947,4.31,1,3
338,0.863791,4.319,1,3
339,0.868099,4.314,1,3
340,0.872429,4.327,1,3
341,0.87678,4.345,1,3
342,0.88114,4.366,1,3
343,0.885509,4.366,1,3
344,0.8899,4.396,1,3
345,0.8943,4.396,1,3
346,0.89871,4.409,1,3
347,0.907549,4.426,1,3
348,0.911989,4.444,1,3
349,0.91642,4.422,1,3
350,0.920879,4.461,1,3
351,0.92536,4.487,1,3
352,0.929819,4.457,1,3
353,0.934309,4.491,1,3
354,0.93882,4.508,1,3
355,0.943329,4.508,1,3
356,0.952379,4.526,1,3
357,0.95694,4.565,1,3
358,0.961491,4.552,1,3
359,0.966061,4.565,1,3
360,0.97064,4.582,1,3
361,0.97522,4.577,1,3
362,0.979811,4.595,1,3
363,0.98439,4.582,1,3
364,0.98901,4.616,1,3
365,0.99365,4.638,1,3
366,0.998249,4.603,1,3
367,1.00288,4.634,1,3
368,1.00754,4.659,1,3
369,1.01219,4.651,1,3
370,1.01684,4.647,1,3
371,1.02152,4.681,1,3
372,1.02621,4.685,1,3
373,1.03091,4.707,1,3
374,1.03562,4.707,1,3
375,1.04033,4.707,1,3
376,1.04507,4.737,1,3
377,1.0498,4.737,1,3
378,1.05454,4.741,1,3
379,1.05931,4.767,1,3
380,1.06407,4.763,1,3
381,1.06885,4.78,1,3
382,1.07366,4.802,1,3
383,1.08325,4.832,1,3
384,1.08325,4.819,1,3
385,1.09289,4.819,1,3
386,1.09289,4.849,1,3
387,1.10257,4.832,1,3
388,1.10746,4.892,1,3
389,1.11233,4.871,1,3
390,1.11722,4.884,1,3
391,1.12212,4.905,1,3
392,1.12702,4.897,1,3
393,1.13194,4.923,1,3
394,1.13687,4.931,1,3
395,1.14182,4.949,1,3
396,1.14679,4.966,1,3
397,1.15171,4.923,1,3
398,1.15669,4.983,1,3
399,1.16167,4.996,1,3
400,1.17167,5,1,3
401,1.17167,5,1,3
402,1.1767,5.035,1,3
403,1.18171,5.009,1,3
404,1.18675,5.039,1,3
405,1.1918,5.048,1,3
406,1.19686,5.065,1,3
407,1.20192,5.052,1,3
408,1.20699,5.078,1,3
409,1.2121,5.104,1,3
410,1.21718,5.125,1,3
411,1.2223,5.125,1,3
412,1.22741,5.108,1,3
413,1.23253,5.121,1,3
414,1.23767,5.138,1,3
415,1.24282,5.147,1,3
416,1.24798,5.169,1,3
417,1.25314,5.156,1,3
418,1.2583,5.156,1,3
419,1.26348,5.181,1,3
420,1.26866,5.181,1,3
421,1.27386,5.194,1,3
422,1.27907,5.212,1,3
423,1.28428,5.216,1,3
424,1.29475,5.233,1,3
425,1.29999,5.238,1,3
426,1.30525,5.259,1,3
427,1.31052,5.268,1,3
428,1.31582,5.302,1,3
429,1.3211,5.285,1,3
430,1.32639,5.289,1,3
431,1.33171,5.32,1,3
432,1.33705,5.341,1,3
433,1.3424,5.35,1,3
434,1.34773,5.328,1,3
435,1.35309,5.363,1,3
436,1.35848,5.389,1,3
437,1.36385,5.367,1,3
438,1.36923,5.384,1,3
439,1.37464,5.406,1,3
440,1.38005,5.406,1,3
441,1.38544,5.397,1,3
442,1.39089,5.436,1,3
443,1.40175,5.432,1,3
444,1.4072,5.44,1,3
445,1.41267,5.475,1,3
446,1.41816,5.488,1,3
447,1.42363,5.475,1,3
448,1.42916,5.522,1,3
449,1.43466,5.505,1,3
450,1.44019,5.527,1,3
451,1.44574,5.553,1,3
452,1.45128,5.54,1,3
453,1.45686,5.583,1,3
454,1.46242,5.561,1,3
455,1.46801,5.591,1,3
456,1.4736,5.587,1,3
457,1.47922,5.622,1,3
458,1.48483,5.609,1,3
459,1.49046,5.626,1,3
460,1.49608,5.622,1,3
461,1.50175,5.669,1,3
462,1.50739,5.643,1,3
463,1.51306,5.665,1,3
464,1.51873,5.673,1,3
465,1.52444,5.708,1,3
466,1.53014,5.704,1,3
467,1.53585,5.712,1,3
468,1.54731,5.747,1,3
469,1.55303,5.716,1,3
470,1.55878,5.747,1,3
471,1.56451,5.734,1,3
472,1.57028,5.773,1,3
473,1.57605,5.764,1,3
474,1.58181,5.768,1,3
475,1.5876,5.79,1,3
476,1.59339,5.79,1,3
477,1.59921,5.811,1,3
478,1.60501,5.833,1,3
479,1.61084,5.833,1,3
480,1.61667,5.846,1,3
481,1.62251,5.846,1,3
482,1.62837,5.859,1,3
483,1.63423,5.893,1,3
484,1.64012,5.863,1,3
485,1.65188,5.898,1,3
486,1.65779,5.906,1,3
487,1.66371,5.924,1,3
488,1.66964,5.932,1,3
489,1.67558,5.932,1,3
490,1.68152,5.941,1,3
491,1.68747,5.949,1,3
492,1.69342,5.958,1,3
493,1.69941,5.988,1,3
494,1.7054,5.984,1,3
495,1.71142,6.027,1,3
496,1.71743,6.006,1,3
497,1.72345,6.018,1,3
498,1.72951,6.066,1,3
499,1.73554,6.023,1,3
500,1.74166,6.118,1,3
501,1.7477,6.044,1,3
502,1.75377,6.07,1,3
503,1.75986,6.088,1,3
504,1.76594,6.083,1,3
505,1.77206,6.118,1,3
506,1.77815,6.096,1,3
507,1.78429,6.135,1,3
508,1.79042,6.131,1,3
509,1.79655,6.126,1,3
510,1.80268,6.131,1,3
511,1.81497,6.157,1,3
512,1.82111,6.139,1,3
513,1.82727,6.157,1,3
514,1.83342,6.148,1,3
515,1.8396,6.187,1,3
516,1.84578,6.174,1,3
517,1.85196,6.187,1,3
518,1.85816,6.195,1,3
519,1.86433,6.174,1,3
520,1.87053,6.208,1,3
521,1.88296,6.226,1,3
522,1.88296,6.239,1,3
523,1.89543,6.234,1,3
524,1.9017,6.269,1,3
525,1.9017,6.286,1,3
526,1.91426,6.273,1,3
527,1.92056,6.295,1,3
528,1.92685,6.295,1,3
529,1.93317,6.32,1,3
530,1.9395,6.325,1,3
531,1.94583,6.333,1,3
532,1.95217,6.342,1,3
533,1.95851,6.342,1,3
534,1.96486,6.351,1,3
535,1.97124,6.372,1,3
536,1.9776,6.368,1,3
537,1.98401,6.407,1,3
538,1.99041,6.394,1,3
539,1.99684,6.437,1,3
540,2.00327,6.424,1,3
541,2.0097,6.433,1,3
542,2.01617,6.471,1,3
543,2.02265,6.476,1,3
544,2.02913,6.484,1,3
545,2.03561,6.476,1,3
546,2.04213,6.519,1,3
547,2.04862,6.497,1,3
548,2.05515,6.532,1,3
549,2.06168,6.523,1,3
550,2.06824,6.562,1,3
551,2.07479,6.549,1,3
552,2.08136,6.566,1,3
553,2.08793,6.575,1,3
554,2.09451,6.575,1,3
555,2.10109,6.588,1,3
556,2.10768,6.588,1,3
557,2.12089,6.588,1,3
558,2.12745,6.562,1,3
559,2.13404,6.592,1,3
560,2.14065,6.61,1,3
561,2.14722,6.571,1,3
562,2.15381,6.588,1,3
563,2.1604,6.592,1,3
564,2.16699,6.592,1,3
565,2.17357,6.571,1,3
566,2.18014,6.571,1,3
567,2.18669,6.549,1,3
568,2.19324,6.553,1,3
569,2.19979,6.549,1,3
570,2.20639,6.601,1,3
571,2.21292,6.528,1,3
572,2.21949,6.571,1,3
573,2.22606,6.575,1,3
574,2.23264,6.575,1,3
575,2.23923,6.592,1,3
576,2.24581,6.579,1,3
577,2.25241,6.601,1,3
578,2.25901,6.601,1,3
579,2.26565,6.635,1,3
580,2.27226,6.61,1,3
581,2.27893,6.679,1,3
582,2.28559,6.653,1,3
583,2.29225,6.661,1,3
584,2.29893,6.683,1,3
585,2.30563,6.696,1,3
586,2.31233,6.704,1,3
587,2.31902,6.692,1,3
588,2.32574,6.717,1,3
589,2.33245,6.704,1,3
590,2.3392,6.756,1,3
591,2.34592,6.722,1,3
592,2.35944,6.752,1,3
593,2.36621,6.765,1,3
594,2.373,6.791,1,3
595,2.3798,6.795,1,3
596,2.38657,6.778,1,3
597,2.39339,6.812,1,3
598,2.40018,6.795,1,3
599,2.40701,6.83,1,3
600,2.41382,6.812,1,3
601,2.42067,6.847,1,3
602,2.4275,6.83,1,3
603,2.43434,6.838,1,3
604,2.44117,6.834,1,3
605,2.44802,6.851,1,3
606,2.45489,6.868,1,3
607,2.46174,6.851,1,3
608,2.46862,6.877,1,3
609,2.47552,6.903,1,3
610,2.48932,6.924,1,3
611,2.4962,6.877,1,3
612,2.50311,6.912,1,3
613,2.50311,6.929,1,3
614,2.51004,6.929,1,3
615,2.51696,6.92,1,3
616,2.52388,6.924,1,3
617,2.53081,6.924,1,3
618,2.53773,6.924,1,3
619,2.54469,6.955,1,3
620,2.55164,6.95,1,3
621,2.5656,6.989,1,3
622,2.5726,7.006,1,3
623,2.5726,7.019,1,3
624,2.57962,7.019,1,3
625,2.58666,7.041,1,3
626,2.59368,7.019,1,3
627,2.60073,7.05,1,3
628,2.60781,7.045,1,3
629,2.62195,7.097,1,3
630,2.62195,7.071,1,3
631,2.63612,7.101,1,3
632,2.63612,7.106,1,3
633,2.65037,7.14,1,3
634,2.65752,7.153,1,3
635,2.66466,7.136,1,3
636,2.6718,7.149,1,3
637,2.67897,7.166,1,3
638,2.68615,7.175,1,3
639,2.69331,7.162,1,3
640,2.70047,7.166,1,3
641,2.70767,7.192,1,3
642,2.71485,7.183,1,3
643,2.72205,7.196,1,3
644,2.72928,7.231,1,3
645,2.73648,7.209,1,3
646,2.74373,7.239,1,3
647,2.75096,7.239,1,3
648,2.75823,7.265,1,3
649,2.76548,7.248,1,3
650,2.77276,7.283,1,3
651,2.78731,7.291,1,3
652,2.79461,7.3,1,3
653,2.80192,7.313,1,3
654,2.80926,7.334,1,3
655,2.8166,7.347,1,3
656,2.82394,7.334,1,3
657,2.8313,7.369,1,3
658,2.83868,7.377,1,3
659,2.84609,7.403,1,3
660,2.85348,7.39,1,3
661,2.8609,7.421,1,3
662,2.8683,7.399,1,3
663,2.87574,7.447,1,3
664,2.88317,7.429,1,3
665,2.89064,7.464,1,3
666,2.89808,7.442,1,3
667,2.90557,7.494,1,3
668,2.91304,7.468,1,3
669,2.92053,7.49,1,3
670,2.92801,7.481,1,3
671,2.93552,7.507,1,3
672,2.94303,7.516,1,3
673,2.95055,7.52,1,3
674,2.95808,7.524,1,3
675,2.9656,7.524,1,3
676,2.97316,7.554,1,3
677,2.98069,7.537,1,3
678,2.98827,7.576,1,3
679,2.99582,7.554,1,3
680,3.0034,7.576,1,3
681,3.01101,7.606,1,3
682,3.01861,7.606,1,3
683,3.02624,7.623,1,3
684,3.03387,7.632,1,3
685,3.04919,7.649,1,3
686,3.04919,7.662,1,3
687,3.05685,7.649,1,3
688,3.0645,7.649,1,3
689,3.07218,7.684,1,3
690,3.07987,7.684,1,3
691,3.08759,7.701,1,3
692,3.103,7.705,1,3
693,3.11073,7.727,1,3
694,3.11846,7.736,1,3
695,3.12623,7.766,1,3
696,3.134,7.774,1,3
697,3.14177,7.766,1,3
698,3.14959,7.822,1,3
699,3.15741,7.822,1,3
700,3.16524,7.826,1,3
701,3.17307,7.83,1,3
702,3.1809,7.83,1,3
703,3.18879,7.887,1,3
704,3.19664,7.852,1,3
705,3.20451,7.874,1,3
706,3.21241,7.9,1,3
707,3.2203,7.891,1,3
708,3.22824,7.934,1,3
709,3.23614,7.908,1,3
710,3.24409,7.947,1,3
711,3.25201,7.921,1,3
712,3.25996,7.951,1,3
713,3.2679,7.938,1,3
714,3.27584,7.943,1,3
715,3.28378,7.934,1,3
716,3.29176,7.977,1,3
717,3.29972,7.964,1,3
718,3.30771,7.99,1,3
719,3.3157,7.986,1,3
720,3.32372,8.025,1,3
721,3.33172,7.999,1,3
722,3.33973,8.012,1,3
723,3.34777,8.042,1,3
724,3.35581,8.033,1,3
725,3.36386,8.051,1,3
726,3.38,8.081,1,3
727,3.38809,8.085,1,3
728,3.3962,8.115,1,3
729,3.40432,8.115,1,3
730,3.41246,8.145,1,3
731,3.42057,8.111,1,3
732,3.42876,8.184,1,3
733,3.43694,8.184,1,3
734,3.44511,8.171,1,3
735,3.45329,8.176,1,3
736,3.46148,8.189,1,3
737,3.46969,8.21,1,3
738,3.47783,8.145,1,3
739,3.48607,8.232,1,3
740,3.49426,8.202,1,3
741,3.51076,8.24,1,3
742,3.51899,8.227,1,3
743,3.52724,8.249,1,3
744,3.53549,8.253,1,3
745,3.54375,8.262,1,3
746,3.55205,8.296,1,3
747,3.56032,8.266,1,3
748,3.56861,8.292,1,3
749,3.57694,8.331,1,3
750,3.58526,8.322,1,3
751,3.59359,8.331,1,3
752,3.60197,8.374,1,3
753,3.61032,8.348,1,3
754,3.61871,8.396,1,3
755,3.62708,8.365,1,3
756,3.63548,8.4,1,3
757,3.64387,8.391,1,3
758,3.65227,8.404,1,3
759,3.66064,8.37,1,3
760,3.66907,8.426,1,3
761,3.67751,8.439,1,3
762,3.68595,8.439,1,3
763,3.69442,8.473,1,3
764,3.70287,8.447,1,3
765,3.71138,8.512,1,3
766,3.7199,8.516,1,3
767,3.7284,8.504,1,3
768,3.73693,8.525,1,3
769,3.74547,8.542,1,3
770,3.75405,8.581,1,3
771,3.76259,8.547,1,3
772,3.77116,8.568,1,3
773,3.77974,8.573,1,3
774,3.78836,8.62,1,3
775,3.79696,8.603,1,3
776,3.80558,8.624,1,3
777,3.81418,8.598,1,3
778,3.82282,8.637,1,3
779,3.83143,8.611,1,3
780,3.84869,8.633,1,3
781,3.84869,8.663,1,3
782,3.86598,8.633,1,3
783,3.86598,8.659,1,3
784,3.88333,8.685,1,3
785,3.88333,8.667,1,3
786,3.9007,8.706,1,3
787,3.90938,8.676,1,3
788,3.91809,8.711,1,3
789,3.92681,8.724,1,3
790,3.93556,8.745,1,3
791,3.94428,8.728,1,3
792,3.95302,8.741,1,3
793,3.96182,8.793,1,3
794,3.9706,8.78,1,3
795,3.9794,8.801,1,3
796,3.9882,8.806,1,3
797,3.99703,8.827,1,3
798,4.00588,8.853,1,3
799,4.01471,8.827,1,3
800,4.02356,8.853,1,3
801,4.03242,8.853,1,3
802,4.04127,8.849,1,3
803,4.05015,8.888,1,3
804,4.05901,8.853,1,3
805,4.06791,8.905,1,3
806,4.0768,8.892,1,3
807,4.0857,8.896,1,3
808,4.0946,8.896,1,3
809,4.10351,8.913,1,3
810,4.11242,8.913,1,3
811,4.12136,8.944,1,3
812,4.1303,8.935,1,3
813,4.13925,8.948,1,3
814,4.14821,8.965,1,3
815,4.15717,8.961,1,3
816,4.16619,9.017,1,3
817,4.17517,8.982,1,3
818,4.18421,9.039,1,3
819,4.19322,9.013,1,3
820,4.20224,9.017,1,3
821,4.21127,9.026,1,3
822,4.22032,9.051,1,3
823,4.22937,9.047,1,3
824,4.23842,9.056,1,3
825,4.24749,9.064,1,3
826,4.25657,9.086,1,3
827,4.26566,9.086,1,3
828,4.27477,9.112,1,3
829,4.28393,9.108,1,3
830,4.29304,9.159,1,3
831,4.30219,9.155,1,3
832,4.31135,9.155,1,3
833,4.32054,9.185,1,3
834,4.32969,9.155,1,3
835,4.33888,9.194,1,3
836,4.35732,9.215,1,3
837,4.36653,9.211,1,3
838,4.37576,9.228,1,3
839,4.38497,9.215,1,3
840,4.39421,9.241,1,3
841,4.40345,9.241,1,3
842,4.41265,9.224,1,3
843,4.42187,9.224,1,3
844,4.43112,9.25,1,3
845,4.44037,9.246,1,3
846,4.44964,9.271,1,3
847,4.45888,9.241,1,3
848,4.46818,9.241,1,3
849,4.47742,9.241,1,3
850,4.48671,9.284,1,3
851,4.49601,9.306,1,3
852,4.50532,9.306,1,3
853,4.51465,9.332,1,3
854,4.52397,9.323,1,3
855,4.5333,9.332,1,3
856,4.54268,9.375,1,3
857,4.55202,9.341,1,3
858,4.56142,9.401,1,3
859,4.57082,9.397,1,3
860,4.58021,9.388,1,3
861,4.58962,9.418,1,3
862,4.59902,9.392,1,3
863,4.60841,9.392,1,3
864,4.61785,9.44,1,3
865,4.62724,9.388,1,3
866,4.63666,9.427,1,3
867,4.64609,9.431,1,3
868,4.65552,9.427,1,3
869,4.66496,9.444,1,3
870,4.6744,9.431,1,3
871,4.68387,9.474,1,3
872,4.6933,9.431,1,3
873,4.70276,9.453,1,3
874,4.71225,9.492,1,3
875,4.72172,9.47,1,3
876,4.73124,9.526,1,3
877,4.74073,9.492,1,3
878,4.75029,9.552,1,3
879,4.76931,9.509,1,3
880,4.77884,9.535,1,3
881,4.78836,9.517,1,3
882,4.79791,9.552,1,3
883,4.80745,9.539,1,3
884,4.81699,9.543,1,3
885,4.82658,9.582,1,3
886,4.83614,9.561,1,3
887,4.84574,9.608,1,3
888,4.85534,9.595,1,3
889,4.86494,9.604,1,3
890,4.87458,9.634,1,3
891,4.8842,9.625,1,3
892,4.89383,9.647,1,3
893,4.91312,9.647,1,3
894,4.92279,9.673,1,3
895,4.93246,9.664,1,3
896,4.94213,9.677,1,3
897,4.9518,9.668,1,3
898,4.96145,9.647,1,3
899,4.9711,9.655,1,3
900,4.98076,9.655,1,3
901,4.99045,9.69,1,3
902,5.00011,9.66,1,3
903,5.00976,9.651,1,3
904,5.01945,9.69,1,3
905,5.02912,9.673,1,3
906,5.03881,9.681,1,3
