cnt,pos,speed,Dir,Force,
1,3.21106,2.740,-1,5
2,3.21380,2.740,-1,5
3,3.21654,2.735,-1,5
4,3.21932,2.787,-1,5
5,3.22208,2.761,-1,5
6,3.22484,2.761,-1,5
7,3.22760,2.761,-1,5
8,3.23037,2.765,-1,5
9,3.23312,2.748,-1,5
10,3.23865,2.783,-1,5
11,3.24138,2.731,-1,5
12,3.24413,2.748,-1,5
13,3.24413,2.783,-1,5
14,3.24967,2.753,-1,5
15,3.25242,2.753,-1,5
16,3.25517,2.748,-1,5
17,3.25789,2.727,-1,5
18,3.26069,2.791,-1,5
19,3.26343,2.740,-1,5
20,3.26617,2.748,-1,5
21,3.26893,2.753,-1,5
22,3.27166,2.735,-1,5
23,3.27439,2.731,-1,5
24,3.27716,2.770,-1,5
25,3.27990,2.727,-1,5
26,3.28535,2.722,-1,5
27,3.28809,2.740,-1,5
28,3.29084,2.753,-1,5
29,3.29358,2.744,-1,5
30,3.29633,2.748,-1,5
31,3.29907,2.740,-1,5
32,3.30179,2.718,-1,5
33,3.30452,2.731,-1,5
34,3.30727,2.748,-1,5
35,3.31000,2.731,-1,5
36,3.31274,2.740,-1,5
37,3.31547,2.731,-1,5
38,3.31820,2.735,-1,5
39,3.32094,2.740,-1,5
40,3.32370,2.753,-1,5
41,3.32642,2.727,-1,5
42,3.32916,2.727,-1,5
43,3.33189,2.727,-1,5
44,3.33463,2.744,-1,5
45,3.33739,2.757,-1,5
46,3.34013,2.735,-1,5
47,3.34562,2.753,-1,5
48,3.34834,2.727,-1,5
49,3.35107,2.727,-1,5
50,3.35380,2.731,-1,5
51,3.35655,2.748,-1,5
52,3.35929,2.740,-1,5
53,3.36204,2.753,-1,5
54,3.36478,2.735,-1,5
55,3.36752,2.740,-1,5
56,3.37027,2.735,-1,5
57,3.37301,2.735,-1,5
58,3.37848,2.740,-1,5
59,3.37848,2.740,-1,5
60,3.38122,2.740,-1,5
61,3.38396,2.740,-1,5
62,3.38670,2.761,-1,5
63,3.39219,2.731,-1,5
64,3.39491,2.722,-1,5
65,3.39764,2.727,-1,5
66,3.40038,2.735,-1,5
67,3.40313,2.757,-1,5
68,3.40587,2.740,-1,5
69,3.40860,2.731,-1,5
70,3.41136,2.757,-1,5
71,3.41409,2.731,-1,5
72,3.41683,2.740,-1,5
73,3.41957,2.744,-1,5
74,3.42231,2.735,-1,5
75,3.42504,2.731,-1,5
76,3.42778,2.735,-1,5
77,3.43053,2.757,-1,5
78,3.43326,2.731,-1,5
79,3.43873,2.735,-1,5
80,3.44145,2.714,-1,5
81,3.44417,2.722,-1,5
82,3.44689,2.718,-1,5
83,3.44960,2.714,-1,5
84,3.45230,2.701,-1,5
85,3.45503,2.727,-1,5
86,3.45774,2.709,-1,5
87,3.46046,2.718,-1,5
88,3.46314,2.705,-1,5
89,3.46853,2.688,-1,5
90,3.46853,2.714,-1,5
91,3.47394,2.692,-1,5
92,3.47660,2.658,-1,5
93,3.47931,2.709,-1,5
94,3.48198,2.679,-1,5
95,3.48466,2.671,-1,5
96,3.48733,2.671,-1,5
97,3.49001,2.688,-1,5
98,3.49267,2.653,-1,5
99,3.49532,2.653,-1,5
100,3.49797,2.653,-1,5
101,3.50063,2.658,-1,5
102,3.50331,2.675,-1,5
103,3.50596,2.653,-1,5
104,3.50860,2.636,-1,5
105,3.51124,2.636,-1,5
106,3.51388,2.649,-1,5
107,3.51915,2.623,-1,5
108,3.52178,2.623,-1,5
109,3.52439,2.610,-1,5
110,3.52702,2.632,-1,5
111,3.52964,2.623,-1,5
112,3.53224,2.602,-1,5
113,3.53485,2.610,-1,5
114,3.53746,2.606,-1,5
115,3.54004,2.580,-1,5
116,3.54523,2.602,-1,5
117,3.54523,2.580,-1,5
118,3.55038,2.576,-1,5
119,3.55295,2.563,-1,5
120,3.55552,2.576,-1,5
121,3.55808,2.554,-1,5
122,3.56061,2.537,-1,5
123,3.56316,2.550,-1,5
124,3.56570,2.533,-1,5
125,3.56823,2.537,-1,5
126,3.57076,2.528,-1,5
127,3.57328,2.524,-1,5
128,3.57581,2.528,-1,5
129,3.57832,2.511,-1,5
130,3.58082,2.498,-1,5
131,3.58583,2.502,-1,5
132,3.58830,2.476,-1,5
133,3.59079,2.489,-1,5
134,3.59079,2.468,-1,5
135,3.59326,2.476,-1,5
136,3.59574,2.476,-1,5
137,3.60065,2.451,-1,5
138,3.60311,2.459,-1,5
139,3.60556,2.451,-1,5
140,3.60801,2.451,-1,5
141,3.61044,2.420,-1,5
142,3.61285,2.416,-1,5
143,3.61528,2.425,-1,5
144,3.61770,2.425,-1,5
145,3.62012,2.420,-1,5
146,3.62253,2.412,-1,5
147,3.62492,2.390,-1,5
148,3.62731,2.386,-1,5
149,3.62969,2.377,-1,5
150,3.63206,2.377,-1,5
151,3.63444,2.377,-1,5
152,3.63680,2.356,-1,5
153,3.64149,2.343,-1,5
154,3.64386,2.364,-1,5
155,3.64621,2.351,-1,5
156,3.64854,2.330,-1,5
157,3.65086,2.325,-1,5
158,3.65318,2.317,-1,5
159,3.65549,2.304,-1,5
160,3.65779,2.304,-1,5
161,3.66008,2.291,-1,5
162,3.66235,2.274,-1,5
163,3.66463,2.274,-1,5
164,3.66691,2.282,-1,5
165,3.66917,2.265,-1,5
166,3.67143,2.256,-1,5
167,3.67368,2.248,-1,5
168,3.67593,2.252,-1,5
169,3.67815,2.218,-1,5
170,3.68036,2.209,-1,5
171,3.68257,2.218,-1,5
172,3.68477,2.196,-1,5
173,3.68698,2.213,-1,5
174,3.68917,2.187,-1,5
175,3.69134,2.170,-1,5
176,3.69351,2.166,-1,5
177,3.69567,2.166,-1,5
178,3.69999,2.153,-1,5
179,3.70212,2.131,-1,5
180,3.70424,2.118,-1,5
181,3.70636,2.114,-1,5
182,3.70847,2.114,-1,5
183,3.71057,2.105,-1,5
184,3.71267,2.092,-1,5
185,3.71474,2.071,-1,5
186,3.71683,2.088,-1,5
187,3.71890,2.071,-1,5
188,3.72095,2.049,-1,5
189,3.72299,2.045,-1,5
190,3.72501,2.015,-1,5
191,3.72703,2.023,-1,5
192,3.73103,1.985,-1,5
193,3.73302,1.989,-1,5
194,3.73500,1.980,-1,5
195,3.73698,1.976,-1,5
196,3.73895,1.967,-1,5
197,3.74090,1.950,-1,5
198,3.74284,1.946,-1,5
199,3.74477,1.924,-1,5
200,3.74667,1.907,-1,5
201,3.74858,1.907,-1,5
202,3.75047,1.894,-1,5
203,3.75237,1.894,-1,5
204,3.75424,1.877,-1,5
205,3.75612,1.872,-1,5
206,3.75978,1.812,-1,5
207,3.76160,1.825,-1,5
208,3.76343,1.829,-1,5
209,3.76524,1.812,-1,5
210,3.76703,1.786,-1,5
211,3.76882,1.795,-1,5
212,3.77060,1.782,-1,5
213,3.77233,1.726,-1,5
214,3.77409,1.765,-1,5
215,3.77582,1.730,-1,5
216,3.77755,1.730,-1,5
217,3.77924,1.687,-1,5
218,3.78094,1.700,-1,5
219,3.78264,1.700,-1,5
220,3.78429,1.652,-1,5
221,3.78762,1.652,-1,5
222,3.78926,1.635,-1,5
223,3.79087,1.609,-1,5
224,3.79248,1.614,-1,5
225,3.79407,1.592,-1,5
226,3.79567,1.592,-1,5
227,3.79722,1.553,-1,5
228,3.79877,1.549,-1,5
229,3.80031,1.545,-1,5
230,3.80185,1.536,-1,5
231,3.80334,1.488,-1,5
232,3.80484,1.506,-1,5
233,3.80632,1.475,-1,5
234,3.80779,1.467,-1,5
235,3.80923,1.450,-1,5
236,3.81069,1.454,-1,5
237,3.81213,1.441,-1,5
238,3.81493,1.406,-1,5
239,3.81493,1.389,-1,5
240,3.81632,1.389,-1,5
241,3.81903,1.342,-1,5
242,3.81903,1.346,-1,5
243,3.82169,1.312,-1,5
244,3.82299,1.303,-1,5
245,3.82429,1.303,-1,5
246,3.82557,1.281,-1,5
247,3.82683,1.260,-1,5
248,3.82811,1.273,-1,5
249,3.82932,1.217,-1,5
250,3.83055,1.230,-1,5
251,3.83176,1.208,-1,5
252,3.83295,1.186,-1,5
253,3.83412,1.169,-1,5
254,3.83525,1.139,-1,5
255,3.83640,1.148,-1,5
256,3.83752,1.117,-1,5
257,3.83863,1.113,-1,5
258,3.83971,1.079,-1,5
259,3.84080,1.092,-1,5
260,3.84186,1.061,-1,5
261,3.84291,1.044,-1,5
262,3.84393,1.022,-1,5
263,3.84496,1.027,-1,5
264,3.84595,0.984,-1,5
265,3.84693,0.984,-1,5
266,3.84789,0.936,-1,5
267,3.84977,0.941,-1,5
268,3.85067,0.906,-1,5
269,3.85158,0.910,-1,5
270,3.85247,0.884,-1,5
271,3.85334,0.867,-1,5
272,3.85419,0.859,-1,5
273,3.85504,0.846,-1,5
274,3.85585,0.807,-1,5
275,3.85666,0.811,-1,5
276,3.85745,0.790,-1,5
277,3.85820,0.755,-1,5
278,3.85894,0.742,-1,5
279,3.85967,0.729,-1,5
280,3.86039,0.690,-1,5
281,3.86108,0.695,-1,5
282,3.86242,0.651,-1,5
283,3.86306,0.639,-1,5
284,3.86369,0.630,-1,5
285,3.86432,0.630,-1,5
286,3.86491,0.587,-1,5
287,3.86548,0.569,-1,5
288,3.86603,0.552,-1,5
289,3.86658,0.548,-1,5
290,3.86709,0.513,-1,5
291,3.86760,0.513,-1,5
292,3.86809,0.483,-1,5
293,3.86857,0.479,-1,5
294,3.86901,0.449,-1,5
295,3.86944,0.427,-1,5
296,3.86986,0.414,-1,5
297,3.87024,0.388,-1,5
298,3.87099,0.354,-1,5
299,3.87099,0.337,-1,5
300,3.87165,0.324,-1,5
301,3.87165,0.311,-1,5
302,3.87196,0.276,-1,5
303,3.87224,0.276,-1,5
304,3.87251,0.259,-1,5
305,3.87300,0.233,-1,5
306,3.87322,0.211,-1,5
307,3.87341,0.190,-1,5
308,3.87358,0.177,-1,5
309,3.87373,0.151,-1,5
310,3.87387,0.138,-1,5
311,3.87398,0.112,-1,5
312,3.87409,0.108,-1,5
313,3.87417,0.073,-1,5
314,3.87423,0.065,-1,5
315,3.87427,0.039,-1,5
316,3.87429,0.026,-1,5
317,3.87430,0.004,-1,5
318,3.87429,-0.013,-1,5
319,3.87425,-0.035,-1,5
320,3.87414,-0.065,-1,5
321,3.87405,-0.086,-1,5
322,3.87395,-0.108,-1,5
323,3.87382,-0.125,-1,5
324,3.87369,-0.134,-1,5
325,3.87354,-0.151,-1,5
326,3.87337,-0.168,-1,5
327,3.87317,-0.194,-1,5
328,3.87297,-0.203,-1,5
329,3.87274,-0.229,-1,5
330,3.87248,-0.263,-1,5
331,3.87223,-0.246,-1,5
332,3.87195,-0.285,-1,5
333,3.87165,-0.293,-1,5
334,3.87134,-0.315,-1,5
335,3.87101,-0.332,-1,5
336,3.87029,-0.375,-1,5
337,3.86991,-0.380,-1,5
338,3.86951,-0.401,-1,5
339,3.86910,-0.414,-1,5
340,3.86867,-0.427,-1,5
341,3.86821,-0.462,-1,5
342,3.86774,-0.466,-1,5
343,3.86725,-0.492,-1,5
344,3.86675,-0.496,-1,5
345,3.86623,-0.526,-1,5
346,3.86568,-0.548,-1,5
347,3.86513,-0.548,-1,5
348,3.86457,-0.565,-1,5
349,3.86399,-0.578,-1,5
350,3.86336,-0.630,-1,5
351,3.86209,-0.639,-1,5
352,3.86144,-0.651,-1,5
353,3.86076,-0.686,-1,5
354,3.86005,-0.703,-1,5
355,3.85935,-0.703,-1,5
356,3.85861,-0.738,-1,5
357,3.85788,-0.733,-1,5
358,3.85712,-0.764,-1,5
359,3.85632,-0.794,-1,5
360,3.85553,-0.794,-1,5
361,3.85472,-0.811,-1,5
362,3.85387,-0.850,-1,5
363,3.85301,-0.859,-1,5
364,3.85214,-0.871,-1,5
365,3.85123,-0.902,-1,5
366,3.85032,-0.910,-1,5
367,3.84941,-0.910,-1,5
368,3.84846,-0.949,-1,5
369,3.84751,-0.953,-1,5
370,3.84653,-0.984,-1,5
371,3.84554,-0.984,-1,5
372,3.84453,-1.018,-1,5
373,3.84349,-1.040,-1,5
374,3.84138,-1.074,-1,5
375,3.84029,-1.083,-1,5
376,3.83917,-1.122,-1,5
377,3.83806,-1.113,-1,5
378,3.83692,-1.135,-1,5
379,3.83576,-1.165,-1,5
380,3.83458,-1.182,-1,5
381,3.83339,-1.191,-1,5
382,3.83219,-1.195,-1,5
383,3.83094,-1.247,-1,5
384,3.82971,-1.234,-1,5
385,3.82843,-1.281,-1,5
386,3.82713,-1.299,-1,5
387,3.82584,-1.290,-1,5
388,3.82451,-1.333,-1,5
389,3.82315,-1.350,-1,5
390,3.82043,-1.372,-1,5
391,3.81902,-1.402,-1,5
392,3.81761,-1.415,-1,5
393,3.81618,-1.428,-1,5
394,3.81472,-1.458,-1,5
395,3.81324,-1.484,-1,5
396,3.81176,-1.480,-1,5
397,3.81025,-1.506,-1,5
398,3.80871,-1.545,-1,5
399,3.80716,-1.545,-1,5
400,3.80561,-1.549,-1,5
401,3.80405,-1.566,-1,5
402,3.80243,-1.618,-1,5
403,3.79918,-1.631,-1,5
404,3.79752,-1.657,-1,5
405,3.79584,-1.678,-1,5
406,3.79414,-1.704,-1,5
407,3.79243,-1.708,-1,5
408,3.79070,-1.730,-1,5
409,3.78896,-1.739,-1,5
410,3.78718,-1.778,-1,5
411,3.78541,-1.773,-1,5
412,3.78359,-1.821,-1,5
413,3.78175,-1.842,-1,5
414,3.77994,-1.812,-1,5
415,3.77808,-1.859,-1,5
416,3.77620,-1.881,-1,5
417,3.77430,-1.894,-1,5
418,3.77239,-1.916,-1,5
419,3.77047,-1.954,-1,5
420,3.76655,-1.972,-1,5
421,3.76655,-1.972,-1,5
422,3.76255,-2.010,-1,5
423,3.76255,-2.032,-1,5
424,3.76052,-2.032,-1,5
425,3.75644,-2.054,-1,5
426,3.75437,-2.075,-1,5
427,3.75228,-2.092,-1,5
428,3.75016,-2.114,-1,5
429,3.74803,-2.136,-1,5
430,3.74587,-2.153,-1,5
431,3.74372,-2.153,-1,5
432,3.74153,-2.192,-1,5
433,3.73933,-2.205,-1,5
434,3.73712,-2.209,-1,5
435,3.73488,-2.239,-1,5
436,3.73262,-2.261,-1,5
437,3.73036,-2.261,-1,5
438,3.72807,-2.291,-1,5
439,3.72576,-2.308,-1,5
440,3.72343,-2.325,-1,5
441,3.72109,-2.343,-1,5
442,3.71872,-2.369,-1,5
443,3.71393,-2.407,-1,5
444,3.71393,-2.429,-1,5
445,3.70906,-2.438,-1,5
446,3.70906,-2.463,-1,5
447,3.70413,-2.463,-1,5
448,3.70164,-2.489,-1,5
449,3.69914,-2.507,-1,5
450,3.69661,-2.524,-1,5
451,3.69407,-2.545,-1,5
452,3.69150,-2.571,-1,5
453,3.68893,-2.563,-1,5
454,3.68634,-2.597,-1,5
455,3.68371,-2.627,-1,5
456,3.68106,-2.645,-1,5
457,3.67843,-2.636,-1,5
458,3.67578,-2.645,-1,5
459,3.67308,-2.701,-1,5
460,3.67037,-2.709,-1,5
461,3.66764,-2.731,-1,5
462,3.66490,-2.744,-1,5
463,3.66216,-2.744,-1,5
464,3.65938,-2.778,-1,5
465,3.65659,-2.822,-1,5
466,3.65377,-2.817,-1,5
467,3.65096,-2.817,-1,5
468,3.64810,-2.852,-1,5
469,3.64524,-2.865,-1,5
470,3.64233,-2.908,-1,5
471,3.63652,-2.916,-1,5
472,3.63359,-2.938,-1,5
473,3.63065,-2.934,-1,5
474,3.62767,-2.986,-1,5
475,3.62468,-2.990,-1,5
476,3.62168,-2.994,-1,5
477,3.61864,-3.042,-1,5
478,3.61560,-3.046,-1,5
479,3.61253,-3.067,-1,5
480,3.60946,-3.067,-1,5
481,3.60637,-3.089,-1,5
482,3.60324,-3.132,-1,5
483,3.60012,-3.124,-1,5
484,3.59698,-3.137,-1,5
485,3.59381,-3.167,-1,5
486,3.59064,-3.175,-1,5
487,3.58743,-3.210,-1,5
488,3.58099,-3.223,-1,5
489,3.57774,-3.257,-1,5
490,3.57448,-3.257,-1,5
491,3.57119,-3.288,-1,5
492,3.56789,-3.300,-1,5
493,3.56458,-3.309,-1,5
494,3.56124,-3.344,-1,5
495,3.55790,-3.335,-1,5
496,3.55452,-3.387,-1,5
497,3.55116,-3.361,-1,5
498,3.54776,-3.400,-1,5
499,3.54433,-3.430,-1,5
500,3.54091,-3.417,-1,5
501,3.53745,-3.456,-1,5
502,3.53398,-3.477,-1,5
503,3.52700,-3.486,-1,5
504,3.52348,-3.516,-1,5
505,3.51994,-3.538,-1,5
506,3.51640,-3.538,-1,5
507,3.51284,-3.568,-1,5
508,3.50924,-3.594,-1,5
509,3.50566,-3.581,-1,5
510,3.50204,-3.620,-1,5
511,3.49839,-3.654,-1,5
512,3.49479,-3.602,-1,5
513,3.49112,-3.667,-1,5
514,3.48747,-3.650,-1,5
515,3.48378,-3.689,-1,5
516,3.48008,-3.697,-1,5
517,3.47635,-3.736,-1,5
518,3.47265,-3.745,-1,5
519,3.46516,-3.749,-1,5
520,3.46516,-3.753,-1,5
521,3.45760,-3.805,-1,5
522,3.45760,-3.779,-1,5
523,3.44999,-3.831,-1,5
524,3.44618,-3.805,-1,5
525,3.44236,-3.827,-1,5
526,3.43852,-3.840,-1,5
527,3.43464,-3.879,-1,5
528,3.43079,-3.848,-1,5
529,3.42687,-3.922,-1,5
530,3.42298,-3.887,-1,5
531,3.41909,-3.896,-1,5
532,3.41517,-3.917,-1,5
533,3.41124,-3.930,-1,5
534,3.40732,-3.917,-1,5
535,3.40339,-3.935,-1,5
536,3.39943,-3.961,-1,5
537,3.39546,-3.969,-1,5
538,3.39150,-3.961,-1,5
539,3.38751,-3.986,-1,5
540,3.38351,-3.991,-1,5
541,3.37552,-4.004,-1,5
542,3.37149,-4.025,-1,5
543,3.36747,-4.021,-1,5
544,3.36343,-4.038,-1,5
545,3.35937,-4.064,-1,5
546,3.35532,-4.043,-1,5
547,3.35127,-4.060,-1,5
548,3.34720,-4.068,-1,5
549,3.34311,-4.086,-1,5
550,3.33902,-4.094,-1,5
551,3.33491,-4.107,-1,5
552,3.33079,-4.120,-1,5
553,3.32668,-4.112,-1,5
554,3.32254,-4.133,-1,5
555,3.31841,-4.137,-1,5
556,3.31428,-4.137,-1,5
557,3.30599,-4.155,-1,5
558,3.30599,-4.159,-1,5
559,3.29765,-4.181,-1,5
560,3.29765,-4.142,-1,5
561,3.28935,-4.159,-1,5
562,3.28514,-4.206,-1,5
563,3.28097,-4.176,-1,5
564,3.27680,-4.172,-1,5
565,3.27260,-4.198,-1,5
566,3.26841,-4.189,-1,5
567,3.26422,-4.189,-1,5
568,3.26000,-4.224,-1,5
569,3.25577,-4.228,-1,5
570,3.25155,-4.215,-1,5
571,3.24732,-4.237,-1,5
572,3.24307,-4.250,-1,5
573,3.23884,-4.224,-1,5
574,3.23458,-4.267,-1,5
575,3.23032,-4.258,-1,5
576,3.22606,-4.263,-1,5
577,3.22178,-4.275,-1,5
578,3.21750,-4.280,-1,5
579,3.21321,-4.280,-1,5
580,3.20893,-4.288,-1,5
