cnt,pos,speed,Dir,Force,
1,3.21180,2.899,-1,5
2,3.21470,2.904,-1,5
3,3.21759,2.886,-1,5
4,3.22048,2.886,-1,5
5,3.22335,2.873,-1,5
6,3.22620,2.852,-1,5
7,3.22905,2.852,-1,5
8,3.23190,2.847,-1,5
9,3.23473,2.830,-1,5
10,3.23755,2.817,-1,5
11,3.24038,2.830,-1,5
12,3.24317,2.787,-1,5
13,3.24598,2.791,-1,5
14,3.25154,2.774,-1,5
15,3.25430,2.757,-1,5
16,3.25705,2.748,-1,5
17,3.25979,2.744,-1,5
18,3.26255,2.761,-1,5
19,3.26526,2.709,-1,5
20,3.26798,2.714,-1,5
21,3.27069,2.714,-1,5
22,3.27336,2.666,-1,5
23,3.27606,2.701,-1,5
24,3.27871,2.645,-1,5
25,3.28135,2.645,-1,5
26,3.28399,2.636,-1,5
27,3.28664,2.640,-1,5
28,3.29188,2.602,-1,5
29,3.29447,2.593,-1,5
30,3.29706,2.589,-1,5
31,3.29964,2.584,-1,5
32,3.30221,2.563,-1,5
33,3.30475,2.541,-1,5
34,3.30730,2.554,-1,5
35,3.30984,2.537,-1,5
36,3.31235,2.515,-1,5
37,3.31484,2.489,-1,5
38,3.31735,2.507,-1,5
39,3.31984,2.489,-1,5
40,3.32230,2.459,-1,5
41,3.32476,2.463,-1,5
42,3.32721,2.451,-1,5
43,3.32962,2.412,-1,5
44,3.33204,2.399,-1,5
45,3.33443,2.399,-1,5
46,3.33922,2.390,-1,5
47,3.34159,2.369,-1,5
48,3.34159,2.334,-1,5
49,3.34393,2.334,-1,5
50,3.34626,2.304,-1,5
51,3.35085,2.282,-1,5
52,3.35314,2.291,-1,5
53,3.35542,2.278,-1,5
54,3.35769,2.269,-1,5
55,3.35990,2.218,-1,5
56,3.36214,2.235,-1,5
57,3.36435,2.213,-1,5
58,3.36655,2.200,-1,5
59,3.36873,2.174,-1,5
60,3.37088,2.157,-1,5
61,3.37302,2.140,-1,5
62,3.37515,2.131,-1,5
63,3.37727,2.114,-1,5
64,3.37936,2.092,-1,5
65,3.38143,2.071,-1,5
66,3.38350,2.067,-1,5
67,3.38555,2.049,-1,5
68,3.38960,2.015,-1,5
69,3.38960,2.002,-1,5
70,3.39358,1.972,-1,5
71,3.39358,1.967,-1,5
72,3.39749,1.950,-1,5
73,3.39942,1.929,-1,5
74,3.40134,1.920,-1,5
75,3.40325,1.911,-1,5
76,3.40515,1.898,-1,5
77,3.40701,1.864,-1,5
78,3.40886,1.847,-1,5
79,3.41070,1.838,-1,5
80,3.41253,1.829,-1,5
81,3.41433,1.803,-1,5
82,3.41613,1.795,-1,5
83,3.41791,1.782,-1,5
84,3.41967,1.765,-1,5
85,3.42139,1.717,-1,5
86,3.42312,1.730,-1,5
87,3.42484,1.717,-1,5
88,3.42651,1.670,-1,5
89,3.42820,1.696,-1,5
90,3.42987,1.670,-1,5
91,3.43313,1.618,-1,5
92,3.43473,1.605,-1,5
93,3.43634,1.601,-1,5
94,3.43634,1.575,-1,5
95,3.43947,1.562,-1,5
96,3.43947,1.540,-1,5
97,3.44253,1.514,-1,5
98,3.44403,1.506,-1,5
99,3.44552,1.488,-1,5
100,3.44699,1.467,-1,5
101,3.44842,1.437,-1,5
102,3.44987,1.445,-1,5
103,3.45130,1.432,-1,5
104,3.45270,1.398,-1,5
105,3.45409,1.389,-1,5
106,3.45680,1.333,-1,5
107,3.45680,1.346,-1,5
108,3.45948,1.333,-1,5
109,3.46077,1.290,-1,5
110,3.46205,1.281,-1,5
111,3.46332,1.268,-1,5
112,3.46455,1.225,-1,5
113,3.46579,1.243,-1,5
114,3.46701,1.217,-1,5
115,3.46820,1.199,-1,5
116,3.46939,1.182,-1,5
117,3.47053,1.148,-1,5
118,3.47169,1.156,-1,5
119,3.47283,1.135,-1,5
120,3.47395,1.122,-1,5
121,3.47505,1.100,-1,5
122,3.47610,1.048,-1,5
123,3.47717,1.074,-1,5
124,3.47820,1.027,-1,5
125,3.47924,1.044,-1,5
126,3.48023,0.988,-1,5
127,3.48220,0.958,-1,5
128,3.48316,0.962,-1,5
129,3.48409,0.932,-1,5
130,3.48500,0.906,-1,5
131,3.48592,0.919,-1,5
132,3.48679,0.871,-1,5
133,3.48767,0.884,-1,5
134,3.48850,0.833,-1,5
135,3.48933,0.824,-1,5
136,3.49016,0.828,-1,5
137,3.49094,0.781,-1,5
138,3.49170,0.764,-1,5
139,3.49247,0.772,-1,5
140,3.49322,0.746,-1,5
141,3.49394,0.725,-1,5
142,3.49466,0.716,-1,5
143,3.49534,0.677,-1,5
144,3.49665,0.651,-1,5
145,3.49665,0.634,-1,5
146,3.49729,0.634,-1,5
147,3.49790,0.591,-1,5
148,3.49850,0.582,-1,5
149,3.49966,0.582,-1,5
150,3.50020,0.539,-1,5
151,3.50072,0.522,-1,5
152,3.50123,0.509,-1,5
153,3.50173,0.496,-1,5
154,3.50221,0.483,-1,5
155,3.50267,0.462,-1,5
156,3.50311,0.436,-1,5
157,3.50353,0.418,-1,5
158,3.50393,0.401,-1,5
159,3.50430,0.371,-1,5
160,3.50467,0.371,-1,5
161,3.50503,0.362,-1,5
162,3.50537,0.337,-1,5
163,3.50567,0.306,-1,5
164,3.50596,0.289,-1,5
165,3.50623,0.263,-1,5
166,3.50672,0.237,-1,5
167,3.50695,0.229,-1,5
168,3.50715,0.198,-1,5
169,3.50733,0.181,-1,5
170,3.50750,0.168,-1,5
171,3.50765,0.151,-1,5
172,3.50778,0.129,-1,5
173,3.50788,0.108,-1,5
174,3.50798,0.095,-1,5
175,3.50805,0.069,-1,5
176,3.50812,0.069,-1,5
177,3.50815,0.030,-1,5
178,3.50817,0.026,-1,5
179,3.50817,-0.000,-1,5
180,3.50816,-0.013,-1,5
181,3.50812,-0.043,-1,5
182,3.50807,-0.043,-1,5
183,3.50792,-0.082,-1,5
184,3.50792,-0.099,-1,5
185,3.50770,-0.121,-1,5
186,3.50770,-0.134,-1,5
187,3.50741,-0.155,-1,5
188,3.50723,-0.177,-1,5
189,3.50705,-0.181,-1,5
190,3.50684,-0.211,-1,5
191,3.50662,-0.216,-1,5
192,3.50639,-0.233,-1,5
193,3.50613,-0.259,-1,5
194,3.50586,-0.267,-1,5
195,3.50558,-0.285,-1,5
196,3.50528,-0.298,-1,5
197,3.50495,-0.332,-1,5
198,3.50460,-0.345,-1,5
199,3.50425,-0.358,-1,5
200,3.50389,-0.358,-1,5
201,3.50350,-0.406,-1,5
202,3.50309,-0.414,-1,5
203,3.50222,-0.453,-1,5
204,3.50177,-0.457,-1,5
205,3.50129,-0.475,-1,5
206,3.50081,-0.483,-1,5
207,3.50031,-0.500,-1,5
208,3.49979,-0.513,-1,5
209,3.49923,-0.561,-1,5
210,3.49868,-0.552,-1,5
211,3.49812,-0.561,-1,5
212,3.49754,-0.582,-1,5
213,3.49694,-0.595,-1,5
214,3.49631,-0.630,-1,5
215,3.49567,-0.639,-1,5
216,3.49503,-0.643,-1,5
217,3.49436,-0.673,-1,5
218,3.49367,-0.686,-1,5
219,3.49225,-0.716,-1,5
220,3.49150,-0.751,-1,5
221,3.49075,-0.751,-1,5
222,3.48998,-0.764,-1,5
223,3.48919,-0.794,-1,5
224,3.48838,-0.807,-1,5
225,3.48758,-0.807,-1,5
226,3.48672,-0.859,-1,5
227,3.48586,-0.854,-1,5
228,3.48498,-0.884,-1,5
229,3.48409,-0.884,-1,5
230,3.48319,-0.902,-1,5
231,3.48225,-0.941,-1,5
232,3.48132,-0.932,-1,5
233,3.48034,-0.979,-1,5
234,3.47937,-1.005,-1,5
235,3.47736,-1.005,-1,5
236,3.47736,-1.035,-1,5
237,3.47529,-1.035,-1,5
238,3.47529,-1.061,-1,5
239,3.47316,-1.074,-1,5
240,3.47204,-1.113,-1,5
241,3.47093,-1.113,-1,5
242,3.46980,-1.135,-1,5
243,3.46863,-1.165,-1,5
244,3.46748,-1.152,-1,5
245,3.46628,-1.195,-1,5
246,3.46508,-1.204,-1,5
247,3.46386,-1.221,-1,5
248,3.46263,-1.234,-1,5
249,3.46140,-1.230,-1,5
250,3.46011,-1.286,-1,5
251,3.45881,-1.299,-1,5
252,3.45752,-1.294,-1,5
253,3.45619,-1.333,-1,5
254,3.45483,-1.355,-1,5
255,3.45349,-1.337,-1,5
256,3.45211,-1.385,-1,5
257,3.44931,-1.398,-1,5
258,3.44787,-1.437,-1,5
259,3.44643,-1.445,-1,5
260,3.44498,-1.450,-1,5
261,3.44350,-1.480,-1,5
262,3.44200,-1.501,-1,5
263,3.44049,-1.506,-1,5
264,3.43896,-1.527,-1,5
265,3.43741,-1.557,-1,5
266,3.43585,-1.553,-1,5
267,3.43426,-1.592,-1,5
268,3.43267,-1.588,-1,5
269,3.43106,-1.609,-1,5
270,3.42941,-1.648,-1,5
271,3.42776,-1.674,-1,5
272,3.42442,-1.670,-1,5
273,3.42272,-1.696,-1,5
274,3.42100,-1.721,-1,5
275,3.41928,-1.726,-1,5
276,3.41753,-1.743,-1,5
277,3.41577,-1.760,-1,5
278,3.41399,-1.782,-1,5
279,3.41220,-1.790,-1,5
280,3.41037,-1.829,-1,5
281,3.40856,-1.816,-1,5
282,3.40672,-1.834,-1,5
283,3.40487,-1.855,-1,5
284,3.40299,-1.877,-1,5
285,3.40110,-1.894,-1,5
286,3.39918,-1.911,-1,5
287,3.39726,-1.920,-1,5
288,3.39534,-1.929,-1,5
289,3.39339,-1.950,-1,5
290,3.39141,-1.989,-1,5
291,3.38943,-1.989,-1,5
292,3.38540,-2.028,-1,5
293,3.38540,-2.045,-1,5
294,3.38130,-2.049,-1,5
295,3.37925,-2.054,-1,5
296,3.37716,-2.088,-1,5
297,3.37505,-2.105,-1,5
298,3.37293,-2.123,-1,5
299,3.37079,-2.140,-1,5
300,3.36865,-2.140,-1,5
301,3.36649,-2.161,-1,5
302,3.36429,-2.200,-1,5
303,3.36208,-2.209,-1,5
304,3.35986,-2.226,-1,5
305,3.35764,-2.218,-1,5
306,3.35538,-2.261,-1,5
307,3.35310,-2.274,-1,5
308,3.35081,-2.295,-1,5
309,3.34851,-2.295,-1,5
310,3.34387,-2.334,-1,5
311,3.34151,-2.351,-1,5
312,3.33914,-2.373,-1,5
313,3.33674,-2.403,-1,5
314,3.33433,-2.407,-1,5
315,3.33191,-2.420,-1,5
316,3.32947,-2.438,-1,5
317,3.32704,-2.433,-1,5
318,3.32456,-2.481,-1,5
319,3.32207,-2.485,-1,5
320,3.31958,-2.494,-1,5
321,3.31705,-2.528,-1,5
322,3.31452,-2.528,-1,5
323,3.31199,-2.533,-1,5
324,3.30943,-2.558,-1,5
325,3.30684,-2.593,-1,5
326,3.30425,-2.593,-1,5
327,3.30165,-2.614,-1,5
328,3.29903,-2.614,-1,5
329,3.29638,-2.649,-1,5
330,3.29373,-2.671,-1,5
331,3.29106,-2.671,-1,5
332,3.28566,-2.705,-1,5
333,3.28294,-2.714,-1,5
334,3.28021,-2.731,-1,5
335,3.27746,-2.753,-1,5
336,3.27470,-2.761,-1,5
337,3.27189,-2.804,-1,5
338,3.26911,-2.787,-1,5
339,3.26631,-2.796,-1,5
340,3.26346,-2.852,-1,5
341,3.26062,-2.843,-1,5
342,3.25773,-2.891,-1,5
343,3.25486,-2.869,-1,5
344,3.25196,-2.899,-1,5
345,3.24904,-2.916,-1,5
346,3.24611,-2.929,-1,5
347,3.24316,-2.955,-1,5
348,3.23721,-2.990,-1,5
349,3.23422,-2.990,-1,5
350,3.23119,-3.029,-1,5
351,3.22816,-3.037,-1,5
352,3.22511,-3.046,-1,5
353,3.22205,-3.059,-1,5
354,3.21895,-3.106,-1,5
355,3.21584,-3.102,-1,5
356,3.21276,-3.080,-1,5
357,3.20965,-3.115,-1,5
