cnt,pos,speed,Dir,Force,
1,3.21279,2.377,-1,5
2,3.21517,2.373,-1,5
3,3.21756,2.394,-1,5
4,3.21996,2.403,-1,5
5,3.22234,2.377,-1,5
6,3.22472,2.377,-1,5
7,3.22710,2.382,-1,5
8,3.22949,2.394,-1,5
9,3.23187,2.373,-1,5
10,3.23424,2.377,-1,5
11,3.23661,2.369,-1,5
12,3.23899,2.382,-1,5
13,3.24135,2.360,-1,5
14,3.24371,2.394,-1,5
15,3.24611,2.394,-1,5
16,3.24849,2.364,-1,5
17,3.25085,2.364,-1,5
18,3.25555,2.347,-1,5
19,3.25790,2.351,-1,5
20,3.26026,2.364,-1,5
21,3.26263,2.364,-1,5
22,3.26497,2.347,-1,5
23,3.26733,2.356,-1,5
24,3.26965,2.321,-1,5
25,3.27199,2.343,-1,5
26,3.27432,2.321,-1,5
27,3.27667,2.351,-1,5
28,3.27900,2.330,-1,5
29,3.28132,2.321,-1,5
30,3.28363,2.308,-1,5
31,3.28596,2.330,-1,5
32,3.28829,2.334,-1,5
33,3.29061,2.317,-1,5
34,3.29293,2.321,-1,5
35,3.29524,2.312,-1,5
36,3.29754,2.304,-1,5
37,3.30216,2.317,-1,5
38,3.30216,2.295,-1,5
39,3.30675,2.291,-1,5
40,3.30675,2.300,-1,5
41,3.31137,2.317,-1,5
42,3.31137,2.291,-1,5
43,3.31593,2.274,-1,5
44,3.31822,2.291,-1,5
45,3.32052,2.295,-1,5
46,3.32280,2.282,-1,5
47,3.32511,2.308,-1,5
48,3.32737,2.265,-1,5
49,3.32965,2.274,-1,5
50,3.33192,2.274,-1,5
51,3.33419,2.274,-1,5
52,3.33647,2.274,-1,5
53,3.33876,2.291,-1,5
54,3.34104,2.282,-1,5
55,3.34332,2.278,-1,5
56,3.34557,2.256,-1,5
57,3.34784,2.269,-1,5
58,3.35010,2.265,-1,5
59,3.35463,2.269,-1,5
60,3.35688,2.252,-1,5
61,3.35914,2.256,-1,5
62,3.36140,2.256,-1,5
63,3.36367,2.274,-1,5
64,3.36594,2.274,-1,5
65,3.36820,2.261,-1,5
66,3.37045,2.243,-1,5
67,3.37271,2.261,-1,5
68,3.37497,2.261,-1,5
69,3.37723,2.261,-1,5
70,3.37948,2.248,-1,5
71,3.38171,2.231,-1,5
72,3.38399,2.278,-1,5
73,3.38625,2.265,-1,5
74,3.39078,2.269,-1,5
75,3.39305,2.269,-1,5
76,3.39531,2.265,-1,5
77,3.39755,2.239,-1,5
78,3.39982,2.269,-1,5
79,3.40210,2.274,-1,5
80,3.40437,2.269,-1,5
81,3.40664,2.278,-1,5
82,3.40892,2.274,-1,5
83,3.41120,2.287,-1,5
84,3.41347,2.269,-1,5
85,3.41576,2.282,-1,5
86,3.41803,2.278,-1,5
87,3.42031,2.278,-1,5
88,3.42260,2.287,-1,5
89,3.42487,2.278,-1,5
90,3.42715,2.278,-1,5
91,3.42945,2.295,-1,5
92,3.43173,2.287,-1,5
93,3.43402,2.291,-1,5
94,3.43632,2.295,-1,5
95,3.43861,2.295,-1,5
96,3.44090,2.287,-1,5
97,3.44546,2.274,-1,5
98,3.44774,2.278,-1,5
99,3.45002,2.287,-1,5
100,3.45232,2.300,-1,5
101,3.45461,2.282,-1,5
102,3.45689,2.282,-1,5
103,3.45919,2.304,-1,5
104,3.46149,2.295,-1,5
105,3.46375,2.261,-1,5
106,3.46603,2.282,-1,5
107,3.46830,2.274,-1,5
108,3.47059,2.282,-1,5
109,3.47287,2.282,-1,5
110,3.47517,2.300,-1,5
111,3.47743,2.261,-1,5
112,3.47971,2.278,-1,5
113,3.48198,2.269,-1,5
114,3.48425,2.278,-1,5
115,3.48652,2.269,-1,5
116,3.48878,2.261,-1,5
117,3.49105,2.265,-1,5
118,3.49332,2.269,-1,5
119,3.49557,2.252,-1,5
120,3.50009,2.265,-1,5
121,3.50236,2.269,-1,5
122,3.50461,2.248,-1,5
123,3.50686,2.248,-1,5
124,3.50910,2.248,-1,5
125,3.51135,2.248,-1,5
126,3.51359,2.239,-1,5
127,3.51584,2.248,-1,5
128,3.51807,2.226,-1,5
129,3.52030,2.239,-1,5
130,3.52253,2.222,-1,5
131,3.52476,2.231,-1,5
132,3.52699,2.231,-1,5
133,3.52923,2.239,-1,5
134,3.53145,2.222,-1,5
135,3.53366,2.209,-1,5
136,3.53586,2.205,-1,5
137,3.53805,2.196,-1,5
138,3.54024,2.196,-1,5
139,3.54245,2.192,-1,5
140,3.54464,2.192,-1,5
141,3.54903,2.187,-1,5
142,3.55122,2.187,-1,5
143,3.55340,2.179,-1,5
144,3.55557,2.166,-1,5
145,3.55774,2.174,-1,5
146,3.55991,2.166,-1,5
147,3.56207,2.161,-1,5
148,3.56422,2.149,-1,5
149,3.56635,2.131,-1,5
150,3.56850,2.157,-1,5
151,3.57065,2.144,-1,5
152,3.57281,2.161,-1,5
153,3.57495,2.144,-1,5
154,3.57707,2.118,-1,5
155,3.57921,2.140,-1,5
156,3.58134,2.127,-1,5
157,3.58556,2.105,-1,5
158,3.58765,2.092,-1,5
159,3.58977,2.118,-1,5
160,3.59187,2.105,-1,5
161,3.59398,2.101,-1,5
162,3.59609,2.110,-1,5
163,3.59815,2.067,-1,5
164,3.60025,2.097,-1,5
165,3.60233,2.080,-1,5
166,3.60441,2.084,-1,5
167,3.60648,2.067,-1,5
168,3.60855,2.075,-1,5
169,3.61060,2.049,-1,5
170,3.61266,2.058,-1,5
171,3.61471,2.049,-1,5
172,3.61677,2.058,-1,5
173,3.61882,2.058,-1,5
174,3.62088,2.058,-1,5
175,3.62494,2.028,-1,5
176,3.62494,2.023,-1,5
177,3.62898,2.015,-1,5
178,3.62898,2.028,-1,5
179,3.63300,1.998,-1,5
180,3.63501,2.010,-1,5
181,3.63701,1.993,-1,5
182,3.63900,1.993,-1,5
183,3.64099,1.993,-1,5
184,3.64300,2.002,-1,5
185,3.64497,1.972,-1,5
186,3.64695,1.985,-1,5
187,3.64893,1.976,-1,5
188,3.65090,1.972,-1,5
189,3.65284,1.946,-1,5
190,3.65479,1.950,-1,5
191,3.65675,1.950,-1,5
192,3.65869,1.946,-1,5
193,3.66063,1.937,-1,5
194,3.66256,1.929,-1,5
195,3.66448,1.924,-1,5
196,3.66833,1.920,-1,5
197,3.67025,1.916,-1,5
198,3.67216,1.911,-1,5
199,3.67406,1.903,-1,5
200,3.67595,1.885,-1,5
201,3.67782,1.868,-1,5
202,3.67968,1.868,-1,5
203,3.68156,1.877,-1,5
204,3.68342,1.859,-1,5
205,3.68529,1.868,-1,5
206,3.68715,1.864,-1,5
207,3.68901,1.855,-1,5
208,3.69085,1.838,-1,5
209,3.69268,1.834,-1,5
210,3.69451,1.834,-1,5
211,3.69635,1.821,-1,5
212,3.69817,1.821,-1,5
213,3.69997,1.803,-1,5
214,3.70178,1.812,-1,5
215,3.70358,1.799,-1,5
216,3.70537,1.790,-1,5
217,3.70715,1.778,-1,5
218,3.71071,1.782,-1,5
219,3.71247,1.765,-1,5
220,3.71424,1.769,-1,5
221,3.71600,1.760,-1,5
222,3.71775,1.743,-1,5
223,3.71949,1.747,-1,5
224,3.72123,1.739,-1,5
225,3.72295,1.721,-1,5
226,3.72466,1.708,-1,5
227,3.72637,1.713,-1,5
228,3.72809,1.713,-1,5
229,3.72977,1.687,-1,5
230,3.73146,1.683,-1,5
231,3.73313,1.678,-1,5
232,3.73481,1.678,-1,5
233,3.73650,1.683,-1,5
234,3.73815,1.657,-1,5
235,3.73980,1.648,-1,5
236,3.74146,1.657,-1,5
237,3.74310,1.648,-1,5
238,3.74474,1.639,-1,5
239,3.74637,1.622,-1,5
240,3.74958,1.601,-1,5
241,3.75119,1.614,-1,5
242,3.75279,1.605,-1,5
243,3.75438,1.588,-1,5
244,3.75598,1.596,-1,5
245,3.75753,1.553,-1,5
246,3.75909,1.557,-1,5
247,3.76066,1.566,-1,5
248,3.76222,1.566,-1,5
249,3.76375,1.527,-1,5
250,3.76529,1.545,-1,5
251,3.76683,1.536,-1,5
252,3.76837,1.536,-1,5
253,3.76985,1.488,-1,5
254,3.77136,1.506,-1,5
255,3.77287,1.506,-1,5
256,3.77581,1.484,-1,5
257,3.77728,1.467,-1,5
258,3.77875,1.467,-1,5
259,3.78020,1.454,-1,5
260,3.78162,1.419,-1,5
261,3.78308,1.458,-1,5
262,3.78450,1.424,-1,5
263,3.78595,1.445,-1,5
264,3.78736,1.415,-1,5
265,3.78876,1.402,-1,5
266,3.79015,1.389,-1,5
267,3.79155,1.394,-1,5
268,3.79292,1.372,-1,5
269,3.79428,1.359,-1,5
270,3.79565,1.372,-1,5
271,3.79699,1.333,-1,5
272,3.79967,1.337,-1,5
273,3.80097,1.303,-1,5
274,3.80229,1.320,-1,5
275,3.80359,1.303,-1,5
276,3.80489,1.294,-1,5
277,3.80617,1.286,-1,5
278,3.80743,1.255,-1,5
279,3.80869,1.264,-1,5
280,3.80996,1.264,-1,5
281,3.81120,1.243,-1,5
282,3.81244,1.243,-1,5
283,3.81367,1.225,-1,5
284,3.81488,1.212,-1,5
285,3.81610,1.221,-1,5
286,3.81728,1.178,-1,5
287,3.81846,1.182,-1,5
288,3.81962,1.165,-1,5
289,3.82078,1.161,-1,5
290,3.82194,1.156,-1,5
291,3.82307,1.130,-1,5
292,3.82421,1.143,-1,5
293,3.82533,1.113,-1,5
294,3.82644,1.113,-1,5
295,3.82864,1.092,-1,5
296,3.82864,1.092,-1,5
297,3.82973,1.092,-1,5
298,3.83079,1.079,-1,5
299,3.83187,1.079,-1,5
300,3.83290,1.035,-1,5
301,3.83394,1.035,-1,5
302,3.83494,0.997,-1,5
303,3.83597,0.992,-1,5
304,3.83696,0.992,-1,5
305,3.83796,0.997,-1,5
306,3.83892,0.966,-1,5
307,3.83987,0.949,-1,5
308,3.84085,0.975,-1,5
309,3.84179,0.941,-1,5
310,3.84272,0.936,-1,5
311,3.84454,0.910,-1,5
312,3.84544,0.897,-1,5
313,3.84632,0.880,-1,5
314,3.84719,0.871,-1,5
315,3.84806,0.867,-1,5
316,3.84889,0.833,-1,5
317,3.84973,0.841,-1,5
318,3.85054,0.811,-1,5
319,3.85136,0.820,-1,5
320,3.85218,0.785,-1,5
321,3.85296,0.785,-1,5
322,3.85374,0.768,-1,5
323,3.85526,0.751,-1,5
324,3.85598,0.729,-1,5
325,3.85672,0.733,-1,5
326,3.85743,0.716,-1,5
327,3.85812,0.686,-1,5
328,3.85879,0.673,-1,5
329,3.85947,0.673,-1,5
330,3.86011,0.647,-1,5
331,3.86076,0.651,-1,5
332,3.86139,0.626,-1,5
333,3.86202,0.600,-1,5
334,3.86320,0.582,-1,5
335,3.86379,0.587,-1,5
336,3.86435,0.561,-1,5
337,3.86489,0.544,-1,5
338,3.86542,0.526,-1,5
339,3.86592,0.505,-1,5
340,3.86643,0.513,-1,5
341,3.86692,0.488,-1,5
342,3.86740,0.483,-1,5
343,3.86786,0.453,-1,5
344,3.86831,0.457,-1,5
345,3.86874,0.423,-1,5
346,3.86915,0.410,-1,5
347,3.86954,0.397,-1,5
348,3.87029,0.367,-1,5
349,3.87065,0.362,-1,5
350,3.87099,0.332,-1,5
351,3.87130,0.315,-1,5
352,3.87160,0.298,-1,5
353,3.87190,0.298,-1,5
354,3.87216,0.267,-1,5
355,3.87242,0.255,-1,5
356,3.87267,0.250,-1,5
357,3.87288,0.216,-1,5
358,3.87309,0.207,-1,5
359,3.87329,0.194,-1,5
360,3.87345,0.168,-1,5
361,3.87361,0.155,-1,5
362,3.87375,0.138,-1,5
363,3.87398,0.108,-1,5
364,3.87406,0.082,-1,5
365,3.87413,0.069,-1,5
366,3.87418,0.056,-1,5
367,3.87422,0.035,-1,5
368,3.87423,0.017,-1,5
369,3.87424,0.004,-1,5
370,3.87423,-0.013,-1,5
371,3.87419,-0.035,-1,5
372,3.87415,-0.043,-1,5
373,3.87409,-0.060,-1,5
374,3.87401,-0.082,-1,5
375,3.87391,-0.095,-1,5
376,3.87380,-0.112,-1,5
377,3.87367,-0.129,-1,5
378,3.87353,-0.155,-1,5
379,3.87338,-0.155,-1,5
380,3.87320,-0.177,-1,5
381,3.87301,-0.190,-1,5
382,3.87281,-0.203,-1,5
383,3.87257,-0.233,-1,5
384,3.87233,-0.255,-1,5
385,3.87181,-0.267,-1,5
386,3.87152,-0.293,-1,5
387,3.87122,-0.298,-1,5
388,3.87090,-0.315,-1,5
389,3.87058,-0.328,-1,5
390,3.87021,-0.367,-1,5
391,3.86985,-0.358,-1,5
392,3.86947,-0.384,-1,5
393,3.86867,-0.401,-1,5
394,3.86823,-0.440,-1,5
395,3.86779,-0.440,-1,5
396,3.86779,-0.475,-1,5
397,3.86732,-0.466,-1,5
398,3.86636,-0.496,-1,5
399,3.86584,-0.513,-1,5
400,3.86533,-0.518,-1,5
401,3.86479,-0.535,-1,5
402,3.86423,-0.557,-1,5
403,3.86365,-0.582,-1,5
404,3.86306,-0.587,-1,5
405,3.86246,-0.600,-1,5
406,3.86185,-0.617,-1,5
407,3.86120,-0.651,-1,5
408,3.86055,-0.643,-1,5
409,3.85988,-0.677,-1,5
410,3.85920,-0.673,-1,5
411,3.85849,-0.712,-1,5
412,3.85778,-0.708,-1,5
413,3.85705,-0.738,-1,5
414,3.85629,-0.755,-1,5
415,3.85553,-0.764,-1,5
416,3.85476,-0.815,-1,5
417,3.85312,-0.824,-1,5
418,3.85312,-0.824,-1,5
419,3.85229,-0.867,-1,5
420,3.85142,-0.867,-1,5
421,3.84969,-0.863,-1,5
422,3.84878,-0.906,-1,5
423,3.84787,-0.906,-1,5
424,3.84694,-0.932,-1,5
425,3.84600,-0.945,-1,5
426,3.84503,-0.966,-1,5
427,3.84403,-0.997,-1,5
428,3.84303,-1.001,-1,5
429,3.84202,-1.018,-1,5
430,3.84099,-1.027,-1,5
431,3.83993,-1.061,-1,5
432,3.83887,-1.061,-1,5
433,3.83778,-1.087,-1,5
434,3.83669,-1.092,-1,5
435,3.83555,-1.139,-1,5
436,3.83442,-1.126,-1,5
437,3.83328,-1.143,-1,5
438,3.83213,-1.152,-1,5
439,3.83092,-1.208,-1,5
440,3.82973,-1.191,-1,5
441,3.82849,-1.243,-1,5
442,3.82723,-1.255,-1,5
443,3.82598,-1.247,-1,5
444,3.82471,-1.277,-1,5
445,3.82340,-1.299,-1,5
446,3.82078,-1.329,-1,5
447,3.81943,-1.346,-1,5
448,3.81808,-1.346,-1,5
449,3.81670,-1.385,-1,5
450,3.81530,-1.398,-1,5
451,3.81389,-1.411,-1,5
452,3.81246,-1.432,-1,5
453,3.81100,-1.458,-1,5
454,3.80952,-1.480,-1,5
455,3.80804,-1.480,-1,5
456,3.80654,-1.501,-1,5
457,3.80502,-1.514,-1,5
458,3.80348,-1.540,-1,5
459,3.80193,-1.549,-1,5
460,3.80036,-1.579,-1,5
461,3.79876,-1.592,-1,5
462,3.79555,-1.622,-1,5
463,3.79555,-1.657,-1,5
464,3.79223,-1.657,-1,5
465,3.79055,-1.678,-1,5
466,3.78887,-1.683,-1,5
467,3.78715,-1.726,-1,5
468,3.78543,-1.717,-1,5
469,3.78365,-1.778,-1,5
470,3.78187,-1.778,-1,5
471,3.78012,-1.752,-1,5
472,3.77831,-1.808,-1,5
473,3.77651,-1.803,-1,5
474,3.77468,-1.834,-1,5
475,3.77285,-1.825,-1,5
476,3.77098,-1.881,-1,5
477,3.76719,-1.907,-1,5
478,3.76527,-1.916,-1,5
479,3.76333,-1.946,-1,5
480,3.76137,-1.959,-1,5
481,3.75940,-1.967,-1,5
482,3.75743,-1.967,-1,5
483,3.75543,-2.002,-1,5
484,3.75341,-2.019,-1,5
485,3.75138,-2.032,-1,5
486,3.74933,-2.071,-1,5
487,3.74726,-2.071,-1,5
488,3.74519,-2.067,-1,5
489,3.74310,-2.123,-1,5
490,3.74097,-2.127,-1,5
491,3.73670,-2.149,-1,5
492,3.73453,-2.166,-1,5
493,3.73236,-2.174,-1,5
494,3.73017,-2.187,-1,5
495,3.72796,-2.213,-1,5
496,3.72573,-2.226,-1,5
497,3.72348,-2.252,-1,5
498,3.72122,-2.256,-1,5
499,3.71894,-2.287,-1,5
500,3.71663,-2.304,-1,5
501,3.71431,-2.325,-1,5
502,3.71197,-2.334,-1,5
503,3.70963,-2.347,-1,5
504,3.70727,-2.351,-1,5
505,3.70490,-2.377,-1,5
506,3.70250,-2.394,-1,5
507,3.70009,-2.412,-1,5
508,3.69766,-2.429,-1,5
509,3.69521,-2.451,-1,5
510,3.69275,-2.459,-1,5
511,3.69029,-2.459,-1,5
512,3.68781,-2.485,-1,5
513,3.68528,-2.528,-1,5
514,3.68276,-2.537,-1,5
515,3.67769,-2.541,-1,5
516,3.67512,-2.563,-1,5
517,3.67254,-2.589,-1,5
518,3.66993,-2.602,-1,5
519,3.66730,-2.632,-1,5
520,3.66467,-2.627,-1,5
521,3.66203,-2.640,-1,5
522,3.65936,-2.671,-1,5
523,3.65669,-2.675,-1,5
524,3.65399,-2.701,-1,5
525,3.65128,-2.709,-1,5
526,3.64856,-2.722,-1,5
527,3.64582,-2.740,-1,5
528,3.64305,-2.770,-1,5
529,3.64028,-2.770,-1,5
530,3.63749,-2.791,-1,5
531,3.63468,-2.809,-1,5
532,3.63185,-2.830,-1,5
533,3.62901,-2.835,-1,5
534,3.62617,-2.847,-1,5
535,3.62328,-2.882,-1,5
536,3.62040,-2.886,-1,5
537,3.61456,-2.925,-1,5
538,3.61163,-2.929,-1,5
539,3.60869,-2.942,-1,5
540,3.60572,-2.973,-1,5
541,3.60273,-2.981,-1,5
542,3.59973,-3.007,-1,5
543,3.59674,-2.990,-1,5
544,3.59371,-3.029,-1,5
545,3.59067,-3.042,-1,5
546,3.58760,-3.063,-1,5
547,3.58455,-3.055,-1,5
548,3.58147,-3.080,-1,5
549,3.57835,-3.124,-1,5
550,3.57524,-3.102,-1,5
551,3.57212,-3.119,-1,5
552,3.56896,-3.167,-1,5
553,3.56579,-3.167,-1,5
554,3.55943,-3.193,-1,5
555,3.55622,-3.214,-1,5
556,3.55301,-3.206,-1,5
557,3.55301,-3.236,-1,5
558,3.54978,-3.266,-1,5
559,3.54651,-3.257,-1,5
560,3.53996,-3.296,-1,5
561,3.53667,-3.288,-1,5
562,3.53337,-3.300,-1,5
563,3.53002,-3.348,-1,5
564,3.52667,-3.348,-1,5
565,3.52332,-3.352,-1,5
566,3.51995,-3.374,-1,5
567,3.51658,-3.369,-1,5
568,3.51317,-3.408,-1,5
569,3.50976,-3.417,-1,5
570,3.50634,-3.417,-1,5
571,3.50290,-3.460,-1,5
572,3.49944,-3.482,-1,5
573,3.49595,-3.482,-1,5
574,3.49250,-3.512,-1,5
575,3.48550,-3.486,-1,5
576,3.48197,-3.533,-1,5
577,3.47842,-3.546,-1,5
578,3.47491,-3.516,-1,5
579,3.47133,-3.572,-1,5
580,3.46776,-3.577,-1,5
581,3.46415,-3.602,-1,5
582,3.46057,-3.581,-1,5
583,3.45697,-3.602,-1,5
584,3.45334,-3.633,-1,5
585,3.44969,-3.650,-1,5
586,3.44605,-3.641,-1,5
587,3.44240,-3.650,-1,5
588,3.43872,-3.676,-1,5
589,3.43502,-3.697,-1,5
590,3.42761,-3.702,-1,5
591,3.42388,-3.732,-1,5
592,3.42014,-3.732,-1,5
593,3.41639,-3.758,-1,5
594,3.41264,-3.749,-1,5
595,3.40888,-3.758,-1,5
596,3.40511,-3.766,-1,5
597,3.40132,-3.788,-1,5
598,3.39751,-3.810,-1,5
599,3.39372,-3.792,-1,5
600,3.38992,-3.805,-1,5
601,3.38608,-3.835,-1,5
602,3.38223,-3.848,-1,5
603,3.37840,-3.831,-1,5
604,3.37457,-3.835,-1,5
605,3.37068,-3.857,-1,5
606,3.36295,-3.874,-1,5
607,3.35903,-3.922,-1,5
608,3.35513,-3.900,-1,5
609,3.35121,-3.922,-1,5
610,3.34729,-3.922,-1,5
611,3.34335,-3.939,-1,5
612,3.33939,-3.956,-1,5
613,3.33542,-3.969,-1,5
614,3.33145,-3.969,-1,5
615,3.32749,-3.965,-1,5
616,3.32350,-3.986,-1,5
617,3.31950,-4.004,-1,5
618,3.31549,-4.008,-1,5
619,3.31150,-3.991,-1,5
620,3.30749,-4.012,-1,5
621,3.30348,-4.012,-1,5
622,3.29538,-4.051,-1,5
623,3.29538,-4.025,-1,5
624,3.28730,-4.055,-1,5
625,3.28324,-4.060,-1,5
626,3.27920,-4.043,-1,5
627,3.27514,-4.060,-1,5
628,3.27107,-4.073,-1,5
629,3.26700,-4.068,-1,5
630,3.26290,-4.099,-1,5
631,3.25880,-4.103,-1,5
632,3.25471,-4.090,-1,5
633,3.25059,-4.116,-1,5
634,3.24647,-4.120,-1,5
635,3.24234,-4.129,-1,5
636,3.23409,-4.155,-1,5
637,3.23409,-4.129,-1,5
638,3.22581,-4.150,-1,5
639,3.22581,-4.150,-1,5
640,3.22166,-4.150,-1,5
641,3.21750,-4.129,-1,5
642,3.21338,-4.146,-1,5
