cnt,pos,speed,Dir,Force,
1,3.22512,4.004,-1,5
2,3.22910,3.978,-1,5
3,3.23305,3.956,-1,5
4,3.23698,3.930,-1,5
5,3.24090,3.913,-1,5
6,3.24477,3.879,-1,5
7,3.24864,3.831,-1,5
8,3.25623,3.758,-1,5
9,3.26002,3.784,-1,5
10,3.26378,3.758,-1,5
11,3.26753,3.758,-1,5
12,3.27124,3.706,-1,5
13,3.27492,3.684,-1,5
14,3.27856,3.641,-1,5
15,3.28220,3.637,-1,5
16,3.28580,3.594,-1,5
17,3.28941,3.615,-1,5
18,3.29296,3.546,-1,5
19,3.29650,3.542,-1,5
20,3.30000,3.499,-1,5
21,3.30351,3.516,-1,5
22,3.30696,3.447,-1,5
23,3.31041,3.447,-1,5
24,3.31723,3.378,-1,5
25,3.31723,3.387,-1,5
26,3.32061,3.369,-1,5
27,3.32398,3.313,-1,5
28,3.33057,3.279,-1,5
29,3.33386,3.288,-1,5
30,3.33714,3.279,-1,5
31,3.34038,3.236,-1,5
32,3.34359,3.218,-1,5
33,3.34677,3.171,-1,5
34,3.34993,3.167,-1,5
35,3.35306,3.124,-1,5
36,3.35616,3.106,-1,5
37,3.35925,3.085,-1,5
38,3.36232,3.076,-1,5
39,3.36538,3.059,-1,5
40,3.36841,3.024,-1,5
41,3.37137,2.964,-1,5
42,3.37434,2.973,-1,5
43,3.37729,2.951,-1,5
44,3.38019,2.899,-1,5
45,3.38309,2.899,-1,5
46,3.38598,2.886,-1,5
47,3.38883,2.835,-1,5
48,3.39166,2.835,-1,5
49,3.39445,2.783,-1,5
50,3.39723,2.748,-1,5
51,3.39998,2.748,-1,5
52,3.40271,2.722,-1,5
53,3.40811,2.671,-1,5
54,3.41077,2.666,-1,5
55,3.41343,2.653,-1,5
56,3.41604,2.614,-1,5
57,3.41864,2.597,-1,5
58,3.42120,2.558,-1,5
59,3.42375,2.550,-1,5
60,3.42627,2.520,-1,5
61,3.42879,2.520,-1,5
62,3.43127,2.489,-1,5
63,3.43373,2.459,-1,5
64,3.43617,2.438,-1,5
65,3.43858,2.407,-1,5
66,3.44096,2.386,-1,5
67,3.44332,2.356,-1,5
68,3.44794,2.295,-1,5
69,3.45024,2.291,-1,5
70,3.45251,2.269,-1,5
71,3.45474,2.239,-1,5
72,3.45697,2.222,-1,5
73,3.45917,2.205,-1,5
74,3.46136,2.187,-1,5
75,3.46347,2.114,-1,5
76,3.46559,2.123,-1,5
77,3.46770,2.105,-1,5
78,3.46976,2.058,-1,5
79,3.47182,2.058,-1,5
80,3.47384,2.023,-1,5
81,3.47584,1.998,-1,5
82,3.47781,1.972,-1,5
83,3.47977,1.959,-1,5
84,3.48171,1.898,-1,5
85,3.48361,1.881,-1,5
86,3.48549,1.855,-1,5
87,3.48734,1.829,-1,5
88,3.49098,1.803,-1,5
89,3.49098,1.790,-1,5
90,3.49454,1.769,-1,5
91,3.49626,1.721,-1,5
92,3.49797,1.713,-1,5
93,3.49967,1.704,-1,5
94,3.50133,1.661,-1,5
95,3.50300,1.670,-1,5
96,3.50462,1.614,-1,5
97,3.50621,1.596,-1,5
98,3.50779,1.575,-1,5
99,3.50934,1.549,-1,5
100,3.51087,1.532,-1,5
101,3.51240,1.532,-1,5
102,3.51386,1.458,-1,5
103,3.51531,1.454,-1,5
104,3.51676,1.450,-1,5
105,3.51814,1.402,-1,5
106,3.52092,1.376,-1,5
107,3.52092,1.337,-1,5
108,3.52226,1.337,-1,5
109,3.52487,1.299,-1,5
110,3.52487,1.268,-1,5
111,3.52740,1.264,-1,5
112,3.52740,1.221,-1,5
113,3.52983,1.208,-1,5
114,3.53101,1.182,-1,5
115,3.53217,1.161,-1,5
116,3.53331,1.139,-1,5
117,3.53442,1.104,-1,5
118,3.53551,1.092,-1,5
119,3.53655,1.044,-1,5
120,3.53760,1.048,-1,5
121,3.53859,0.992,-1,5
122,3.53960,1.010,-1,5
123,3.54057,0.966,-1,5
124,3.54153,0.958,-1,5
125,3.54245,0.923,-1,5
126,3.54336,0.910,-1,5
127,3.54423,0.871,-1,5
128,3.54509,0.863,-1,5
129,3.54673,0.811,-1,5
130,3.54752,0.794,-1,5
131,3.54827,0.751,-1,5
132,3.54903,0.759,-1,5
133,3.54973,0.699,-1,5
134,3.55042,0.690,-1,5
135,3.55109,0.673,-1,5
136,3.55173,0.634,-1,5
137,3.55234,0.617,-1,5
138,3.55295,0.608,-1,5
139,3.55352,0.569,-1,5
140,3.55406,0.544,-1,5
141,3.55458,0.518,-1,5
142,3.55510,0.513,-1,5
143,3.55557,0.479,-1,5
144,3.55646,0.436,-1,5
145,3.55646,0.401,-1,5
146,3.55726,0.397,-1,5
147,3.55763,0.371,-1,5
148,3.55797,0.337,-1,5
149,3.55828,0.315,-1,5
150,3.55858,0.298,-1,5
151,3.55884,0.263,-1,5
152,3.55909,0.246,-1,5
153,3.55930,0.211,-1,5
154,3.55952,0.220,-1,5
155,3.55970,0.177,-1,5
156,3.55985,0.155,-1,5
157,3.55999,0.134,-1,5
158,3.56009,0.099,-1,5
159,3.56016,0.060,-1,5
160,3.56023,0.039,-1,5
161,3.56028,0.017,-1,5
162,3.56028,-0.009,-1,5
163,3.56027,-0.009,-1,5
164,3.56019,-0.052,-1,5
165,3.56019,-0.078,-1,5
166,3.56002,-0.095,-1,5
167,3.55990,-0.121,-1,5
168,3.55975,-0.147,-1,5
169,3.55960,-0.160,-1,5
170,3.55940,-0.194,-1,5
171,3.55919,-0.211,-1,5
172,3.55896,-0.229,-1,5
173,3.55871,-0.250,-1,5
174,3.55844,-0.272,-1,5
175,3.55815,-0.289,-1,5
176,3.55783,-0.319,-1,5
177,3.55750,-0.332,-1,5
178,3.55712,-0.380,-1,5
179,3.55674,-0.380,-1,5
180,3.55634,-0.401,-1,5
181,3.55592,-0.418,-1,5
182,3.55501,-0.475,-1,5
183,3.55453,-0.483,-1,5
184,3.55402,-0.505,-1,5
185,3.55349,-0.526,-1,5
186,3.55294,-0.557,-1,5
187,3.55236,-0.578,-1,5
188,3.55177,-0.587,-1,5
189,3.55117,-0.600,-1,5
190,3.55053,-0.656,-1,5
191,3.54987,-0.664,-1,5
192,3.54921,-0.664,-1,5
193,3.54778,-0.712,-1,5
194,3.54704,-0.738,-1,5
195,3.54627,-0.768,-1,5
196,3.54550,-0.777,-1,5
197,3.54469,-0.807,-1,5
198,3.54387,-0.820,-1,5
199,3.54303,-0.837,-1,5
200,3.54216,-0.876,-1,5
201,3.54128,-0.876,-1,5
202,3.54035,-0.928,-1,5
203,3.53943,-0.919,-1,5
204,3.53848,-0.953,-1,5
205,3.53753,-0.949,-1,5
206,3.53653,-0.992,-1,5
207,3.53554,-0.992,-1,5
208,3.53450,-1.035,-1,5
209,3.53346,-1.040,-1,5
210,3.53238,-1.083,-1,5
211,3.53130,-1.122,-1,5
212,3.52905,-1.126,-1,5
213,3.52788,-1.165,-1,5
214,3.52670,-1.182,-1,5
215,3.52551,-1.191,-1,5
216,3.52429,-1.221,-1,5
217,3.52308,-1.212,-1,5
218,3.52183,-1.251,-1,5
219,3.52055,-1.277,-1,5
220,3.51925,-1.316,-1,5
221,3.51793,-1.316,-1,5
222,3.51661,-1.320,-1,5
223,3.51524,-1.372,-1,5
224,3.51386,-1.381,-1,5
225,3.51248,-1.376,-1,5
226,3.50961,-1.432,-1,5
227,3.50816,-1.450,-1,5
228,3.50668,-1.488,-1,5
229,3.50520,-1.475,-1,5
230,3.50367,-1.527,-1,5
231,3.50213,-1.540,-1,5
232,3.50056,-1.570,-1,5
233,3.49897,-1.588,-1,5
234,3.49739,-1.588,-1,5
235,3.49577,-1.618,-1,5
236,3.49413,-1.635,-1,5
237,3.49248,-1.657,-1,5
238,3.49080,-1.678,-1,5
239,3.48910,-1.700,-1,5
240,3.48738,-1.717,-1,5
241,3.48564,-1.743,-1,5
242,3.48387,-1.769,-1,5
243,3.48209,-1.782,-1,5
244,3.48028,-1.812,-1,5
245,3.47845,-1.829,-1,5
246,3.47659,-1.855,-1,5
247,3.47475,-1.872,-1,5
248,3.47288,-1.872,-1,5
249,3.47097,-1.929,-1,5
250,3.46709,-1.946,-1,5
251,3.46512,-1.976,-1,5
252,3.46314,-1.980,-1,5
253,3.46114,-1.998,-1,5
254,3.45911,-2.032,-1,5
255,3.45705,-2.058,-1,5
256,3.45498,-2.071,-1,5
257,3.45288,-2.092,-1,5
258,3.45077,-2.114,-1,5
259,3.44864,-2.136,-1,5
260,3.44649,-2.144,-1,5
261,3.44433,-2.166,-1,5
262,3.44213,-2.192,-1,5
263,3.43992,-2.209,-1,5
264,3.43769,-2.235,-1,5
265,3.43543,-2.278,-1,5
266,3.43316,-2.278,-1,5
267,3.43088,-2.274,-1,5
268,3.42855,-2.351,-1,5
269,3.42620,-2.351,-1,5
270,3.42386,-2.338,-1,5
271,3.42148,-2.382,-1,5
272,3.41910,-2.382,-1,5
273,3.41426,-2.412,-1,5
274,3.41181,-2.455,-1,5
275,3.40934,-2.468,-1,5
276,3.40687,-2.472,-1,5
277,3.40435,-2.520,-1,5
278,3.40182,-2.528,-1,5
279,3.39928,-2.545,-1,5
280,3.39671,-2.563,-1,5
281,3.39413,-2.584,-1,5
282,3.39155,-2.580,-1,5
283,3.38892,-2.632,-1,5
284,3.38625,-2.662,-1,5
285,3.38359,-2.666,-1,5
286,3.38091,-2.675,-1,5
287,3.37820,-2.709,-1,5
288,3.37275,-2.753,-1,5
289,3.36999,-2.753,-1,5
290,3.36719,-2.800,-1,5
291,3.36440,-2.791,-1,5
292,3.36157,-2.835,-1,5
293,3.35872,-2.852,-1,5
294,3.35586,-2.860,-1,5
295,3.35297,-2.886,-1,5
296,3.35006,-2.912,-1,5
297,3.34715,-2.912,-1,5
298,3.34419,-2.955,-1,5
299,3.34123,-2.955,-1,5
300,3.33822,-3.016,-1,5
301,3.33521,-3.007,-1,5
302,3.33217,-3.046,-1,5
303,3.32913,-3.033,-1,5
304,3.32607,-3.098,-1,5
305,3.32298,-3.098,-1,5
306,3.31987,-3.158,-1,5
307,3.31671,-3.158,-1,5
308,3.31043,-3.171,-1,5
309,3.31043,-3.175,-1,5
310,3.30403,-3.218,-1,5
311,3.30081,-3.223,-1,5
312,3.29755,-3.257,-1,5
313,3.29429,-3.262,-1,5
314,3.29103,-3.262,-1,5
315,3.28771,-3.322,-1,5
316,3.28438,-3.322,-1,5
317,3.28104,-3.344,-1,5
318,3.27769,-3.348,-1,5
319,3.27432,-3.378,-1,5
320,3.27092,-3.400,-1,5
321,3.26750,-3.434,-1,5
322,3.26406,-3.434,-1,5
323,3.26059,-3.473,-1,5
324,3.25709,-3.499,-1,5
325,3.25358,-3.516,-1,5
326,3.24654,-3.533,-1,5
327,3.24295,-3.585,-1,5
328,3.23937,-3.577,-1,5
329,3.23576,-3.615,-1,5
330,3.23213,-3.624,-1,5
331,3.22847,-3.663,-1,5
332,3.22480,-3.671,-1,5
