cnt,pos,speed,Dir,Force,
1,3.22189,3.257,-1,7
2,3.22511,3.227,-1,7
3,3.22831,3.193,-1,7
4,3.23463,3.149,-1,7
5,3.23773,3.106,-1,7
6,3.24084,3.106,-1,7
7,3.24389,3.055,-1,7
8,3.24696,3.063,-1,7
9,3.24996,3.007,-1,7
10,3.25296,2.994,-1,7
11,3.25590,2.942,-1,7
12,3.25884,2.942,-1,7
13,3.26175,2.908,-1,7
14,3.26466,2.904,-1,7
15,3.26752,2.860,-1,7
16,3.27033,2.817,-1,7
17,3.27592,2.791,-1,7
18,3.27866,2.740,-1,7
19,3.28138,2.714,-1,7
20,3.28407,2.696,-1,7
21,3.28676,2.684,-1,7
22,3.28942,2.658,-1,7
23,3.29204,2.627,-1,7
24,3.29462,2.576,-1,7
25,3.29720,2.580,-1,7
26,3.29975,2.550,-1,7
27,3.30227,2.520,-1,7
28,3.30475,2.485,-1,7
29,3.30723,2.481,-1,7
30,3.30969,2.455,-1,7
31,3.31210,2.416,-1,7
32,3.31449,2.382,-1,7
33,3.31684,2.364,-1,7
34,3.32153,2.325,-1,7
35,3.32382,2.287,-1,7
36,3.32609,2.269,-1,7
37,3.32830,2.213,-1,7
38,3.33051,2.209,-1,7
39,3.33270,2.187,-1,7
40,3.33487,2.170,-1,7
41,3.33700,2.136,-1,7
42,3.33912,2.118,-1,7
43,3.34120,2.080,-1,7
44,3.34326,2.062,-1,7
45,3.34528,1.998,-1,7
46,3.34922,1.950,-1,7
47,3.34922,1.946,-1,7
48,3.35308,1.911,-1,7
49,3.35498,1.894,-1,7
50,3.35683,1.855,-1,7
51,3.35866,1.829,-1,7
52,3.36049,1.825,-1,7
53,3.36226,1.773,-1,7
54,3.36402,1.760,-1,7
55,3.36576,1.739,-1,7
56,3.36743,1.674,-1,7
57,3.36911,1.678,-1,7
58,3.37075,1.639,-1,7
59,3.37236,1.614,-1,7
60,3.37394,1.575,-1,7
61,3.37550,1.562,-1,7
62,3.37705,1.549,-1,7
63,3.38002,1.480,-1,7
64,3.38145,1.437,-1,7
65,3.38287,1.419,-1,7
66,3.38427,1.402,-1,7
67,3.38565,1.381,-1,7
68,3.38700,1.342,-1,7
69,3.38831,1.312,-1,7
70,3.38959,1.286,-1,7
71,3.39084,1.251,-1,7
72,3.39208,1.204,-1,7
73,3.39443,1.152,-1,7
74,3.39443,1.148,-1,7
75,3.39668,1.096,-1,7
76,3.39668,1.096,-1,7
77,3.39883,1.057,-1,7
78,3.39986,1.031,-1,7
79,3.40087,1.010,-1,7
80,3.40184,0.971,-1,7
81,3.40280,0.953,-1,7
82,3.40371,0.919,-1,7
83,3.40461,0.893,-1,7
84,3.40547,0.859,-1,7
85,3.40630,0.833,-1,7
86,3.40712,0.820,-1,7
87,3.40862,0.742,-1,7
88,3.40934,0.725,-1,7
89,3.40934,0.682,-1,7
90,3.41069,0.664,-1,7
91,3.41069,0.639,-1,7
92,3.41193,0.604,-1,7
93,3.41251,0.574,-1,7
94,3.41306,0.557,-1,7
95,3.41358,0.518,-1,7
96,3.41406,0.483,-1,7
97,3.41452,0.457,-1,7
98,3.41495,0.427,-1,7
99,3.41535,0.406,-1,7
100,3.41573,0.380,-1,7
101,3.41607,0.332,-1,7
102,3.41638,0.311,-1,7
103,3.41667,0.255,-1,7
104,3.41692,0.255,-1,7
105,3.41715,0.203,-1,7
106,3.41735,0.203,-1,7
107,3.41751,0.164,-1,7
108,3.41776,0.108,-1,7
109,3.41784,0.082,-1,7
110,3.41790,0.052,-1,7
111,3.41792,0.022,-1,7
112,3.41791,-0.009,-1,7
113,3.41787,-0.043,-1,7
114,3.41780,-0.060,-1,7
115,3.41771,-0.091,-1,7
116,3.41759,-0.121,-1,7
117,3.41743,-0.164,-1,7
118,3.41726,-0.168,-1,7
119,3.41704,-0.220,-1,7
120,3.41681,-0.229,-1,7
121,3.41655,-0.259,-1,7
122,3.41626,-0.293,-1,7
123,3.41595,-0.311,-1,7
124,3.41561,-0.337,-1,7
125,3.41523,-0.380,-1,7
126,3.41483,-0.401,-1,7
127,3.41441,-0.418,-1,7
128,3.41397,-0.449,-1,7
129,3.41349,-0.479,-1,7
130,3.41298,-0.505,-1,7
131,3.41244,-0.539,-1,7
132,3.41130,-0.582,-1,7
133,3.41069,-0.617,-1,7
134,3.41004,-0.643,-1,7
135,3.40938,-0.660,-1,7
136,3.40869,-0.690,-1,7
137,3.40797,-0.720,-1,7
138,3.40723,-0.738,-1,7
139,3.40646,-0.772,-1,7
140,3.40567,-0.820,-1,7
141,3.40485,-0.863,-1,7
142,3.40399,-0.863,-1,7
143,3.40312,-0.915,-1,7
144,3.40220,-0.915,-1,7
145,3.40032,-0.966,-1,7
146,3.39934,-0.975,-1,7
147,3.39833,-1.018,-1,7
148,3.39731,-1.018,-1,7
149,3.39624,-1.070,-1,7
150,3.39518,-1.061,-1,7
151,3.39406,-1.113,-1,7
152,3.39294,-1.126,-1,7
153,3.39177,-1.169,-1,7
154,3.39057,-1.199,-1,7
155,3.38938,-1.191,-1,7
156,3.38813,-1.251,-1,7
157,3.38686,-1.294,-1,7
158,3.38557,-1.294,-1,7
159,3.38424,-1.337,-1,7
160,3.38291,-1.337,-1,7
161,3.38015,-1.385,-1,7
162,3.37873,-1.411,-1,7
163,3.37729,-1.441,-1,7
164,3.37582,-1.475,-1,7
165,3.37431,-1.506,-1,7
166,3.37280,-1.510,-1,7
167,3.37124,-1.557,-1,7
168,3.36967,-1.570,-1,7
169,3.36810,-1.575,-1,7
170,3.36647,-1.626,-1,7
171,3.36482,-1.657,-1,7
172,3.36315,-1.665,-1,7
173,3.36143,-1.717,-1,7
174,3.35970,-1.739,-1,7
175,3.35796,-1.739,-1,7
176,3.35617,-1.782,-1,7
177,3.35256,-1.825,-1,7
178,3.35069,-1.864,-1,7
179,3.35069,-1.872,-1,7
180,3.34882,-1.898,-1,7
181,3.34692,-1.898,-1,7
182,3.34500,-1.950,-1,7
183,3.34305,-1.950,-1,7
184,3.33906,-2.006,-1,7
185,3.33702,-2.045,-1,7
186,3.33495,-2.062,-1,7
187,3.33287,-2.080,-1,7
188,3.33075,-2.123,-1,7
189,3.32862,-2.136,-1,7
190,3.32648,-2.136,-1,7
191,3.32429,-2.187,-1,7
192,3.32207,-2.218,-1,7
193,3.31984,-2.261,-1,7
194,3.31758,-2.282,-1,7
195,3.31530,-2.308,-1,7
196,3.31299,-2.308,-1,7
197,3.31066,-2.334,-1,7
198,3.30830,-2.356,-1,7
199,3.30352,-2.399,-1,7
200,3.30108,-2.438,-1,7
201,3.29863,-2.446,-1,7
202,3.29615,-2.485,-1,7
203,3.29365,-2.502,-1,7
204,3.29112,-2.524,-1,7
205,3.28856,-2.563,-1,7
206,3.28597,-2.589,-1,7
207,3.28338,-2.597,-1,7
208,3.28075,-2.623,-1,7
209,3.27810,-2.653,-1,7
210,3.27543,-2.671,-1,7
211,3.27273,-2.696,-1,7
212,3.26999,-2.744,-1,7
213,3.26727,-2.722,-1,7
214,3.26448,-2.783,-1,7
215,3.26166,-2.822,-1,7
216,3.25884,-2.869,-1,7
217,3.25597,-2.869,-1,7
218,3.25310,-2.869,-1,7
219,3.24726,-2.934,-1,7
220,3.24430,-2.955,-1,7
221,3.24132,-2.986,-1,7
222,3.23832,-2.994,-1,7
223,3.23527,-3.055,-1,7
224,3.23222,-3.046,-1,7
225,3.22914,-3.089,-1,7
226,3.22602,-3.115,-1,7
227,3.22289,-3.128,-1,7
