cnt,pos,speed,Dir,Force,
1,3.21509,2.925,-1,5
2,3.21804,2.955,-1,5
3,3.22101,2.964,-1,5
4,3.22396,2.951,-1,5
5,3.22690,2.942,-1,5
6,3.22988,2.981,-1,5
7,3.23281,2.925,-1,5
8,3.23574,2.938,-1,5
9,3.23873,2.981,-1,5
10,3.24165,2.921,-1,5
11,3.24460,2.955,-1,5
12,3.24754,2.934,-1,5
13,3.25049,2.955,-1,5
14,3.25342,2.925,-1,5
15,3.25634,2.925,-1,5
16,3.25928,2.934,-1,5
17,3.26220,2.929,-1,5
18,3.26514,2.938,-1,5
19,3.26806,2.916,-1,5
20,3.27099,2.934,-1,5
21,3.27389,2.895,-1,5
22,3.27682,2.929,-1,5
23,3.27973,2.912,-1,5
24,3.28262,2.891,-1,5
25,3.28552,2.895,-1,5
26,3.28843,2.912,-1,5
27,3.29134,2.908,-1,5
28,3.29422,2.886,-1,5
29,3.29711,2.886,-1,5
30,3.29999,2.886,-1,5
31,3.30287,2.878,-1,5
32,3.30575,2.882,-1,5
33,3.30862,2.869,-1,5
34,3.31152,2.895,-1,5
35,3.31437,2.856,-1,5
36,3.31724,2.865,-1,5
37,3.32012,2.878,-1,5
38,3.32297,2.856,-1,5
39,3.32585,2.878,-1,5
40,3.32867,2.822,-1,5
41,3.33153,2.860,-1,5
42,3.33437,2.839,-1,5
43,3.33723,2.856,-1,5
44,3.34007,2.843,-1,5
45,3.34290,2.835,-1,5
46,3.34575,2.847,-1,5
47,3.34856,2.809,-1,5
48,3.35137,2.809,-1,5
49,3.35419,2.817,-1,5
50,3.35699,2.809,-1,5
51,3.35979,2.796,-1,5
52,3.36260,2.809,-1,5
53,3.36542,2.817,-1,5
54,3.36822,2.804,-1,5
55,3.37097,2.753,-1,5
56,3.37374,2.765,-1,5
57,3.37650,2.761,-1,5
58,3.37928,2.783,-1,5
59,3.38201,2.731,-1,5
60,3.38478,2.765,-1,5
61,3.38755,2.774,-1,5
62,3.39029,2.735,-1,5
63,3.39304,2.753,-1,5
64,3.39575,2.709,-1,5
65,3.39846,2.714,-1,5
66,3.40121,2.748,-1,5
67,3.40392,2.705,-1,5
68,3.40664,2.718,-1,5
69,3.40933,2.696,-1,5
70,3.41203,2.701,-1,5
71,3.41473,2.696,-1,5
72,3.41742,2.692,-1,5
73,3.42010,2.684,-1,5
74,3.42277,2.666,-1,5
75,3.42544,2.671,-1,5
76,3.42810,2.662,-1,5
77,3.43076,2.658,-1,5
78,3.43341,2.653,-1,5
79,3.43606,2.645,-1,5
80,3.43869,2.636,-1,5
81,3.44130,2.606,-1,5
82,3.44393,2.627,-1,5
83,3.44653,2.597,-1,5
84,3.44912,2.597,-1,5
85,3.45173,2.610,-1,5
86,3.45433,2.597,-1,5
87,3.45691,2.580,-1,5
88,3.45950,2.593,-1,5
89,3.46205,2.550,-1,5
90,3.46460,2.550,-1,5
91,3.46717,2.563,-1,5
92,3.46970,2.537,-1,5
93,3.47224,2.537,-1,5
94,3.47477,2.533,-1,5
95,3.47729,2.515,-1,5
96,3.47981,2.524,-1,5
97,3.48231,2.502,-1,5
98,3.48481,2.494,-1,5
99,3.48730,2.498,-1,5
100,3.48979,2.489,-1,5
101,3.49225,2.459,-1,5
102,3.49474,2.489,-1,5
103,3.49718,2.438,-1,5
104,3.49964,2.459,-1,5
105,3.50208,2.442,-1,5
106,3.50453,2.446,-1,5
107,3.50696,2.429,-1,5
108,3.50938,2.420,-1,5
109,3.51179,2.416,-1,5
110,3.51420,2.403,-1,5
111,3.51659,2.399,-1,5
112,3.51898,2.382,-1,5
113,3.52136,2.382,-1,5
114,3.52371,2.356,-1,5
115,3.52607,2.356,-1,5
116,3.52843,2.364,-1,5
117,3.53078,2.343,-1,5
118,3.53312,2.347,-1,5
119,3.53544,2.321,-1,5
120,3.53775,2.304,-1,5
121,3.54004,2.295,-1,5
122,3.54235,2.304,-1,5
123,3.54462,2.278,-1,5
124,3.54692,2.291,-1,5
125,3.54919,2.274,-1,5
126,3.55144,2.248,-1,5
127,3.55368,2.239,-1,5
128,3.55591,2.231,-1,5
129,3.55813,2.226,-1,5
130,3.56033,2.200,-1,5
131,3.56253,2.200,-1,5
132,3.56472,2.192,-1,5
133,3.56690,2.174,-1,5
134,3.56907,2.174,-1,5
135,3.57124,2.166,-1,5
136,3.57339,2.153,-1,5
137,3.57553,2.136,-1,5
138,3.57765,2.123,-1,5
139,3.57977,2.118,-1,5
140,3.58188,2.110,-1,5
141,3.58398,2.097,-1,5
142,3.58606,2.080,-1,5
143,3.58813,2.071,-1,5
144,3.59020,2.071,-1,5
145,3.59225,2.058,-1,5
146,3.59429,2.036,-1,5
147,3.59632,2.028,-1,5
148,3.59832,2.002,-1,5
149,3.60034,2.015,-1,5
150,3.60234,2.002,-1,5
151,3.60433,1.993,-1,5
152,3.60630,1.972,-1,5
153,3.60827,1.967,-1,5
154,3.61021,1.941,-1,5
155,3.61214,1.929,-1,5
156,3.61407,1.929,-1,5
157,3.61598,1.916,-1,5
158,3.61790,1.916,-1,5
159,3.61978,1.885,-1,5
160,3.62168,1.894,-1,5
161,3.62354,1.859,-1,5
162,3.62538,1.838,-1,5
163,3.62723,1.851,-1,5
164,3.62905,1.825,-1,5
165,3.63088,1.825,-1,5
166,3.63268,1.799,-1,5
167,3.63447,1.799,-1,5
168,3.63625,1.773,-1,5
169,3.63802,1.769,-1,5
170,3.63976,1.743,-1,5
171,3.64149,1.734,-1,5
172,3.64325,1.760,-1,5
173,3.64495,1.700,-1,5
174,3.64837,1.704,-1,5
175,3.65004,1.665,-1,5
176,3.65170,1.661,-1,5
177,3.65335,1.657,-1,5
178,3.65497,1.614,-1,5
179,3.65660,1.631,-1,5
180,3.65820,1.605,-1,5
181,3.65980,1.601,-1,5
182,3.66137,1.562,-1,5
183,3.66292,1.557,-1,5
184,3.66447,1.549,-1,5
185,3.66603,1.557,-1,5
186,3.66753,1.501,-1,5
187,3.66905,1.519,-1,5
188,3.67055,1.497,-1,5
189,3.67203,1.484,-1,5
190,3.67348,1.445,-1,5
191,3.67493,1.458,-1,5
192,3.67637,1.432,-1,5
193,3.67777,1.402,-1,5
194,3.67915,1.381,-1,5
195,3.68053,1.385,-1,5
196,3.68192,1.389,-1,5
197,3.68326,1.337,-1,5
198,3.68461,1.350,-1,5
199,3.68595,1.337,-1,5
200,3.68724,1.290,-1,5
201,3.68854,1.303,-1,5
202,3.68982,1.281,-1,5
203,3.69106,1.238,-1,5
204,3.69231,1.247,-1,5
205,3.69352,1.217,-1,5
206,3.69475,1.221,-1,5
207,3.69595,1.204,-1,5
208,3.69713,1.182,-1,5
209,3.69830,1.169,-1,5
210,3.69944,1.135,-1,5
211,3.70058,1.148,-1,5
212,3.70168,1.100,-1,5
213,3.70279,1.109,-1,5
214,3.70386,1.070,-1,5
215,3.70492,1.061,-1,5
216,3.70597,1.048,-1,5
217,3.70699,1.022,-1,5
218,3.70802,1.031,-1,5
219,3.70900,0.979,-1,5
220,3.71000,0.997,-1,5
221,3.71096,0.962,-1,5
222,3.71190,0.941,-1,5
223,3.71284,0.941,-1,5
224,3.71376,0.919,-1,5
225,3.71465,0.884,-1,5
226,3.71554,0.897,-1,5
227,3.71640,0.859,-1,5
228,3.71724,0.837,-1,5
229,3.71807,0.828,-1,5
230,3.71888,0.811,-1,5
231,3.71966,0.781,-1,5
232,3.72043,0.768,-1,5
233,3.72120,0.768,-1,5
234,3.72194,0.746,-1,5
235,3.72264,0.695,-1,5
236,3.72335,0.708,-1,5
237,3.72402,0.673,-1,5
238,3.72468,0.664,-1,5
239,3.72534,0.656,-1,5
240,3.72599,0.647,-1,5
241,3.72659,0.604,-1,5
242,3.72718,0.591,-1,5
243,3.72776,0.582,-1,5
244,3.72832,0.557,-1,5
245,3.72886,0.544,-1,5
246,3.72938,0.518,-1,5
247,3.72990,0.518,-1,5
248,3.73039,0.492,-1,5
249,3.73086,0.470,-1,5
250,3.73131,0.449,-1,5
251,3.73175,0.440,-1,5
252,3.73217,0.418,-1,5
253,3.73256,0.397,-1,5
254,3.73295,0.384,-1,5
255,3.73330,0.354,-1,5
256,3.73365,0.345,-1,5
257,3.73399,0.341,-1,5
258,3.73431,0.319,-1,5
259,3.73459,0.285,-1,5
260,3.73487,0.276,-1,5
261,3.73511,0.246,-1,5
262,3.73536,0.242,-1,5
263,3.73558,0.224,-1,5
264,3.73579,0.207,-1,5
265,3.73597,0.181,-1,5
266,3.73614,0.168,-1,5
267,3.73629,0.151,-1,5
268,3.73641,0.125,-1,5
269,3.73653,0.116,-1,5
270,3.73662,0.091,-1,5
271,3.73670,0.078,-1,5
272,3.73675,0.052,-1,5
273,3.73679,0.039,-1,5
274,3.73681,0.017,-1,5
275,3.73681,0.009,-1,5
276,3.73680,-0.017,-1,5
277,3.73676,-0.035,-1,5
278,3.73671,-0.056,-1,5
279,3.73665,-0.056,-1,5
280,3.73656,-0.086,-1,5
281,3.73646,-0.104,-1,5
282,3.73634,-0.121,-1,5
283,3.73621,-0.125,-1,5
284,3.73605,-0.164,-1,5
285,3.73589,-0.164,-1,5
286,3.73568,-0.203,-1,5
287,3.73550,-0.186,-1,5
288,3.73528,-0.216,-1,5
289,3.73505,-0.237,-1,5
290,3.73480,-0.250,-1,5
291,3.73454,-0.259,-1,5
292,3.73426,-0.272,-1,5
293,3.73396,-0.302,-1,5
294,3.73364,-0.324,-1,5
295,3.73331,-0.328,-1,5
296,3.73297,-0.341,-1,5
297,3.73262,-0.354,-1,5
298,3.73224,-0.375,-1,5
299,3.73185,-0.393,-1,5
300,3.73143,-0.414,-1,5
301,3.73102,-0.418,-1,5
302,3.73058,-0.440,-1,5
303,3.73013,-0.444,-1,5
304,3.72965,-0.483,-1,5
305,3.72916,-0.488,-1,5
306,3.72866,-0.496,-1,5
307,3.72815,-0.513,-1,5
308,3.72761,-0.539,-1,5
309,3.72706,-0.552,-1,5
310,3.72650,-0.561,-1,5
311,3.72592,-0.578,-1,5
312,3.72531,-0.613,-1,5
313,3.72470,-0.613,-1,5
314,3.72406,-0.634,-1,5
315,3.72343,-0.634,-1,5
316,3.72277,-0.660,-1,5
317,3.72210,-0.669,-1,5
318,3.72140,-0.695,-1,5
319,3.72068,-0.720,-1,5
320,3.71995,-0.729,-1,5
321,3.71922,-0.733,-1,5
322,3.71846,-0.764,-1,5
323,3.71768,-0.781,-1,5
324,3.71690,-0.777,-1,5
325,3.71609,-0.811,-1,5
326,3.71526,-0.828,-1,5
327,3.71442,-0.841,-1,5
328,3.71358,-0.841,-1,5
329,3.71271,-0.867,-1,5
330,3.71181,-0.897,-1,5
331,3.71092,-0.893,-1,5
332,3.71001,-0.915,-1,5
333,3.70906,-0.941,-1,5
334,3.70812,-0.949,-1,5
335,3.70715,-0.966,-1,5
336,3.70617,-0.984,-1,5
337,3.70518,-0.984,-1,5
338,3.70416,-1.022,-1,5
339,3.70313,-1.027,-1,5
340,3.70209,-1.044,-1,5
341,3.70104,-1.044,-1,5
342,3.69996,-1.083,-1,5
343,3.69886,-1.100,-1,5
344,3.69776,-1.104,-1,5
345,3.69663,-1.126,-1,5
346,3.69548,-1.148,-1,5
347,3.69433,-1.152,-1,5
348,3.69316,-1.173,-1,5
349,3.69198,-1.182,-1,5
350,3.69077,-1.208,-1,5
351,3.68956,-1.212,-1,5
352,3.68833,-1.225,-1,5
353,3.68707,-1.255,-1,5
354,3.68582,-1.255,-1,5
355,3.68453,-1.294,-1,5
356,3.68322,-1.307,-1,5
357,3.68192,-1.294,-1,5
358,3.68058,-1.346,-1,5
359,3.67922,-1.355,-1,5
360,3.67790,-1.324,-1,5
361,3.67652,-1.381,-1,5
362,3.67513,-1.385,-1,5
363,3.67373,-1.406,-1,5
364,3.67230,-1.424,-1,5
365,3.67086,-1.445,-1,5
366,3.66939,-1.471,-1,5
367,3.66794,-1.445,-1,5
368,3.66644,-1.497,-1,5
369,3.66493,-1.510,-1,5
370,3.66341,-1.523,-1,5
371,3.66191,-1.506,-1,5
372,3.66035,-1.557,-1,5
373,3.65879,-1.562,-1,5
374,3.65721,-1.575,-1,5
375,3.65562,-1.592,-1,5
376,3.65400,-1.618,-1,5
377,3.65238,-1.622,-1,5
378,3.65075,-1.631,-1,5
379,3.64909,-1.661,-1,5
380,3.64740,-1.683,-1,5
381,3.64573,-1.678,-1,5
382,3.64401,-1.717,-1,5
383,3.64227,-1.739,-1,5
384,3.64056,-1.708,-1,5
385,3.63880,-1.765,-1,5
386,3.63705,-1.752,-1,5
387,3.63527,-1.773,-1,5
388,3.63347,-1.808,-1,5
389,3.63166,-1.808,-1,5
390,3.62983,-1.825,-1,5
391,3.62799,-1.838,-1,5
392,3.62615,-1.847,-1,5
393,3.62428,-1.868,-1,5
394,3.62239,-1.885,-1,5
395,3.62048,-1.911,-1,5
396,3.61855,-1.929,-1,5
397,3.61662,-1.937,-1,5
398,3.61466,-1.959,-1,5
399,3.61269,-1.972,-1,5
400,3.61072,-1.967,-1,5
401,3.60873,-1.993,-1,5
402,3.60671,-2.019,-1,5
403,3.60468,-2.023,-1,5
404,3.60263,-2.058,-1,5
405,3.60057,-2.058,-1,5
406,3.59849,-2.080,-1,5
407,3.59641,-2.075,-1,5
408,3.59432,-2.097,-1,5
409,3.59220,-2.114,-1,5
410,3.59007,-2.131,-1,5
411,3.58791,-2.157,-1,5
412,3.58576,-2.157,-1,5
413,3.58357,-2.187,-1,5
414,3.58138,-2.192,-1,5
415,3.57916,-2.222,-1,5
416,3.57692,-2.235,-1,5
417,3.57469,-2.235,-1,5
418,3.57243,-2.256,-1,5
419,3.57014,-2.287,-1,5
420,3.56784,-2.304,-1,5
421,3.56554,-2.304,-1,5
422,3.56322,-2.321,-1,5
423,3.56087,-2.347,-1,5
424,3.55853,-2.338,-1,5
425,3.55614,-2.390,-1,5
426,3.55377,-2.369,-1,5
427,3.55137,-2.399,-1,5
428,3.54897,-2.403,-1,5
429,3.54651,-2.455,-1,5
430,3.54407,-2.442,-1,5
431,3.54160,-2.472,-1,5
432,3.53913,-2.472,-1,5
433,3.53662,-2.507,-1,5
434,3.53412,-2.498,-1,5
435,3.53159,-2.537,-1,5
436,3.52905,-2.533,-1,5
437,3.52647,-2.589,-1,5
438,3.52390,-2.563,-1,5
439,3.52133,-2.571,-1,5
440,3.51872,-2.614,-1,5
441,3.51609,-2.623,-1,5
442,3.51346,-2.636,-1,5
443,3.51080,-2.653,-1,5
444,3.50814,-2.662,-1,5
445,3.50547,-2.675,-1,5
446,3.50277,-2.701,-1,5
447,3.50004,-2.727,-1,5
448,3.49731,-2.727,-1,5
449,3.49459,-2.722,-1,5
450,3.49181,-2.783,-1,5
451,3.48905,-2.757,-1,5
452,3.48627,-2.778,-1,5
453,3.48347,-2.804,-1,5
454,3.48063,-2.839,-1,5
455,3.47780,-2.826,-1,5
456,3.47498,-2.826,-1,5
457,3.47210,-2.878,-1,5
458,3.46924,-2.860,-1,5
459,3.46633,-2.912,-1,5
460,3.46343,-2.895,-1,5
461,3.46051,-2.921,-1,5
462,3.45758,-2.934,-1,5
463,3.45461,-2.968,-1,5
464,3.45166,-2.955,-1,5
465,3.44866,-2.998,-1,5
466,3.44569,-2.968,-1,5
467,3.44268,-3.011,-1,5
468,3.43965,-3.029,-1,5
469,3.43662,-3.033,-1,5
470,3.43357,-3.050,-1,5
471,3.43050,-3.067,-1,5
472,3.42741,-3.085,-1,5
473,3.42432,-3.098,-1,5
474,3.42120,-3.111,-1,5
475,3.41810,-3.106,-1,5
476,3.41496,-3.137,-1,5
477,3.41182,-3.141,-1,5
478,3.40867,-3.149,-1,5
479,3.40551,-3.158,-1,5
480,3.40233,-3.188,-1,5
481,3.39915,-3.180,-1,5
482,3.39594,-3.201,-1,5
483,3.39274,-3.201,-1,5
484,3.38952,-3.227,-1,5
485,3.38626,-3.253,-1,5
486,3.38302,-3.240,-1,5
487,3.37977,-3.257,-1,5
488,3.37650,-3.270,-1,5
489,3.37321,-3.283,-1,5
490,3.36991,-3.300,-1,5
491,3.36662,-3.296,-1,5
492,3.36329,-3.322,-1,5
493,3.35994,-3.357,-1,5
494,3.35659,-3.344,-1,5
495,3.35324,-3.352,-1,5
496,3.34988,-3.365,-1,5
497,3.34650,-3.378,-1,5
498,3.34311,-3.387,-1,5
499,3.33970,-3.413,-1,5
500,3.33626,-3.434,-1,5
501,3.33283,-3.430,-1,5
502,3.32940,-3.434,-1,5
503,3.32597,-3.434,-1,5
504,3.32248,-3.486,-1,5
505,3.31903,-3.447,-1,5
506,3.31554,-3.495,-1,5
507,3.31207,-3.473,-1,5
508,3.30855,-3.516,-1,5
509,3.30506,-3.490,-1,5
510,3.30154,-3.516,-1,5
511,3.29802,-3.520,-1,5
512,3.29447,-3.555,-1,5
513,3.29095,-3.516,-1,5
514,3.28737,-3.577,-1,5
515,3.28383,-3.546,-1,5
516,3.28026,-3.568,-1,5
517,3.27669,-3.568,-1,5
518,3.27309,-3.607,-1,5
519,3.26948,-3.602,-1,5
520,3.26590,-3.581,-1,5
521,3.26229,-3.615,-1,5
522,3.25864,-3.650,-1,5
523,3.25500,-3.633,-1,5
524,3.25136,-3.646,-1,5
525,3.24769,-3.671,-1,5
526,3.24402,-3.663,-1,5
527,3.24036,-3.667,-1,5
528,3.23666,-3.693,-1,5
529,3.23295,-3.710,-1,5
530,3.22927,-3.684,-1,5
531,3.22554,-3.728,-1,5
532,3.22181,-3.732,-1,5
533,3.21808,-3.732,-1,5
534,3.21434,-3.736,-1,5
