cnt,pos,speed,Dir,Force,
1,3.21139,2.981,-1,5
2,3.21436,2.977,-1,5
3,3.21736,2.998,-1,5
4,3.22035,2.986,-1,5
5,3.22629,2.968,-1,5
6,3.22926,2.973,-1,5
7,3.23225,2.981,-1,5
8,3.23519,2.942,-1,5
9,3.23816,2.973,-1,5
10,3.24112,2.964,-1,5
11,3.24407,2.942,-1,5
12,3.24705,2.986,-1,5
13,3.24999,2.934,-1,5
14,3.25295,2.968,-1,5
15,3.25587,2.916,-1,5
16,3.25884,2.964,-1,5
17,3.26176,2.925,-1,5
18,3.26472,2.960,-1,5
19,3.26765,2.938,-1,5
20,3.27059,2.912,-1,5
21,3.27643,2.929,-1,5
22,3.27937,2.934,-1,5
23,3.28227,2.904,-1,5
24,3.28516,2.891,-1,5
25,3.28809,2.925,-1,5
26,3.29102,2.929,-1,5
27,3.29395,2.929,-1,5
28,3.29684,2.899,-1,5
29,3.29976,2.912,-1,5
30,3.30266,2.904,-1,5
31,3.30558,2.916,-1,5
32,3.30848,2.899,-1,5
33,3.31138,2.908,-1,5
34,3.31429,2.904,-1,5
35,3.31717,2.882,-1,5
36,3.32009,2.891,-1,5
37,3.32588,2.908,-1,5
38,3.32874,2.860,-1,5
39,3.33164,2.895,-1,5
40,3.33453,2.891,-1,5
41,3.33743,2.904,-1,5
42,3.34032,2.882,-1,5
43,3.34321,2.891,-1,5
44,3.34608,2.869,-1,5
45,3.34893,2.852,-1,5
46,3.35180,2.873,-1,5
47,3.35467,2.865,-1,5
48,3.35753,2.865,-1,5
49,3.36038,2.852,-1,5
50,3.36325,2.865,-1,5
51,3.36609,2.830,-1,5
52,3.37175,2.830,-1,5
53,3.37175,2.822,-1,5
54,3.37742,2.852,-1,5
55,3.37742,2.800,-1,5
56,3.38304,2.817,-1,5
57,3.38586,2.826,-1,5
58,3.38867,2.813,-1,5
59,3.39150,2.822,-1,5
60,3.39428,2.787,-1,5
61,3.39708,2.800,-1,5
62,3.39986,2.778,-1,5
63,3.40266,2.796,-1,5
64,3.40546,2.804,-1,5
65,3.40823,2.765,-1,5
66,3.41101,2.783,-1,5
67,3.41379,2.757,-1,5
68,3.41932,2.765,-1,5
69,3.41932,2.761,-1,5
70,3.42208,2.761,-1,5
71,3.42760,2.761,-1,5
72,3.42760,2.770,-1,5
73,3.43311,2.740,-1,5
74,3.43585,2.744,-1,5
75,3.43859,2.740,-1,5
76,3.44131,2.718,-1,5
77,3.44403,2.722,-1,5
78,3.44674,2.709,-1,5
79,3.44946,2.718,-1,5
80,3.45215,2.688,-1,5
81,3.45486,2.718,-1,5
82,3.45756,2.696,-1,5
83,3.46025,2.692,-1,5
84,3.46292,2.671,-1,5
85,3.46559,2.671,-1,5
86,3.46827,2.671,-1,5
87,3.47093,2.662,-1,5
88,3.47361,2.679,-1,5
89,3.47624,2.632,-1,5
90,3.47888,2.640,-1,5
91,3.48416,2.614,-1,5
92,3.48416,2.636,-1,5
93,3.48942,2.623,-1,5
94,3.48942,2.597,-1,5
95,3.49466,2.636,-1,5
96,3.49724,2.589,-1,5
97,3.49985,2.610,-1,5
98,3.50245,2.597,-1,5
99,3.50504,2.584,-1,5
100,3.50762,2.580,-1,5
101,3.51020,2.580,-1,5
102,3.51275,2.558,-1,5
103,3.51531,2.554,-1,5
104,3.51785,2.537,-1,5
105,3.52039,2.545,-1,5
106,3.52293,2.541,-1,5
107,3.52545,2.520,-1,5
108,3.52799,2.537,-1,5
109,3.53051,2.524,-1,5
110,3.53303,2.520,-1,5
111,3.53554,2.507,-1,5
112,3.53802,2.485,-1,5
113,3.54300,2.507,-1,5
114,3.54300,2.468,-1,5
115,3.54794,2.468,-1,5
116,3.54794,2.468,-1,5
117,3.55041,2.442,-1,5
118,3.55285,2.459,-1,5
119,3.55774,2.438,-1,5
120,3.56016,2.420,-1,5
121,3.56259,2.420,-1,5
122,3.56498,2.399,-1,5
123,3.56739,2.407,-1,5
124,3.56980,2.407,-1,5
125,3.57221,2.416,-1,5
126,3.57458,2.364,-1,5
127,3.57695,2.369,-1,5
128,3.57932,2.373,-1,5
129,3.58168,2.360,-1,5
130,3.58403,2.347,-1,5
131,3.58637,2.338,-1,5
132,3.58870,2.330,-1,5
133,3.59103,2.334,-1,5
134,3.59335,2.321,-1,5
135,3.59566,2.308,-1,5
136,3.59795,2.304,-1,5
137,3.60025,2.304,-1,5
138,3.60253,2.278,-1,5
139,3.60481,2.282,-1,5
140,3.60709,2.274,-1,5
141,3.60934,2.252,-1,5
142,3.61157,2.235,-1,5
143,3.61606,2.239,-1,5
144,3.61828,2.222,-1,5
145,3.62050,2.218,-1,5
146,3.62271,2.213,-1,5
147,3.62490,2.187,-1,5
148,3.62708,2.174,-1,5
149,3.62925,2.174,-1,5
150,3.63142,2.174,-1,5
151,3.63356,2.140,-1,5
152,3.63571,2.149,-1,5
153,3.63785,2.140,-1,5
154,3.63997,2.118,-1,5
155,3.64208,2.110,-1,5
156,3.64419,2.110,-1,5
157,3.64630,2.110,-1,5
158,3.65045,2.058,-1,5
159,3.65251,2.062,-1,5
160,3.65456,2.049,-1,5
161,3.65660,2.041,-1,5
162,3.65863,2.023,-1,5
163,3.66064,2.015,-1,5
164,3.66264,1.998,-1,5
165,3.66463,1.989,-1,5
166,3.66662,1.993,-1,5
167,3.66859,1.972,-1,5
168,3.67055,1.959,-1,5
169,3.67250,1.950,-1,5
170,3.67444,1.941,-1,5
171,3.67635,1.911,-1,5
172,3.67824,1.890,-1,5
173,3.68014,1.894,-1,5
174,3.68202,1.868,-1,5
175,3.68389,1.859,-1,5
176,3.68575,1.838,-1,5
177,3.68759,1.838,-1,5
178,3.68941,1.821,-1,5
179,3.69122,1.812,-1,5
180,3.69303,1.808,-1,5
181,3.69661,1.782,-1,5
182,3.69838,1.773,-1,5
183,3.70012,1.739,-1,5
184,3.70186,1.743,-1,5
185,3.70358,1.717,-1,5
186,3.70530,1.721,-1,5
187,3.70699,1.687,-1,5
188,3.70866,1.674,-1,5
189,3.71033,1.674,-1,5
190,3.71198,1.648,-1,5
191,3.71363,1.652,-1,5
192,3.71526,1.622,-1,5
193,3.71687,1.614,-1,5
194,3.71846,1.592,-1,5
195,3.72004,1.583,-1,5
196,3.72162,1.570,-1,5
197,3.72316,1.519,-1,5
198,3.72468,1.536,-1,5
199,3.72622,1.536,-1,5
200,3.72920,1.484,-1,5
201,3.72920,1.471,-1,5
202,3.73067,1.458,-1,5
203,3.73213,1.424,-1,5
204,3.73499,1.441,-1,5
205,3.73642,1.428,-1,5
206,3.73780,1.381,-1,5
207,3.73920,1.394,-1,5
208,3.74056,1.368,-1,5
209,3.74191,1.346,-1,5
210,3.74324,1.333,-1,5
211,3.74457,1.324,-1,5
212,3.74584,1.268,-1,5
213,3.74713,1.290,-1,5
214,3.74839,1.268,-1,5
215,3.74964,1.247,-1,5
216,3.75088,1.238,-1,5
217,3.75212,1.238,-1,5
218,3.75330,1.182,-1,5
219,3.75449,1.156,-1,5
220,3.75682,1.169,-1,5
221,3.75796,1.148,-1,5
222,3.75905,1.087,-1,5
223,3.76015,1.104,-1,5
224,3.76122,1.070,-1,5
225,3.76231,1.083,-1,5
226,3.76334,1.031,-1,5
227,3.76439,1.048,-1,5
228,3.76539,1.005,-1,5
229,3.76640,1.005,-1,5
230,3.76736,0.958,-1,5
231,3.76833,0.971,-1,5
232,3.76927,0.941,-1,5
233,3.77018,0.910,-1,5
234,3.77109,0.910,-1,5
235,3.77284,0.880,-1,5
236,3.77368,0.841,-1,5
237,3.77450,0.815,-1,5
238,3.77532,0.820,-1,5
239,3.77612,0.798,-1,5
240,3.77689,0.772,-1,5
241,3.77766,0.768,-1,5
242,3.77838,0.725,-1,5
243,3.77909,0.712,-1,5
244,3.77980,0.708,-1,5
245,3.78048,0.673,-1,5
246,3.78113,0.656,-1,5
247,3.78177,0.634,-1,5
248,3.78241,0.643,-1,5
249,3.78301,0.604,-1,5
250,3.78360,0.587,-1,5
251,3.78416,0.561,-1,5
252,3.78471,0.552,-1,5
253,3.78526,0.548,-1,5
254,3.78576,0.500,-1,5
255,3.78625,0.488,-1,5
256,3.78671,0.462,-1,5
257,3.78715,0.444,-1,5
258,3.78800,0.418,-1,5
259,3.78841,0.401,-1,5
260,3.78876,0.358,-1,5
261,3.78911,0.345,-1,5
262,3.78943,0.319,-1,5
263,3.78974,0.311,-1,5
264,3.79003,0.293,-1,5
265,3.79030,0.272,-1,5
266,3.79055,0.250,-1,5
267,3.79078,0.229,-1,5
268,3.79099,0.207,-1,5
269,3.79118,0.190,-1,5
270,3.79136,0.181,-1,5
271,3.79151,0.147,-1,5
272,3.79174,0.108,-1,5
273,3.79182,0.086,-1,5
274,3.79189,0.065,-1,5
275,3.79189,0.056,-1,5
276,3.79196,0.022,-1,5
277,3.79196,0.013,-1,5
278,3.79196,-0.013,-1,5
279,3.79193,-0.039,-1,5
280,3.79187,-0.052,-1,5
281,3.79180,-0.069,-1,5
282,3.79172,-0.086,-1,5
283,3.79161,-0.108,-1,5
284,3.79148,-0.129,-1,5
285,3.79133,-0.151,-1,5
286,3.79116,-0.173,-1,5
287,3.79097,-0.186,-1,5
288,3.79077,-0.207,-1,5
289,3.79054,-0.224,-1,5
290,3.79030,-0.237,-1,5
291,3.79004,-0.263,-1,5
292,3.78976,-0.280,-1,5
293,3.78946,-0.298,-1,5
294,3.78915,-0.315,-1,5
295,3.78882,-0.332,-1,5
296,3.78846,-0.354,-1,5
297,3.78809,-0.406,-1,5
298,3.78768,-0.406,-1,5
299,3.78727,-0.431,-1,5
300,3.78684,-0.431,-1,5
301,3.78593,-0.466,-1,5
302,3.78545,-0.479,-1,5
303,3.78494,-0.518,-1,5
304,3.78440,-0.539,-1,5
305,3.78386,-0.539,-1,5
306,3.78331,-0.552,-1,5
307,3.78274,-0.569,-1,5
308,3.78211,-0.626,-1,5
309,3.78149,-0.617,-1,5
310,3.78087,-0.621,-1,5
311,3.78023,-0.647,-1,5
312,3.77954,-0.682,-1,5
313,3.77886,-0.682,-1,5
314,3.77815,-0.708,-1,5
315,3.77743,-0.720,-1,5
316,3.77667,-0.759,-1,5
317,3.77592,-0.759,-1,5
318,3.77513,-0.785,-1,5
319,3.77431,-0.811,-1,5
320,3.77350,-0.811,-1,5
321,3.77268,-0.876,-1,5
322,3.77180,-0.871,-1,5
323,3.77002,-0.906,-1,5
324,3.77002,-0.910,-1,5
325,3.76818,-0.932,-1,5
326,3.76722,-0.962,-1,5
327,3.76626,-0.958,-1,5
328,3.76525,-1.005,-1,5
329,3.76426,-0.997,-1,5
330,3.76321,-1.048,-1,5
331,3.76217,-1.035,-1,5
332,3.76109,-1.083,-1,5
333,3.76001,-1.079,-1,5
334,3.75891,-1.104,-1,5
335,3.75780,-1.109,-1,5
336,3.75666,-1.143,-1,5
337,3.75548,-1.173,-1,5
338,3.75432,-1.161,-1,5
339,3.75312,-1.204,-1,5
340,3.75191,-1.208,-1,5
341,3.75067,-1.264,-1,5
342,3.74814,-1.260,-1,5
343,3.74684,-1.303,-1,5
344,3.74553,-1.312,-1,5
345,3.74424,-1.290,-1,5
346,3.74288,-1.355,-1,5
347,3.74151,-1.372,-1,5
348,3.74015,-1.368,-1,5
349,3.73873,-1.411,-1,5
350,3.73731,-1.428,-1,5
351,3.73587,-1.437,-1,5
352,3.73442,-1.445,-1,5
353,3.73293,-1.493,-1,5
354,3.73144,-1.488,-1,5
355,3.72994,-1.501,-1,5
356,3.72684,-1.557,-1,5
357,3.72527,-1.570,-1,5
358,3.72369,-1.583,-1,5
359,3.72209,-1.596,-1,5
360,3.72046,-1.635,-1,5
361,3.71882,-1.639,-1,5
362,3.71714,-1.683,-1,5
363,3.71546,-1.674,-1,5
364,3.71375,-1.713,-1,5
365,3.71202,-1.726,-1,5
366,3.71028,-1.743,-1,5
367,3.70853,-1.756,-1,5
368,3.70673,-1.799,-1,5
369,3.70496,-1.769,-1,5
370,3.70312,-1.842,-1,5
371,3.70129,-1.821,-1,5
372,3.69943,-1.881,-1,5
373,3.69755,-1.881,-1,5
374,3.69566,-1.907,-1,5
375,3.69375,-1.924,-1,5
376,3.69183,-1.924,-1,5
377,3.68988,-1.946,-1,5
378,3.68791,-1.989,-1,5
379,3.68391,-2.010,-1,5
380,3.68188,-2.028,-1,5
381,3.67984,-2.045,-1,5
382,3.67779,-2.054,-1,5
383,3.67571,-2.080,-1,5
384,3.67361,-2.101,-1,5
385,3.67147,-2.131,-1,5
386,3.66933,-2.149,-1,5
387,3.66718,-2.149,-1,5
388,3.66501,-2.170,-1,5
389,3.66282,-2.192,-1,5
390,3.66061,-2.209,-1,5
391,3.65838,-2.222,-1,5
392,3.65613,-2.256,-1,5
393,3.65385,-2.274,-1,5
394,3.64928,-2.304,-1,5
395,3.64695,-2.330,-1,5
396,3.64695,-2.347,-1,5
397,3.64460,-2.347,-1,5
398,3.63985,-2.364,-1,5
399,3.63985,-2.377,-1,5
400,3.63504,-2.429,-1,5
401,3.63261,-2.433,-1,5
402,3.63016,-2.442,-1,5
403,3.62768,-2.489,-1,5
404,3.62518,-2.498,-1,5
405,3.62268,-2.498,-1,5
406,3.62014,-2.541,-1,5
407,3.61759,-2.545,-1,5
408,3.61500,-2.589,-1,5
409,3.61243,-2.571,-1,5
410,3.60984,-2.593,-1,5
411,3.60457,-2.632,-1,5
412,3.60457,-2.671,-1,5
413,3.60190,-2.671,-1,5
414,3.59921,-2.666,-1,5
415,3.59654,-2.718,-1,5
416,3.59109,-2.735,-1,5
417,3.58833,-2.757,-1,5
418,3.58557,-2.757,-1,5
419,3.58278,-2.787,-1,5
420,3.57998,-2.800,-1,5
421,3.57715,-2.830,-1,5
422,3.57433,-2.826,-1,5
423,3.57146,-2.869,-1,5
424,3.56857,-2.891,-1,5
425,3.56568,-2.891,-1,5
426,3.56277,-2.934,-1,5
427,3.55984,-2.934,-1,5
428,3.55686,-2.973,-1,5
429,3.55389,-2.973,-1,5
430,3.55092,-2.968,-1,5
431,3.54488,-3.029,-1,5
432,3.54182,-3.059,-1,5
433,3.53875,-3.067,-1,5
434,3.53568,-3.076,-1,5
435,3.53256,-3.115,-1,5
436,3.52942,-3.145,-1,5
437,3.52628,-3.137,-1,5
438,3.52314,-3.141,-1,5
439,3.51997,-3.171,-1,5
440,3.51679,-3.180,-1,5
441,3.51356,-3.227,-1,5
442,3.51033,-3.231,-1,5
443,3.50708,-3.253,-1,5
444,3.50382,-3.262,-1,5
445,3.50051,-3.300,-1,5
446,3.49722,-3.292,-1,5
447,3.49391,-3.318,-1,5
448,3.49057,-3.335,-1,5
449,3.48722,-3.352,-1,5
450,3.48384,-3.374,-1,5
451,3.48044,-3.400,-1,5
452,3.47704,-3.408,-1,5
453,3.47364,-3.400,-1,5
454,3.47018,-3.460,-1,5
455,3.46325,-3.473,-1,5
456,3.45977,-3.477,-1,5
457,3.45625,-3.525,-1,5
458,3.45271,-3.533,-1,5
459,3.44917,-3.546,-1,5
460,3.44562,-3.551,-1,5
461,3.44203,-3.590,-1,5
462,3.43844,-3.581,-1,5
463,3.43480,-3.641,-1,5
464,3.43119,-3.611,-1,5
465,3.42753,-3.659,-1,5
466,3.42387,-3.667,-1,5
467,3.42020,-3.671,-1,5
468,3.41649,-3.702,-1,5
469,3.41278,-3.710,-1,5
470,3.40908,-3.702,-1,5
471,3.40534,-3.741,-1,5
472,3.40158,-3.758,-1,5
473,3.39781,-3.771,-1,5
474,3.39404,-3.775,-1,5
475,3.39025,-3.784,-1,5
476,3.38643,-3.822,-1,5
477,3.38260,-3.831,-1,5
478,3.37493,-3.853,-1,5
479,3.37106,-3.874,-1,5
480,3.36717,-3.887,-1,5
481,3.36329,-3.879,-1,5
482,3.35935,-3.948,-1,5
483,3.35543,-3.913,-1,5
484,3.35149,-3.943,-1,5
485,3.34754,-3.952,-1,5
486,3.34356,-3.973,-1,5
487,3.33957,-3.995,-1,5
488,3.33554,-4.030,-1,5
489,3.33153,-4.008,-1,5
490,3.32751,-4.021,-1,5
491,3.32346,-4.047,-1,5
492,3.31941,-4.051,-1,5
493,3.31533,-4.086,-1,5
494,3.30717,-4.090,-1,5
495,3.30717,-4.099,-1,5
496,3.29896,-4.116,-1,5
497,3.29896,-4.137,-1,5
498,3.29070,-4.124,-1,5
499,3.29070,-4.146,-1,5
500,3.28239,-4.159,-1,5
501,3.27823,-4.163,-1,5
502,3.27405,-4.176,-1,5
503,3.26987,-4.185,-1,5
504,3.26569,-4.181,-1,5
505,3.26148,-4.211,-1,5
506,3.25725,-4.228,-1,5
507,3.25303,-4.219,-1,5
508,3.24879,-4.237,-1,5
509,3.24453,-4.258,-1,5
510,3.24028,-4.254,-1,5
511,3.23602,-4.263,-1,5
512,3.23173,-4.284,-1,5
513,3.22744,-4.293,-1,5
514,3.22315,-4.288,-1,5
515,3.21882,-4.332,-1,5
516,3.21452,-4.310,-1,5
