cnt,pos,speed,Dir,Force,
1,3.20350,2.067,-1,5
2,3.20557,2.075,-1,5
3,3.20765,2.084,-1,5
4,3.20974,2.088,-1,5
5,3.21183,2.088,-1,5
6,3.21393,2.101,-1,5
7,3.21604,2.110,-1,5
8,3.21817,2.127,-1,5
9,3.22246,2.127,-1,5
10,3.22460,2.140,-1,5
11,3.22675,2.149,-1,5
12,3.22889,2.149,-1,5
13,3.23106,2.170,-1,5
14,3.23323,2.161,-1,5
15,3.23540,2.170,-1,5
16,3.23757,2.174,-1,5
17,3.23975,2.183,-1,5
18,3.24194,2.183,-1,5
19,3.24413,2.192,-1,5
20,3.24635,2.222,-1,5
21,3.24856,2.213,-1,5
22,3.25077,2.213,-1,5
23,3.25298,2.205,-1,5
24,3.25519,2.218,-1,5
25,3.25965,2.235,-1,5
26,3.26189,2.243,-1,5
27,3.26415,2.265,-1,5
28,3.26643,2.278,-1,5
29,3.26868,2.252,-1,5
30,3.27093,2.243,-1,5
31,3.27320,2.274,-1,5
32,3.27549,2.287,-1,5
33,3.27777,2.282,-1,5
34,3.28006,2.291,-1,5
35,3.28236,2.295,-1,5
36,3.28465,2.291,-1,5
37,3.28697,2.325,-1,5
38,3.28931,2.334,-1,5
39,3.29163,2.321,-1,5
40,3.29396,2.330,-1,5
41,3.29629,2.356,-1,5
42,3.29865,2.338,-1,5
43,3.30333,2.347,-1,5
44,3.30333,2.347,-1,5
45,3.30805,2.369,-1,5
46,3.31043,2.377,-1,5
47,3.31280,2.373,-1,5
48,3.31516,2.360,-1,5
49,3.31756,2.403,-1,5
50,3.31996,2.394,-1,5
51,3.32234,2.386,-1,5
52,3.32474,2.399,-1,5
53,3.32717,2.425,-1,5
54,3.32956,2.399,-1,5
55,3.33197,2.407,-1,5
56,3.33440,2.429,-1,5
57,3.33685,2.446,-1,5
58,3.33929,2.446,-1,5
59,3.34174,2.446,-1,5
60,3.34418,2.438,-1,5
61,3.34663,2.451,-1,5
62,3.34908,2.451,-1,5
63,3.35155,2.468,-1,5
64,3.35400,2.476,-1,5
65,3.35648,2.468,-1,5
66,3.35895,2.468,-1,5
67,3.36146,2.498,-1,5
68,3.36395,2.498,-1,5
69,3.36895,2.498,-1,5
70,3.37144,2.494,-1,5
71,3.37395,2.502,-1,5
72,3.37647,2.524,-1,5
73,3.37899,2.524,-1,5
74,3.38150,2.507,-1,5
75,3.38404,2.537,-1,5
76,3.38658,2.541,-1,5
77,3.38914,2.563,-1,5
78,3.39169,2.545,-1,5
79,3.39422,2.537,-1,5
80,3.39678,2.554,-1,5
81,3.39934,2.567,-1,5
82,3.40192,2.571,-1,5
83,3.40450,2.584,-1,5
84,3.40709,2.589,-1,5
85,3.40967,2.580,-1,5
86,3.41227,2.597,-1,5
87,3.41486,2.597,-1,5
88,3.41747,2.610,-1,5
89,3.42010,2.623,-1,5
90,3.42271,2.623,-1,5
91,3.42533,2.623,-1,5
92,3.42796,2.653,-1,5
93,3.43326,2.645,-1,5
94,3.43592,2.662,-1,5
95,3.43857,2.649,-1,5
96,3.44122,2.653,-1,5
97,3.44388,2.658,-1,5
98,3.44654,2.662,-1,5
99,3.44922,2.675,-1,5
100,3.45190,2.684,-1,5
101,3.45459,2.688,-1,5
102,3.45730,2.714,-1,5
103,3.46000,2.696,-1,5
104,3.46269,2.688,-1,5
105,3.46539,2.705,-1,5
106,3.46810,2.709,-1,5
107,3.47081,2.709,-1,5
108,3.47355,2.740,-1,5
109,3.47626,2.714,-1,5
110,3.47900,2.740,-1,5
111,3.48175,2.748,-1,5
112,3.48448,2.731,-1,5
113,3.48723,2.748,-1,5
114,3.49000,2.765,-1,5
115,3.49274,2.740,-1,5
116,3.49550,2.761,-1,5
117,3.49825,2.778,-1,5
118,3.50382,2.791,-1,5
119,3.50382,2.796,-1,5
120,3.50662,2.796,-1,5
121,3.50941,2.822,-1,5
122,3.51223,2.822,-1,5
123,3.51780,2.796,-1,5
124,3.52062,2.817,-1,5
125,3.52343,2.813,-1,5
126,3.52624,2.809,-1,5
127,3.52908,2.835,-1,5
128,3.53190,2.826,-1,5
129,3.53474,2.843,-1,5
130,3.53759,2.843,-1,5
131,3.54041,2.822,-1,5
132,3.54329,2.878,-1,5
133,3.54613,2.839,-1,5
134,3.54899,2.865,-1,5
135,3.55185,2.860,-1,5
136,3.55471,2.860,-1,5
137,3.55759,2.882,-1,5
138,3.56045,2.852,-1,5
139,3.56333,2.886,-1,5
140,3.56621,2.891,-1,5
141,3.57202,2.916,-1,5
142,3.57492,2.899,-1,5
143,3.57780,2.886,-1,5
144,3.58070,2.895,-1,5
145,3.58362,2.925,-1,5
146,3.58652,2.899,-1,5
147,3.58944,2.916,-1,5
148,3.59238,2.938,-1,5
149,3.59529,2.912,-1,5
150,3.59820,2.916,-1,5
151,3.60114,2.934,-1,5
152,3.60410,2.964,-1,5
153,3.60703,2.929,-1,5
154,3.60998,2.947,-1,5
155,3.61290,2.921,-1,5
156,3.61587,2.968,-1,5
157,3.61882,2.951,-1,5
158,3.62180,2.981,-1,5
159,3.62476,2.960,-1,5
160,3.62771,2.951,-1,5
161,3.63070,2.986,-1,5
162,3.63364,2.947,-1,5
163,3.63661,2.968,-1,5
164,3.64256,2.964,-1,5
165,3.64256,2.964,-1,5
166,3.64858,3.003,-1,5
167,3.64858,2.977,-1,5
168,3.65454,2.990,-1,5
169,3.65454,2.998,-1,5
170,3.66054,2.998,-1,5
171,3.66352,2.981,-1,5
172,3.66654,3.020,-1,5
173,3.66955,3.007,-1,5
174,3.67258,3.029,-1,5
175,3.67559,3.011,-1,5
176,3.67858,2.994,-1,5
177,3.68160,3.011,-1,5
178,3.68462,3.020,-1,5
179,3.68765,3.033,-1,5
180,3.69066,3.016,-1,5
181,3.69368,3.016,-1,5
182,3.69673,3.046,-1,5
183,3.69976,3.037,-1,5
184,3.70280,3.033,-1,5
185,3.70582,3.024,-1,5
186,3.70885,3.029,-1,5
187,3.71494,3.046,-1,5
188,3.71798,3.046,-1,5
189,3.71798,3.046,-1,5
190,3.72103,3.033,-1,5
191,3.72406,3.033,-1,5
192,3.73016,3.055,-1,5
193,3.73318,3.020,-1,5
194,3.73623,3.055,-1,5
195,3.73927,3.033,-1,5
196,3.74233,3.063,-1,5
197,3.74535,3.024,-1,5
198,3.74840,3.046,-1,5
199,3.75142,3.024,-1,5
200,3.75445,3.029,-1,5
201,3.75748,3.033,-1,5
202,3.76050,3.020,-1,5
203,3.76354,3.037,-1,5
204,3.76659,3.050,-1,5
205,3.76961,3.020,-1,5
206,3.77264,3.024,-1,5
207,3.77566,3.020,-1,5
208,3.77866,3.003,-1,5
209,3.78165,3.042,-1,5
210,3.78771,3.020,-1,5
211,3.79072,3.003,-1,5
212,3.79372,3.007,-1,5
213,3.79672,2.994,-1,5
214,3.79972,2.998,-1,5
215,3.80269,2.973,-1,5
216,3.80567,2.977,-1,5
217,3.80863,2.964,-1,5
218,3.81162,2.986,-1,5
219,3.81458,2.964,-1,5
220,3.81752,2.938,-1,5
221,3.82046,2.947,-1,5
222,3.82339,2.921,-1,5
223,3.82634,2.951,-1,5
224,3.82926,2.921,-1,5
225,3.83220,2.938,-1,5
226,3.83508,2.882,-1,5
227,3.83799,2.908,-1,5
228,3.84088,2.899,-1,5
229,3.84376,2.873,-1,5
230,3.84661,2.856,-1,5
231,3.84949,2.873,-1,5
232,3.85234,2.856,-1,5
233,3.85521,2.835,-1,5
234,3.86086,2.822,-1,5
235,3.86086,2.813,-1,5
236,3.86650,2.826,-1,5
237,3.86929,2.791,-1,5
238,3.87207,2.778,-1,5
239,3.87486,2.783,-1,5
240,3.87763,2.774,-1,5
241,3.88036,2.731,-1,5
242,3.88312,2.761,-1,5
243,3.88584,2.722,-1,5
244,3.88858,2.731,-1,5
245,3.89128,2.709,-1,5
246,3.89395,2.666,-1,5
247,3.89664,2.692,-1,5
248,3.89930,2.662,-1,5
249,3.90195,2.645,-1,5
250,3.90461,2.662,-1,5
251,3.90723,2.623,-1,5
252,3.90984,2.606,-1,5
253,3.91242,2.576,-1,5
254,3.91500,2.584,-1,5
255,3.91755,2.550,-1,5
256,3.92010,2.515,-1,5
257,3.92262,2.515,-1,5
258,3.92512,2.502,-1,5
259,3.92763,2.511,-1,5
260,3.93011,2.476,-1,5
261,3.93258,2.468,-1,5
262,3.93743,2.407,-1,5
263,3.93983,2.407,-1,5
264,3.94224,2.403,-1,5
265,3.94461,2.369,-1,5
266,3.94694,2.334,-1,5
267,3.94928,2.338,-1,5
268,3.95160,2.321,-1,5
269,3.95390,2.300,-1,5
270,3.95618,2.282,-1,5
271,3.95845,2.269,-1,5
272,3.96068,2.226,-1,5
273,3.96288,2.205,-1,5
274,3.96508,2.196,-1,5
275,3.96726,2.187,-1,5
276,3.96942,2.157,-1,5
277,3.97157,2.144,-1,5
278,3.97368,2.110,-1,5
279,3.97577,2.092,-1,5
280,3.97786,2.088,-1,5
281,3.97992,2.062,-1,5
282,3.98195,2.028,-1,5
283,3.98398,2.032,-1,5
284,3.98597,1.989,-1,5
285,3.98794,1.976,-1,5
286,3.98990,1.954,-1,5
287,3.99181,1.916,-1,5
288,3.99375,1.937,-1,5
289,3.99566,1.907,-1,5
290,3.99752,1.864,-1,5
291,3.99937,1.847,-1,5
292,4.00120,1.838,-1,5
293,4.00300,1.795,-1,5
294,4.00480,1.799,-1,5
295,4.00655,1.756,-1,5
296,4.00828,1.730,-1,5
297,4.01001,1.721,-1,5
298,4.01170,1.696,-1,5
299,4.01337,1.665,-1,5
300,4.01502,1.652,-1,5
301,4.01664,1.622,-1,5
302,4.01825,1.605,-1,5
303,4.01983,1.588,-1,5
304,4.02140,1.545,-1,5
305,4.02295,1.545,-1,5
306,4.02445,1.501,-1,5
307,4.02595,1.501,-1,5
308,4.02741,1.441,-1,5
309,4.02885,1.411,-1,5
310,4.03167,1.406,-1,5
311,4.03305,1.385,-1,5
312,4.03440,1.346,-1,5
313,4.03573,1.333,-1,5
314,4.03705,1.316,-1,5
315,4.03833,1.281,-1,5
316,4.03960,1.268,-1,5
317,4.04084,1.238,-1,5
318,4.04203,1.195,-1,5
319,4.04324,1.208,-1,5
320,4.04440,1.161,-1,5
321,4.04555,1.148,-1,5
322,4.04669,1.148,-1,5
323,4.04777,1.079,-1,5
324,4.04886,1.087,-1,5
325,4.04990,1.040,-1,5
326,4.05193,0.997,-1,5
327,4.05291,0.979,-1,5
328,4.05387,0.958,-1,5
329,4.05480,0.932,-1,5
330,4.05571,0.910,-1,5
331,4.05659,0.880,-1,5
332,4.05745,0.854,-1,5
333,4.05830,0.854,-1,5
334,4.05912,0.815,-1,5
335,4.05992,0.807,-1,5
336,4.06069,0.768,-1,5
337,4.06143,0.742,-1,5
338,4.06215,0.716,-1,5
339,4.06285,0.703,-1,5
340,4.06353,0.643,-1,5
341,4.06417,0.639,-1,5
342,4.06544,0.630,-1,5
343,4.06601,0.574,-1,5
344,4.06657,0.561,-1,5
345,4.06711,0.535,-1,5
346,4.06764,0.531,-1,5
347,4.06815,0.513,-1,5
348,4.06862,0.466,-1,5
349,4.06906,0.440,-1,5
350,4.06948,0.427,-1,5
351,4.06989,0.406,-1,5
352,4.07026,0.371,-1,5
353,4.07063,0.367,-1,5
354,4.07096,0.332,-1,5
355,4.07127,0.306,-1,5
356,4.07155,0.289,-1,5
357,4.07182,0.263,-1,5
358,4.07205,0.233,-1,5
359,4.07227,0.216,-1,5
360,4.07247,0.207,-1,5
361,4.07264,0.164,-1,5
362,4.07279,0.151,-1,5
363,4.07292,0.112,-1,5
364,4.07303,0.112,-1,5
365,4.07310,0.065,-1,5
366,4.07317,0.065,-1,5
367,4.07322,0.017,-1,5
368,4.07322,-0.013,-1,5
369,4.07318,-0.030,-1,5
370,4.07312,-0.052,-1,5
371,4.07305,-0.078,-1,5
372,4.07296,-0.086,-1,5
373,4.07283,-0.129,-1,5
374,4.07269,-0.138,-1,5
375,4.07253,-0.160,-1,5
376,4.07234,-0.194,-1,5
377,4.07214,-0.203,-1,5
378,4.07191,-0.224,-1,5
379,4.07166,-0.250,-1,5
380,4.07140,-0.263,-1,5
381,4.07111,-0.285,-1,5
382,4.07081,-0.302,-1,5
383,4.07046,-0.349,-1,5
384,4.07010,-0.362,-1,5
385,4.06973,-0.375,-1,5
386,4.06933,-0.418,-1,5
387,4.06849,-0.427,-1,5
388,4.06849,-0.453,-1,5
389,4.06753,-0.505,-1,5
390,4.06753,-0.513,-1,5
391,4.06650,-0.513,-1,5
392,4.06596,-0.544,-1,5
393,4.06541,-0.552,-1,5
394,4.06481,-0.600,-1,5
395,4.06420,-0.608,-1,5
396,4.06358,-0.617,-1,5
397,4.06295,-0.634,-1,5
398,4.06227,-0.677,-1,5
399,4.06158,-0.690,-1,5
400,4.06088,-0.699,-1,5
401,4.06017,-0.712,-1,5
402,4.05940,-0.768,-1,5
403,4.05862,-0.777,-1,5
404,4.05783,-0.790,-1,5
405,4.05701,-0.824,-1,5
406,4.05619,-0.824,-1,5
407,4.05535,-0.841,-1,5
408,4.05446,-0.893,-1,5
409,4.05264,-0.928,-1,5
410,4.05171,-0.923,-1,5
411,4.05075,-0.966,-1,5
412,4.04976,-0.988,-1,5
413,4.04877,-0.988,-1,5
414,4.04773,-1.035,-1,5
415,4.04670,-1.031,-1,5
416,4.04563,-1.074,-1,5
417,4.04456,-1.074,-1,5
418,4.04343,-1.122,-1,5
419,4.04230,-1.135,-1,5
420,4.04117,-1.130,-1,5
421,4.03999,-1.173,-1,5
422,4.03882,-1.173,-1,5
423,4.03760,-1.225,-1,5
424,4.03636,-1.234,-1,5
425,4.03384,-1.273,-1,5
426,4.03255,-1.286,-1,5
427,4.03255,-1.329,-1,5
428,4.03122,-1.337,-1,5
429,4.02989,-1.350,-1,5
430,4.02718,-1.359,-1,5
431,4.02578,-1.398,-1,5
432,4.02435,-1.432,-1,5
433,4.02293,-1.415,-1,5
434,4.02146,-1.471,-1,5
435,4.01998,-1.480,-1,5
436,4.01848,-1.501,-1,5
437,4.01696,-1.519,-1,5
438,4.01541,-1.553,-1,5
439,4.01384,-1.566,-1,5
440,4.01227,-1.575,-1,5
441,4.01067,-1.596,-1,5
442,4.00904,-1.626,-1,5
443,4.00740,-1.644,-1,5
444,4.00574,-1.657,-1,5
445,4.00407,-1.678,-1,5
446,4.00234,-1.721,-1,5
447,4.00061,-1.730,-1,5
448,3.99887,-1.765,-1,5
449,3.99711,-1.765,-1,5
450,3.99532,-1.816,-1,5
451,3.99351,-1.816,-1,5
452,3.99166,-1.851,-1,5
453,3.98983,-1.868,-1,5
454,3.98796,-1.890,-1,5
455,3.98417,-1.903,-1,5
456,3.98223,-1.937,-1,5
457,3.98028,-1.946,-1,5
458,3.97832,-1.963,-1,5
459,3.97633,-1.993,-1,5
460,3.97433,-1.998,-1,5
461,3.97232,-2.015,-1,5
462,3.97028,-2.041,-1,5
463,3.96820,-2.075,-1,5
464,3.96612,-2.084,-1,5
465,3.96400,-2.118,-1,5
466,3.96188,-2.123,-1,5
467,3.95974,-2.136,-1,5
468,3.95759,-2.153,-1,5
469,3.95540,-2.183,-1,5
470,3.95321,-2.192,-1,5
471,3.94874,-2.243,-1,5
472,3.94648,-2.256,-1,5
473,3.94420,-2.278,-1,5
474,3.94190,-2.308,-1,5
475,3.93956,-2.334,-1,5
476,3.93722,-2.338,-1,5
477,3.93488,-2.347,-1,5
478,3.93249,-2.390,-1,5
479,3.93008,-2.403,-1,5
480,3.92765,-2.433,-1,5
481,3.92520,-2.451,-1,5
482,3.92276,-2.442,-1,5
483,3.92027,-2.489,-1,5
484,3.91776,-2.507,-1,5
485,3.91269,-2.545,-1,5
486,3.91269,-2.563,-1,5
487,3.91013,-2.597,-1,5
488,3.90493,-2.602,-1,5
489,3.90228,-2.645,-1,5
490,3.89962,-2.658,-1,5
491,3.89696,-2.662,-1,5
492,3.89427,-2.692,-1,5
493,3.89158,-2.692,-1,5
494,3.88885,-2.727,-1,5
495,3.88608,-2.770,-1,5
496,3.88332,-2.757,-1,5
497,3.88052,-2.800,-1,5
498,3.87774,-2.787,-1,5
499,3.87491,-2.826,-1,5
500,3.87205,-2.865,-1,5
501,3.86919,-2.856,-1,5
502,3.86631,-2.878,-1,5
503,3.86338,-2.929,-1,5
504,3.86048,-2.904,-1,5
505,3.85754,-2.938,-1,5
506,3.85458,-2.960,-1,5
507,3.85158,-2.998,-1,5
508,3.84858,-3.003,-1,5
509,3.84557,-3.007,-1,5
510,3.83945,-3.089,-1,5
511,3.83945,-3.089,-1,5
512,3.83639,-3.106,-1,5
513,3.83329,-3.106,-1,5
514,3.83018,-3.167,-1,5
515,3.82701,-3.145,-1,5
516,3.82067,-3.197,-1,5
517,3.81747,-3.201,-1,5
518,3.81424,-3.223,-1,5
519,3.81099,-3.253,-1,5
520,3.80772,-3.266,-1,5
521,3.80445,-3.270,-1,5
522,3.80113,-3.326,-1,5
523,3.79781,-3.318,-1,5
524,3.79445,-3.361,-1,5
525,3.79109,-3.361,-1,5
526,3.78771,-3.382,-1,5
527,3.78427,-3.439,-1,5
528,3.78083,-3.434,-1,5
529,3.77741,-3.426,-1,5
530,3.77393,-3.482,-1,5
531,3.77044,-3.482,-1,5
532,3.76338,-3.538,-1,5
533,3.75984,-3.546,-1,5
534,3.75628,-3.555,-1,5
535,3.75628,-3.598,-1,5
536,3.74906,-3.624,-1,5
537,3.74906,-3.628,-1,5
538,3.74182,-3.611,-1,5
539,3.73815,-3.671,-1,5
540,3.73446,-3.689,-1,5
541,3.73074,-3.715,-1,5
542,3.72702,-3.728,-1,5
543,3.72327,-3.749,-1,5
544,3.71949,-3.775,-1,5
545,3.71571,-3.784,-1,5
546,3.71189,-3.822,-1,5
547,3.70807,-3.818,-1,5
548,3.70421,-3.857,-1,5
549,3.70035,-3.857,-1,5
550,3.69647,-3.883,-1,5
551,3.69255,-3.913,-1,5
552,3.68864,-3.913,-1,5
553,3.68072,-3.965,-1,5
554,3.67676,-3.965,-1,5
555,3.67276,-3.995,-1,5
556,3.66873,-4.030,-1,5
557,3.66471,-4.025,-1,5
558,3.66067,-4.043,-1,5
559,3.65659,-4.073,-1,5
560,3.65250,-4.094,-1,5
561,3.64840,-4.103,-1,5
562,3.64425,-4.150,-1,5
563,3.64010,-4.142,-1,5
564,3.63592,-4.181,-1,5
565,3.63174,-4.185,-1,5
566,3.62752,-4.219,-1,5
567,3.62329,-4.228,-1,5
568,3.61903,-4.263,-1,5
569,3.61047,-4.284,-1,5
570,3.60617,-4.293,-1,5
571,3.60183,-4.345,-1,5
572,3.59747,-4.357,-1,5
573,3.59312,-4.349,-1,5
574,3.58875,-4.375,-1,5
575,3.58434,-4.405,-1,5
576,3.57992,-4.422,-1,5
577,3.57548,-4.444,-1,5
578,3.57102,-4.452,-1,5
579,3.56653,-4.491,-1,5
580,3.56205,-4.487,-1,5
581,3.55754,-4.508,-1,5
582,3.55300,-4.539,-1,5
583,3.54844,-4.560,-1,5
584,3.54386,-4.582,-1,5
585,3.53926,-4.608,-1,5
586,3.53465,-4.655,-1,5
587,3.52999,-4.655,-1,5
588,3.52534,-4.659,-1,5
589,3.52067,-4.664,-1,5
590,3.51597,-4.703,-1,5
591,3.50652,-4.741,-1,5
592,3.50174,-4.776,-1,5
593,3.49698,-4.759,-1,5
594,3.49218,-4.798,-1,5
595,3.48739,-4.798,-1,5
596,3.48253,-4.854,-1,5
597,3.47771,-4.828,-1,5
598,3.47286,-4.849,-1,5
599,3.46797,-4.884,-1,5
600,3.46306,-4.910,-1,5
601,3.45816,-4.905,-1,5
602,3.45322,-4.940,-1,5
603,3.44825,-4.966,-1,5
604,3.44329,-4.961,-1,5
605,3.43831,-4.979,-1,5
606,3.43329,-5.018,-1,5
607,3.42827,-5.026,-1,5
608,3.42321,-5.061,-1,5
609,3.41816,-5.074,-1,5
610,3.41309,-5.074,-1,5
611,3.40287,-5.104,-1,5
612,3.40287,-5.138,-1,5
613,3.39260,-5.134,-1,5
614,3.38744,-5.160,-1,5
615,3.38223,-5.212,-1,5
616,3.37706,-5.164,-1,5
617,3.37183,-5.238,-1,5
618,3.36660,-5.225,-1,5
619,3.36130,-5.298,-1,5
620,3.35604,-5.268,-1,5
621,3.35074,-5.294,-1,5
622,3.34543,-5.315,-1,5
623,3.34007,-5.358,-1,5
624,3.33470,-5.376,-1,5
625,3.32932,-5.376,-1,5
626,3.32393,-5.440,-1,5
627,3.31849,-5.440,-1,5
628,3.31306,-5.427,-1,5
629,3.30761,-5.475,-1,5
630,3.29665,-5.484,-1,5
631,3.29117,-5.484,-1,5
632,3.28564,-5.527,-1,5
633,3.28014,-5.505,-1,5
634,3.27461,-5.531,-1,5
635,3.26905,-5.561,-1,5
636,3.26349,-5.553,-1,5
637,3.25793,-5.565,-1,5
638,3.25236,-5.574,-1,5
639,3.24677,-5.587,-1,5
640,3.24116,-5.609,-1,5
641,3.23558,-5.583,-1,5
642,3.23000,-5.578,-1,5
643,3.22441,-5.587,-1,5
644,3.21885,-5.565,-1,5
645,3.21331,-5.488,-1,5
