cnt,pos,speed,Dir,Force,
1,3.21104,2.235,-1,5
2,3.21325,2.209,-1,5
3,3.21547,2.218,-1,5
4,3.21770,2.231,-1,5
5,3.21993,2.231,-1,5
6,3.22212,2.196,-1,5
7,3.22432,2.200,-1,5
8,3.22651,2.187,-1,5
9,3.22870,2.187,-1,5
10,3.23089,2.187,-1,5
11,3.23306,2.174,-1,5
12,3.23522,2.161,-1,5
13,3.23739,2.170,-1,5
14,3.23955,2.153,-1,5
15,3.24169,2.144,-1,5
16,3.24383,2.140,-1,5
17,3.24598,2.149,-1,5
18,3.24811,2.136,-1,5
19,3.25023,2.118,-1,5
20,3.25236,2.123,-1,5
21,3.25447,2.114,-1,5
22,3.25655,2.084,-1,5
23,3.25865,2.101,-1,5
24,3.26074,2.088,-1,5
25,3.26283,2.088,-1,5
26,3.26491,2.080,-1,5
27,3.26699,2.080,-1,5
28,3.26904,2.049,-1,5
29,3.27110,2.058,-1,5
30,3.27315,2.049,-1,5
31,3.27520,2.049,-1,5
32,3.27723,2.036,-1,5
33,3.27926,2.032,-1,5
34,3.28127,2.006,-1,5
35,3.28329,2.019,-1,5
36,3.28529,2.002,-1,5
37,3.28730,2.010,-1,5
38,3.28933,2.028,-1,5
39,3.29132,1.989,-1,5
40,3.29329,1.976,-1,5
41,3.29527,1.980,-1,5
42,3.29725,1.976,-1,5
43,3.29923,1.980,-1,5
44,3.30118,1.950,-1,5
45,3.30315,1.967,-1,5
46,3.30509,1.941,-1,5
47,3.30703,1.937,-1,5
48,3.30896,1.933,-1,5
49,3.31089,1.933,-1,5
50,3.31282,1.924,-1,5
51,3.31472,1.907,-1,5
52,3.31663,1.907,-1,5
53,3.31854,1.907,-1,5
54,3.32044,1.898,-1,5
55,3.32232,1.885,-1,5
56,3.32421,1.890,-1,5
57,3.32608,1.847,-1,5
58,3.32793,1.847,-1,5
59,3.33163,1.842,-1,5
60,3.33347,1.847,-1,5
61,3.33531,1.838,-1,5
62,3.33714,1.829,-1,5
63,3.33896,1.821,-1,5
64,3.34077,1.808,-1,5
65,3.34255,1.786,-1,5
66,3.34434,1.786,-1,5
67,3.34613,1.790,-1,5
68,3.34790,1.773,-1,5
69,3.34964,1.739,-1,5
70,3.35140,1.760,-1,5
71,3.35313,1.730,-1,5
72,3.35489,1.752,-1,5
73,3.35659,1.708,-1,5
74,3.35831,1.717,-1,5
75,3.36002,1.708,-1,5
76,3.36171,1.696,-1,5
77,3.36341,1.700,-1,5
78,3.36509,1.674,-1,5
79,3.36677,1.678,-1,5
80,3.36843,1.661,-1,5
81,3.37005,1.626,-1,5
82,3.37170,1.644,-1,5
83,3.37332,1.626,-1,5
84,3.37495,1.622,-1,5
85,3.37654,1.596,-1,5
86,3.37815,1.605,-1,5
87,3.37973,1.583,-1,5
88,3.38131,1.583,-1,5
89,3.38286,1.549,-1,5
90,3.38444,1.575,-1,5
91,3.38599,1.553,-1,5
92,3.38754,1.549,-1,5
93,3.38907,1.527,-1,5
94,3.39057,1.506,-1,5
95,3.39208,1.510,-1,5
96,3.39358,1.497,-1,5
97,3.39507,1.488,-1,5
98,3.39652,1.454,-1,5
99,3.39798,1.454,-1,5
100,3.39944,1.467,-1,5
101,3.40088,1.441,-1,5
102,3.40232,1.432,-1,5
103,3.40374,1.424,-1,5
104,3.40517,1.428,-1,5
105,3.40654,1.376,-1,5
106,3.40793,1.389,-1,5
107,3.40931,1.381,-1,5
108,3.41067,1.355,-1,5
109,3.41203,1.359,-1,5
110,3.41339,1.363,-1,5
111,3.41471,1.320,-1,5
112,3.41604,1.329,-1,5
113,3.41734,1.299,-1,5
114,3.41864,1.303,-1,5
115,3.42119,1.260,-1,5
116,3.42119,1.268,-1,5
117,3.42369,1.234,-1,5
118,3.42369,1.251,-1,5
119,3.42495,1.251,-1,5
120,3.42616,1.212,-1,5
121,3.42738,1.225,-1,5
122,3.42977,1.195,-1,5
123,3.43097,1.195,-1,5
124,3.43212,1.152,-1,5
125,3.43326,1.143,-1,5
126,3.43439,1.130,-1,5
127,3.43552,1.130,-1,5
128,3.43664,1.113,-1,5
129,3.43773,1.092,-1,5
130,3.43882,1.092,-1,5
131,3.43988,1.061,-1,5
132,3.44094,1.061,-1,5
133,3.44198,1.035,-1,5
134,3.44302,1.040,-1,5
135,3.44402,1.005,-1,5
136,3.44503,1.010,-1,5
137,3.44601,0.979,-1,5
138,3.44698,0.966,-1,5
139,3.44794,0.958,-1,5
140,3.44888,0.945,-1,5
141,3.44982,0.941,-1,5
142,3.45073,0.906,-1,5
143,3.45165,0.923,-1,5
144,3.45253,0.880,-1,5
145,3.45343,0.846,-1,5
146,3.45513,0.854,-1,5
147,3.45596,0.828,-1,5
148,3.45678,0.815,-1,5
149,3.45760,0.820,-1,5
150,3.45838,0.781,-1,5
151,3.45916,0.785,-1,5
152,3.45993,0.768,-1,5
153,3.46066,0.733,-1,5
154,3.46141,0.751,-1,5
155,3.46211,0.699,-1,5
156,3.46281,0.699,-1,5
157,3.46350,0.690,-1,5
158,3.46417,0.664,-1,5
159,3.46481,0.643,-1,5
160,3.46548,0.673,-1,5
161,3.46610,0.621,-1,5
162,3.46671,0.621,-1,5
163,3.46733,0.621,-1,5
164,3.46791,0.557,-1,5
165,3.46846,0.557,-1,5
166,3.46903,0.544,-1,5
167,3.46958,0.513,-1,5
168,3.47009,0.509,-1,5
169,3.47111,0.513,-1,5
170,3.47159,0.475,-1,5
171,3.47204,0.457,-1,5
172,3.47249,0.444,-1,5
173,3.47293,0.444,-1,5
174,3.47336,0.431,-1,5
175,3.47376,0.397,-1,5
176,3.47414,0.380,-1,5
177,3.47451,0.371,-1,5
178,3.47487,0.354,-1,5
179,3.47522,0.349,-1,5
180,3.47553,0.319,-1,5
181,3.47584,0.306,-1,5
182,3.47613,0.285,-1,5
183,3.47640,0.272,-1,5
184,3.47666,0.259,-1,5
185,3.47692,0.263,-1,5
186,3.47715,0.233,-1,5
187,3.47736,0.211,-1,5
188,3.47757,0.203,-1,5
189,3.47775,0.181,-1,5
190,3.47791,0.160,-1,5
191,3.47805,0.142,-1,5
192,3.47819,0.138,-1,5
193,3.47831,0.121,-1,5
194,3.47842,0.108,-1,5
195,3.47850,0.082,-1,5
196,3.47857,0.073,-1,5
197,3.47863,0.056,-1,5
198,3.47867,0.039,-1,5
199,3.47869,0.026,-1,5
200,3.47870,0.009,-1,5
201,3.47869,-0.009,-1,5
202,3.47868,-0.017,-1,5
203,3.47864,-0.039,-1,5
204,3.47858,-0.056,-1,5
205,3.47852,-0.060,-1,5
206,3.47844,-0.082,-1,5
207,3.47835,-0.086,-1,5
208,3.47812,-0.121,-1,5
209,3.47812,-0.134,-1,5
210,3.47784,-0.147,-1,5
211,3.47768,-0.160,-1,5
212,3.47768,-0.177,-1,5
213,3.47750,-0.177,-1,5
214,3.47732,-0.186,-1,5
215,3.47711,-0.220,-1,5
216,3.47665,-0.246,-1,5
217,3.47642,-0.233,-1,5
218,3.47616,-0.259,-1,5
219,3.47616,-0.263,-1,5
220,3.47589,-0.263,-1,5
221,3.47561,-0.280,-1,5
222,3.47533,-0.285,-1,5
223,3.47502,-0.306,-1,5
224,3.47468,-0.328,-1,5
225,3.47435,-0.345,-1,5
226,3.47401,-0.345,-1,5
227,3.47364,-0.367,-1,5
228,3.47327,-0.371,-1,5
229,3.47287,-0.401,-1,5
230,3.47246,-0.410,-1,5
231,3.47205,-0.410,-1,5
232,3.47162,-0.440,-1,5
233,3.47070,-0.475,-1,5
234,3.47070,-0.475,-1,5
235,3.47024,-0.462,-1,5
236,3.46976,-0.479,-1,5
237,3.46927,-0.488,-1,5
238,3.46875,-0.522,-1,5
239,3.46824,-0.513,-1,5
240,3.46772,-0.518,-1,5
241,3.46717,-0.574,-1,5
242,3.46660,-0.574,-1,5
243,3.46603,-0.565,-1,5
244,3.46547,-0.569,-1,5
245,3.46485,-0.617,-1,5
246,3.46424,-0.608,-1,5
247,3.46364,-0.600,-1,5
248,3.46301,-0.626,-1,5
249,3.46238,-0.639,-1,5
250,3.46173,-0.643,-1,5
251,3.46107,-0.660,-1,5
252,3.46039,-0.686,-1,5
253,3.45971,-0.677,-1,5
254,3.45901,-0.703,-1,5
255,3.45829,-0.716,-1,5
256,3.45758,-0.712,-1,5
257,3.45682,-0.755,-1,5
258,3.45610,-0.725,-1,5
259,3.45535,-0.746,-1,5
260,3.45457,-0.781,-1,5
261,3.45380,-0.768,-1,5
262,3.45301,-0.794,-1,5
263,3.45220,-0.807,-1,5
264,3.45140,-0.807,-1,5
265,3.45056,-0.833,-1,5
266,3.44974,-0.828,-1,5
267,3.44889,-0.841,-1,5
268,3.44804,-0.854,-1,5
269,3.44719,-0.854,-1,5
270,3.44631,-0.880,-1,5
271,3.44542,-0.889,-1,5
272,3.44453,-0.889,-1,5
273,3.44361,-0.915,-1,5
274,3.44270,-0.915,-1,5
275,3.44176,-0.936,-1,5
276,3.44083,-0.936,-1,5
277,3.43987,-0.958,-1,5
278,3.43891,-0.958,-1,5
279,3.43792,-0.992,-1,5
280,3.43694,-0.979,-1,5
281,3.43595,-0.988,-1,5
282,3.43492,-1.027,-1,5
283,3.43392,-1.005,-1,5
284,3.43289,-1.027,-1,5
285,3.43185,-1.040,-1,5
286,3.43081,-1.040,-1,5
287,3.42974,-1.070,-1,5
288,3.42866,-1.087,-1,5
289,3.42759,-1.070,-1,5
290,3.42648,-1.109,-1,5
291,3.42538,-1.096,-1,5
292,3.42427,-1.113,-1,5
293,3.42314,-1.126,-1,5
294,3.42201,-1.135,-1,5
295,3.42086,-1.143,-1,5
296,3.41972,-1.148,-1,5
297,3.41856,-1.161,-1,5
298,3.41737,-1.186,-1,5
299,3.41618,-1.191,-1,5
300,3.41500,-1.178,-1,5
301,3.41379,-1.208,-1,5
302,3.41257,-1.221,-1,5
303,3.41136,-1.217,-1,5
304,3.41011,-1.247,-1,5
305,3.40887,-1.238,-1,5
306,3.40761,-1.255,-1,5
307,3.40635,-1.260,-1,5
308,3.40509,-1.264,-1,5
309,3.40380,-1.294,-1,5
310,3.40249,-1.307,-1,5
311,3.40119,-1.303,-1,5
312,3.39987,-1.312,-1,5
313,3.39854,-1.333,-1,5
314,3.39721,-1.329,-1,5
315,3.39587,-1.342,-1,5
316,3.39452,-1.355,-1,5
317,3.39317,-1.342,-1,5
318,3.39180,-1.372,-1,5
319,3.39041,-1.394,-1,5
320,3.38904,-1.372,-1,5
321,3.38763,-1.411,-1,5
322,3.38621,-1.419,-1,5
323,3.38477,-1.432,-1,5
324,3.38334,-1.432,-1,5
325,3.38189,-1.450,-1,5
326,3.38044,-1.454,-1,5
327,3.37900,-1.437,-1,5
328,3.37753,-1.475,-1,5
329,3.37603,-1.493,-1,5
330,3.37455,-1.488,-1,5
331,3.37304,-1.510,-1,5
332,3.37151,-1.523,-1,5
333,3.37001,-1.506,-1,5
334,3.36847,-1.540,-1,5
335,3.36693,-1.540,-1,5
336,3.36538,-1.549,-1,5
337,3.36380,-1.575,-1,5
338,3.36222,-1.579,-1,5
339,3.36065,-1.575,-1,5
340,3.35904,-1.605,-1,5
341,3.35746,-1.588,-1,5
342,3.35583,-1.622,-1,5
343,3.35421,-1.626,-1,5
344,3.35257,-1.635,-1,5
345,3.35092,-1.648,-1,5
346,3.34928,-1.639,-1,5
347,3.34764,-1.648,-1,5
348,3.34596,-1.674,-1,5
349,3.34427,-1.696,-1,5
350,3.34258,-1.691,-1,5
351,3.34088,-1.696,-1,5
352,3.33917,-1.708,-1,5
353,3.33746,-1.717,-1,5
354,3.33571,-1.747,-1,5
355,3.33397,-1.739,-1,5
356,3.33222,-1.752,-1,5
357,3.33045,-1.765,-1,5
358,3.32869,-1.760,-1,5
359,3.32693,-1.760,-1,5
360,3.32517,-1.765,-1,5
361,3.32336,-1.803,-1,5
362,3.32156,-1.803,-1,5
363,3.31975,-1.812,-1,5
364,3.31792,-1.825,-1,5
365,3.31609,-1.829,-1,5
366,3.31427,-1.825,-1,5
367,3.31243,-1.838,-1,5
368,3.31059,-1.847,-1,5
369,3.30871,-1.872,-1,5
370,3.30685,-1.864,-1,5
371,3.30499,-1.859,-1,5
372,3.30311,-1.877,-1,5
373,3.30121,-1.903,-1,5
374,3.29933,-1.885,-1,5
375,3.29741,-1.920,-1,5
376,3.29549,-1.916,-1,5
377,3.29359,-1.903,-1,5
378,3.29166,-1.929,-1,5
379,3.28973,-1.929,-1,5
380,3.28777,-1.959,-1,5
381,3.28582,-1.950,-1,5
382,3.28388,-1.946,-1,5
383,3.28192,-1.959,-1,5
384,3.27995,-1.972,-1,5
385,3.27797,-1.980,-1,5
386,3.27598,-1.980,-1,5
387,3.27398,-2.006,-1,5
388,3.27198,-2.002,-1,5
389,3.26997,-2.006,-1,5
390,3.26796,-2.006,-1,5
391,3.26595,-2.019,-1,5
392,3.26391,-2.032,-1,5
393,3.26186,-2.049,-1,5
394,3.25982,-2.045,-1,5
395,3.25776,-2.058,-1,5
396,3.25571,-2.054,-1,5
397,3.25365,-2.062,-1,5
398,3.25158,-2.067,-1,5
399,3.24949,-2.088,-1,5
400,3.24741,-2.101,-1,5
401,3.24320,-2.105,-1,5
402,3.24110,-2.101,-1,5
403,3.23899,-2.105,-1,5
404,3.23899,-2.127,-1,5
405,3.23687,-2.127,-1,5
406,3.23474,-2.127,-1,5
407,3.23260,-2.140,-1,5
408,3.22831,-2.149,-1,5
409,3.22616,-2.149,-1,5
410,3.22401,-2.157,-1,5
411,3.22184,-2.166,-1,5
412,3.21967,-2.166,-1,5
413,3.21750,-2.179,-1,5
414,3.21531,-2.187,-1,5
415,3.21313,-2.179,-1,5
416,3.21095,-2.183,-1,5
