cnt,pos,speed,Dir,Force,
1,3.21196,3.439,-1,7
2,3.21537,3.404,-1,7
3,3.21878,3.408,-1,7
4,3.22216,3.382,-1,7
5,3.22550,3.339,-1,7
6,3.22881,3.309,-1,7
7,3.23211,3.300,-1,7
8,3.23536,3.249,-1,7
9,3.23861,3.249,-1,7
10,3.24178,3.171,-1,7
11,3.24497,3.197,-1,7
12,3.24812,3.145,-1,7
13,3.25124,3.124,-1,7
14,3.25737,3.037,-1,7
15,3.26042,3.050,-1,7
16,3.26341,2.994,-1,7
17,3.26641,2.998,-1,7
18,3.26934,2.925,-1,7
19,3.27225,2.916,-1,7
20,3.27516,2.908,-1,7
21,3.27800,2.843,-1,7
22,3.28083,2.826,-1,7
23,3.28362,2.787,-1,7
24,3.28640,2.787,-1,7
25,3.28917,2.765,-1,7
26,3.29190,2.731,-1,7
27,3.29458,2.679,-1,7
28,3.29725,2.640,-1,7
29,3.30250,2.610,-1,7
30,3.30509,2.593,-1,7
31,3.30765,2.554,-1,7
32,3.31018,2.537,-1,7
33,3.31269,2.502,-1,7
34,3.31515,2.463,-1,7
35,3.31761,2.463,-1,7
36,3.32004,2.425,-1,7
37,3.32242,2.386,-1,7
38,3.32480,2.338,-1,7
39,3.32943,2.291,-1,7
40,3.33170,2.278,-1,7
41,3.33396,2.261,-1,7
42,3.33618,2.218,-1,7
43,3.33839,2.209,-1,7
44,3.34057,2.174,-1,7
45,3.34271,2.140,-1,7
46,3.34481,2.105,-1,7
47,3.34689,2.080,-1,7
48,3.34894,2.049,-1,7
49,3.35095,2.015,-1,7
50,3.35295,1.972,-1,7
51,3.35685,1.929,-1,7
52,3.35875,1.903,-1,7
53,3.36065,1.903,-1,7
54,3.36249,1.838,-1,7
55,3.36432,1.825,-1,7
56,3.36612,1.808,-1,7
57,3.36788,1.760,-1,7
58,3.36960,1.717,-1,7
59,3.37130,1.700,-1,7
60,3.37297,1.674,-1,7
61,3.37462,1.644,-1,7
62,3.37623,1.609,-1,7
63,3.37782,1.596,-1,7
64,3.37939,1.562,-1,7
65,3.38090,1.488,-1,7
66,3.38387,1.484,-1,7
67,3.38534,1.463,-1,7
68,3.38673,1.398,-1,7
69,3.38813,1.394,-1,7
70,3.38949,1.359,-1,7
71,3.39080,1.316,-1,7
72,3.39211,1.312,-1,7
73,3.39338,1.268,-1,7
74,3.39460,1.221,-1,7
75,3.39581,1.212,-1,7
76,3.39699,1.178,-1,7
77,3.39813,1.139,-1,7
78,3.39927,1.079,-1,7
79,3.40035,1.079,-1,7
80,3.40245,1.031,-1,7
81,3.40346,1.005,-1,7
82,3.40444,0.979,-1,7
83,3.40539,0.953,-1,7
84,3.40631,0.915,-1,7
85,3.40720,0.897,-1,7
86,3.40805,0.846,-1,7
87,3.40888,0.833,-1,7
88,3.40968,0.798,-1,7
89,3.41044,0.764,-1,7
90,3.41120,0.759,-1,7
91,3.41191,0.703,-1,7
92,3.41259,0.686,-1,7
93,3.41326,0.669,-1,7
94,3.41387,0.613,-1,7
95,3.41447,0.565,-1,7
96,3.41557,0.539,-1,7
97,3.41608,0.505,-1,7
98,3.41608,0.466,-1,7
99,3.41655,0.466,-1,7
100,3.41700,0.453,-1,7
101,3.41742,0.418,-1,7
102,3.41781,0.393,-1,7
103,3.41817,0.358,-1,7
104,3.41879,0.293,-1,7
105,3.41906,0.272,-1,7
106,3.41930,0.237,-1,7
107,3.41930,0.211,-1,7
108,3.41969,0.177,-1,7
109,3.41984,0.151,-1,7
110,3.41996,0.121,-1,7
111,3.42005,0.091,-1,7
112,3.42010,0.056,-1,7
113,3.42014,0.035,-1,7
114,3.42014,0.004,-1,7
115,3.42011,-0.030,-1,7
116,3.42006,-0.052,-1,7
117,3.41998,-0.082,-1,7
118,3.41986,-0.121,-1,7
119,3.41971,-0.173,-1,7
120,3.41954,-0.198,-1,7
121,3.41912,-0.224,-1,7
122,3.41886,-0.259,-1,7
123,3.41858,-0.280,-1,7
124,3.41858,-0.306,-1,7
125,3.41793,-0.341,-1,7
126,3.41755,-0.375,-1,7
127,3.41717,-0.388,-1,7
128,3.41674,-0.427,-1,7
129,3.41630,-0.440,-1,7
130,3.41583,-0.470,-1,7
131,3.41532,-0.505,-1,7
132,3.41479,-0.535,-1,7
133,3.41424,-0.548,-1,7
134,3.41366,-0.578,-1,7
135,3.41306,-0.604,-1,7
136,3.41243,-0.634,-1,7
137,3.41177,-0.660,-1,7
138,3.41109,-0.673,-1,7
139,3.41036,-0.733,-1,7
140,3.40963,-0.729,-1,7
141,3.40887,-0.764,-1,7
142,3.40727,-0.807,-1,7
143,3.40642,-0.846,-1,7
144,3.40556,-0.863,-1,7
145,3.40467,-0.893,-1,7
146,3.40374,-0.928,-1,7
147,3.40280,-0.936,-1,7
148,3.40182,-0.979,-1,7
149,3.40083,-0.992,-1,7
150,3.39981,-1.022,-1,7
151,3.39875,-1.061,-1,7
152,3.39768,-1.066,-1,7
153,3.39659,-1.092,-1,7
154,3.39548,-1.109,-1,7
155,3.39433,-1.152,-1,7
156,3.39317,-1.161,-1,7
157,3.39197,-1.199,-1,7
158,3.39073,-1.238,-1,7
159,3.38950,-1.234,-1,7
160,3.38822,-1.281,-1,7
161,3.38692,-1.299,-1,7
162,3.38560,-1.320,-1,7
163,3.38424,-1.363,-1,7
164,3.38286,-1.376,-1,7
165,3.38146,-1.402,-1,7
166,3.38004,-1.415,-1,7
167,3.37713,-1.463,-1,7
168,3.37713,-1.514,-1,7
169,3.37562,-1.514,-1,7
170,3.37409,-1.549,-1,7
171,3.37254,-1.549,-1,7
172,3.36937,-1.592,-1,7
173,3.36775,-1.622,-1,7
174,3.36610,-1.644,-1,7
175,3.36441,-1.696,-1,7
176,3.36272,-1.687,-1,7
177,3.36098,-1.739,-1,7
178,3.35921,-1.769,-1,7
179,3.35745,-1.760,-1,7
180,3.35564,-1.812,-1,7
181,3.35380,-1.842,-1,7
182,3.35196,-1.838,-1,7
183,3.35008,-1.881,-1,7
184,3.34818,-1.894,-1,7
185,3.34626,-1.929,-1,7
186,3.34430,-1.954,-1,7
187,3.34232,-1.980,-1,7
188,3.33828,-2.032,-1,7
189,3.33623,-2.058,-1,7
190,3.33415,-2.080,-1,7
191,3.33415,-2.105,-1,7
192,3.32991,-2.127,-1,7
193,3.32777,-2.144,-1,7
194,3.32561,-2.157,-1,7
195,3.32340,-2.209,-1,7
196,3.32118,-2.226,-1,7
197,3.31891,-2.265,-1,7
198,3.31663,-2.282,-1,7
199,3.31434,-2.291,-1,7
200,3.31203,-2.308,-1,7
201,3.30968,-2.347,-1,7
202,3.30731,-2.373,-1,7
203,3.30491,-2.403,-1,7
204,3.30248,-2.425,-1,7
205,3.29757,-2.463,-1,7
206,3.29757,-2.485,-1,7
207,3.29508,-2.511,-1,7
208,3.29257,-2.545,-1,7
209,3.29003,-2.571,-1,7
210,3.28486,-2.597,-1,7
211,3.28226,-2.597,-1,7
212,3.27963,-2.632,-1,7
213,3.27697,-2.658,-1,7
214,3.27426,-2.709,-1,7
215,3.27156,-2.701,-1,7
216,3.26884,-2.727,-1,7
217,3.26607,-2.761,-1,7
218,3.26328,-2.796,-1,7
219,3.26047,-2.809,-1,7
220,3.25761,-2.856,-1,7
221,3.25477,-2.847,-1,7
222,3.25187,-2.895,-1,7
223,3.24896,-2.908,-1,7
224,3.24602,-2.947,-1,7
225,3.24306,-2.960,-1,7
226,3.24008,-3.033,-1,7
227,3.23705,-3.020,-1,7
228,3.23403,-3.020,-1,7
229,3.23095,-3.080,-1,7
230,3.22786,-3.085,-1,7
231,3.22475,-3.111,-1,7
232,3.22161,-3.145,-1,7
233,3.21842,-3.184,-1,7
234,3.21205,-3.197,-1,7
