cnt,pos,speed,Dir,Force,
1,4.01684,1.005,-1,5
2,4.01782,0.979,-1,5
3,4.01882,1.001,-1,5
4,4.01981,0.992,-1,5
5,4.02081,1.005,-1,5
6,4.02181,1.001,-1,5
7,4.02282,1.001,-1,5
8,4.02382,1.005,-1,5
9,4.02484,1.022,-1,5
10,4.02584,1.001,-1,5
11,4.02687,1.022,-1,5
12,4.02787,1.001,-1,5
13,4.02889,1.018,-1,5
14,4.02989,1.001,-1,5
15,4.03092,1.035,-1,5
16,4.03194,1.018,-1,5
17,4.03298,1.044,-1,5
18,4.03400,1.018,-1,5
19,4.03503,1.031,-1,5
20,4.03606,1.053,-1,5
21,4.03711,1.035,-1,5
22,4.03815,1.053,-1,5
23,4.03920,1.053,-1,5
24,4.04023,1.035,-1,5
25,4.04127,1.040,-1,5
26,4.04337,1.066,-1,5
27,4.04442,1.044,-1,5
28,4.04547,1.057,-1,5
29,4.04654,1.070,-1,5
30,4.04760,1.053,-1,5
31,4.04866,1.066,-1,5
32,4.04972,1.053,-1,5
33,4.05078,1.061,-1,5
34,4.05185,1.074,-1,5
35,4.05291,1.066,-1,5
36,4.05397,1.066,-1,5
37,4.05504,1.070,-1,5
38,4.05612,1.079,-1,5
39,4.05718,1.057,-1,5
40,4.05827,1.092,-1,5
41,4.05935,1.079,-1,5
42,4.06044,1.070,-1,5
43,4.06260,1.087,-1,5
44,4.06367,1.074,-1,5
45,4.06475,1.074,-1,5
46,4.06585,1.104,-1,5
47,4.06694,1.087,-1,5
48,4.06806,1.122,-1,5
49,4.06915,1.092,-1,5
50,4.07024,1.092,-1,5
51,4.07135,1.104,-1,5
52,4.07245,1.104,-1,5
53,4.07355,1.087,-1,5
54,4.07464,1.087,-1,5
55,4.07686,1.100,-1,5
56,4.07686,1.126,-1,5
57,4.07907,1.092,-1,5
58,4.07907,1.113,-1,5
59,4.08019,1.113,-1,5
60,4.08243,1.126,-1,5
61,4.08353,1.100,-1,5
62,4.08465,1.126,-1,5
63,4.08577,1.113,-1,5
64,4.08690,1.135,-1,5
65,4.08800,1.104,-1,5
66,4.08914,1.130,-1,5
67,4.09025,1.117,-1,5
68,4.09138,1.130,-1,5
69,4.09252,1.139,-1,5
70,4.09365,1.126,-1,5
71,4.09480,1.148,-1,5
72,4.09591,1.117,-1,5
73,4.09705,1.122,-1,5
74,4.09817,1.122,-1,5
75,4.10046,1.130,-1,5
76,4.10159,1.130,-1,5
77,4.10273,1.148,-1,5
78,4.10385,1.113,-1,5
79,4.10499,1.148,-1,5
80,4.10613,1.135,-1,5
81,4.10728,1.148,-1,5
82,4.10843,1.152,-1,5
83,4.10956,1.135,-1,5
84,4.11072,1.152,-1,5
85,4.11185,1.130,-1,5
86,4.11415,1.139,-1,5
87,4.11530,1.152,-1,5
88,4.11644,1.148,-1,5
89,4.11644,1.135,-1,5
90,4.11758,1.161,-1,5
91,4.11874,1.161,-1,5
92,4.12103,1.156,-1,5
93,4.12217,1.139,-1,5
94,4.12332,1.156,-1,5
95,4.12446,1.143,-1,5
96,4.12561,1.148,-1,5
97,4.12675,1.139,-1,5
98,4.12792,1.165,-1,5
99,4.12906,1.139,-1,5
100,4.13022,1.161,-1,5
101,4.13136,1.143,-1,5
102,4.13251,1.152,-1,5
103,4.13367,1.156,-1,5
104,4.13483,1.161,-1,5
105,4.13598,1.148,-1,5
106,4.13714,1.169,-1,5
107,4.13830,1.156,-1,5
108,4.13945,1.152,-1,5
109,4.14061,1.156,-1,5
110,4.14176,1.152,-1,5
111,4.14290,1.143,-1,5
112,4.14406,1.156,-1,5
113,4.14522,1.156,-1,5
114,4.14637,1.156,-1,5
115,4.14753,1.161,-1,5
116,4.14867,1.139,-1,5
117,4.14984,1.165,-1,5
118,4.15099,1.156,-1,5
119,4.15215,1.161,-1,5
120,4.15333,1.173,-1,5
121,4.15447,1.139,-1,5
122,4.15564,1.169,-1,5
123,4.15678,1.148,-1,5
124,4.15797,1.182,-1,5
125,4.15910,1.139,-1,5
126,4.16028,1.173,-1,5
127,4.16143,1.152,-1,5
128,4.16258,1.148,-1,5
129,4.16374,1.165,-1,5
130,4.16489,1.148,-1,5
131,4.16606,1.173,-1,5
132,4.16721,1.148,-1,5
133,4.16838,1.173,-1,5
134,4.16955,1.152,-1,5
135,4.17188,1.169,-1,5
136,4.17303,1.156,-1,5
137,4.17420,1.169,-1,5
138,4.17537,1.169,-1,5
139,4.17651,1.139,-1,5
140,4.17768,1.169,-1,5
141,4.17882,1.143,-1,5
142,4.17999,1.169,-1,5
143,4.18116,1.169,-1,5
144,4.18233,1.169,-1,5
145,4.18350,1.173,-1,5
146,4.18466,1.156,-1,5
147,4.18584,1.182,-1,5
148,4.18701,1.165,-1,5
149,4.18817,1.169,-1,5
150,4.18933,1.156,-1,5
151,4.19049,1.161,-1,5
152,4.19167,1.182,-1,5
153,4.19282,1.143,-1,5
154,4.19399,1.178,-1,5
155,4.19513,1.139,-1,5
156,4.19632,1.186,-1,5
157,4.19748,1.156,-1,5
158,4.19864,1.161,-1,5
159,4.20097,1.169,-1,5
160,4.20212,1.143,-1,5
161,4.20330,1.182,-1,5
162,4.20330,1.182,-1,5
163,4.20563,1.178,-1,5
164,4.20563,1.178,-1,5
165,4.20678,1.143,-1,5
166,4.20913,1.186,-1,5
167,4.21029,1.156,-1,5
168,4.21146,1.173,-1,5
169,4.21261,1.152,-1,5
170,4.21378,1.165,-1,5
171,4.21494,1.161,-1,5
172,4.21610,1.165,-1,5
173,4.21725,1.148,-1,5
174,4.21841,1.161,-1,5
175,4.21956,1.148,-1,5
176,4.22072,1.165,-1,5
177,4.22187,1.143,-1,5
178,4.22304,1.173,-1,5
179,4.22418,1.139,-1,5
180,4.22533,1.152,-1,5
181,4.22646,1.161,-1,5
182,4.22875,1.130,-1,5
183,4.22991,1.156,-1,5
184,4.23105,1.135,-1,5
185,4.23221,1.165,-1,5
186,4.23335,1.143,-1,5
187,4.23449,1.139,-1,5
188,4.23564,1.152,-1,5
189,4.23678,1.130,-1,5
190,4.23792,1.148,-1,5
191,4.23905,1.130,-1,5
192,4.24020,1.148,-1,5
193,4.24133,1.130,-1,5
194,4.24244,1.113,-1,5
195,4.24358,1.139,-1,5
196,4.24470,1.113,-1,5
197,4.24584,1.143,-1,5
198,4.24695,1.113,-1,5
199,4.24923,1.139,-1,5
200,4.25034,1.117,-1,5
201,4.25148,1.139,-1,5
202,4.25260,1.117,-1,5
203,4.25374,1.135,-1,5
204,4.25484,1.109,-1,5
205,4.25597,1.126,-1,5
206,4.25709,1.122,-1,5
207,4.25821,1.117,-1,5
208,4.25933,1.122,-1,5
209,4.26044,1.113,-1,5
210,4.26158,1.135,-1,5
211,4.26269,1.113,-1,5
212,4.26382,1.126,-1,5
213,4.26493,1.109,-1,5
214,4.26605,1.122,-1,5
215,4.26717,1.117,-1,5
216,4.26828,1.113,-1,5
217,4.26938,1.104,-1,5
218,4.27050,1.122,-1,5
219,4.27160,1.096,-1,5
220,4.27272,1.117,-1,5
221,4.27384,1.117,-1,5
222,4.27494,1.104,-1,5
223,4.27605,1.113,-1,5
224,4.27717,1.117,-1,5
225,4.27829,1.122,-1,5
226,4.27940,1.104,-1,5
227,4.28051,1.113,-1,5
228,4.28163,1.117,-1,5
229,4.28274,1.109,-1,5
230,4.28386,1.122,-1,5
231,4.28497,1.109,-1,5
232,4.28608,1.113,-1,5
233,4.28719,1.113,-1,5
234,4.28831,1.113,-1,5
235,4.28941,1.104,-1,5
236,4.29051,1.104,-1,5
237,4.29165,1.130,-1,5
238,4.29275,1.104,-1,5
239,4.29387,1.117,-1,5
240,4.29498,1.109,-1,5
241,4.29609,1.117,-1,5
242,4.29721,1.122,-1,5
243,4.29832,1.109,-1,5
244,4.29945,1.126,-1,5
245,4.30057,1.117,-1,5
246,4.30170,1.130,-1,5
247,4.30281,1.113,-1,5
248,4.30395,1.135,-1,5
249,4.30506,1.117,-1,5
250,4.30619,1.122,-1,5
251,4.30845,1.139,-1,5
252,4.30958,1.130,-1,5
253,4.31070,1.117,-1,5
254,4.31184,1.135,-1,5
255,4.31295,1.117,-1,5
256,4.31410,1.148,-1,5
257,4.31523,1.130,-1,5
258,4.31637,1.143,-1,5
259,4.31753,1.152,-1,5
260,4.31865,1.122,-1,5
261,4.31980,1.152,-1,5
262,4.32093,1.126,-1,5
263,4.32209,1.165,-1,5
264,4.32323,1.139,-1,5
265,4.32436,1.130,-1,5
266,4.32551,1.152,-1,5
267,4.32666,1.148,-1,5
268,4.32782,1.161,-1,5
269,4.32897,1.148,-1,5
270,4.33014,1.169,-1,5
271,4.33128,1.143,-1,5
272,4.33244,1.161,-1,5
273,4.33360,1.156,-1,5
274,4.33475,1.156,-1,5
275,4.33593,1.173,-1,5
276,4.33707,1.143,-1,5
277,4.33825,1.178,-1,5
278,4.33940,1.152,-1,5
279,4.34057,1.161,-1,5
280,4.34173,1.178,-1,5
281,4.34291,1.161,-1,5
282,4.34525,1.178,-1,5
283,4.34640,1.156,-1,5
284,4.34758,1.178,-1,5
285,4.34877,1.191,-1,5
286,4.34994,1.173,-1,5
287,4.35115,1.208,-1,5
288,4.35232,1.169,-1,5
289,4.35353,1.204,-1,5
290,4.35471,1.182,-1,5
291,4.35589,1.182,-1,5
292,4.35708,1.195,-1,5
293,4.35827,1.186,-1,5
294,4.35946,1.191,-1,5
295,4.36068,1.221,-1,5
296,4.36186,1.182,-1,5
297,4.36306,1.199,-1,5
298,4.36426,1.195,-1,5
299,4.36547,1.208,-1,5
300,4.36667,1.199,-1,5
301,4.36911,1.221,-1,5
302,4.36911,1.217,-1,5
303,4.37154,1.217,-1,5
304,4.37274,1.199,-1,5
305,4.37397,1.225,-1,5
306,4.37520,1.238,-1,5
307,4.37643,1.230,-1,5
308,4.37767,1.238,-1,5
309,4.37889,1.221,-1,5
310,4.38013,1.238,-1,5
311,4.38138,1.247,-1,5
312,4.38261,1.230,-1,5
313,4.38385,1.247,-1,5
314,4.38509,1.238,-1,5
315,4.38760,1.255,-1,5
316,4.38885,1.251,-1,5
317,4.38885,1.264,-1,5
318,4.39139,1.277,-1,5
319,4.39264,1.255,-1,5
320,4.39392,1.277,-1,5
321,4.39520,1.281,-1,5
322,4.39647,1.273,-1,5
323,4.39777,1.294,-1,5
324,4.39903,1.260,-1,5
325,4.40031,1.286,-1,5
326,4.40162,1.307,-1,5
327,4.40290,1.277,-1,5
328,4.40420,1.303,-1,5
329,4.40550,1.299,-1,5
330,4.40813,1.312,-1,5
331,4.40943,1.303,-1,5
332,4.41076,1.329,-1,5
333,4.41206,1.299,-1,5
334,4.41340,1.342,-1,5
335,4.41471,1.307,-1,5
336,4.41604,1.333,-1,5
337,4.41739,1.355,-1,5
338,4.41873,1.333,-1,5
339,4.42010,1.372,-1,5
340,4.42145,1.346,-1,5
341,4.42280,1.350,-1,5
342,4.42415,1.350,-1,5
343,4.42551,1.363,-1,5
344,4.42687,1.359,-1,5
345,4.42825,1.376,-1,5
346,4.42963,1.385,-1,5
347,4.43098,1.355,-1,5
348,4.43237,1.389,-1,5
349,4.43375,1.376,-1,5
350,4.43513,1.385,-1,5
351,4.43653,1.394,-1,5
352,4.43792,1.389,-1,5
353,4.43932,1.402,-1,5
354,4.44073,1.406,-1,5
355,4.44212,1.394,-1,5
356,4.44353,1.415,-1,5
357,4.44494,1.406,-1,5
358,4.44635,1.411,-1,5
359,4.44775,1.394,-1,5
360,4.44917,1.428,-1,5
361,4.45060,1.428,-1,5
362,4.45201,1.411,-1,5
363,4.45344,1.428,-1,5
364,4.45487,1.428,-1,5
365,4.45632,1.450,-1,5
366,4.45772,1.402,-1,5
367,4.45914,1.424,-1,5
368,4.46058,1.437,-1,5
369,4.46202,1.437,-1,5
370,4.46345,1.432,-1,5
371,4.46489,1.441,-1,5
372,4.46634,1.454,-1,5
373,4.46779,1.445,-1,5
374,4.46924,1.450,-1,5
375,4.47069,1.454,-1,5
376,4.47215,1.458,-1,5
377,4.47360,1.445,-1,5
378,4.47506,1.458,-1,5
379,4.47652,1.463,-1,5
380,4.47796,1.445,-1,5
381,4.47943,1.463,-1,5
382,4.48088,1.458,-1,5
383,4.48235,1.463,-1,5
384,4.48381,1.467,-1,5
385,4.48528,1.471,-1,5
386,4.48676,1.471,-1,5
387,4.48824,1.484,-1,5
388,4.48971,1.471,-1,5
389,4.49121,1.497,-1,5
390,4.49269,1.480,-1,5
391,4.49418,1.493,-1,5
392,4.49566,1.484,-1,5
393,4.49717,1.501,-1,5
394,4.49866,1.493,-1,5
395,4.50015,1.493,-1,5
396,4.50164,1.493,-1,5
397,4.50314,1.497,-1,5
398,4.50466,1.514,-1,5
399,4.50616,1.506,-1,5
400,4.50768,1.523,-1,5
401,4.50919,1.506,-1,5
402,4.51071,1.523,-1,5
403,4.51223,1.514,-1,5
404,4.51375,1.545,-1,5
405,4.51684,1.545,-1,5
406,4.51838,1.545,-1,5
407,4.51992,1.545,-1,5
408,4.52146,1.532,-1,5
409,4.52302,1.562,-1,5
410,4.52457,1.549,-1,5
411,4.52613,1.566,-1,5
412,4.52767,1.540,-1,5
413,4.52923,1.562,-1,5
414,4.53081,1.579,-1,5
415,4.53240,1.583,-1,5
416,4.53399,1.592,-1,5
417,4.53557,1.579,-1,5
418,4.53716,1.592,-1,5
419,4.53875,1.592,-1,5
420,4.54036,1.605,-1,5
421,4.54196,1.601,-1,5
422,4.54357,1.609,-1,5
423,4.54519,1.622,-1,5
424,4.54682,1.626,-1,5
425,4.54844,1.626,-1,5
426,4.55006,1.622,-1,5
427,4.55171,1.644,-1,5
428,4.55335,1.639,-1,5
429,4.55499,1.639,-1,5
430,4.55664,1.652,-1,5
431,4.55830,1.665,-1,5
432,4.55997,1.661,-1,5
433,4.56165,1.683,-1,5
434,4.56331,1.665,-1,5
435,4.56499,1.678,-1,5
436,4.56668,1.687,-1,5
437,4.56836,1.700,-1,5
438,4.57175,1.691,-1,5
439,4.57345,1.700,-1,5
440,4.57515,1.696,-1,5
441,4.57686,1.717,-1,5
442,4.57856,1.696,-1,5
443,4.58028,1.717,-1,5
444,4.58200,1.726,-1,5
445,4.58373,1.726,-1,5
446,4.58546,1.734,-1,5
447,4.58720,1.734,-1,5
448,4.58894,1.743,-1,5
449,4.59070,1.756,-1,5
450,4.59244,1.747,-1,5
451,4.59417,1.730,-1,5
452,4.59591,1.739,-1,5
453,4.59767,1.756,-1,5
454,4.60119,1.760,-1,5
455,4.60119,1.773,-1,5
456,4.60474,1.782,-1,5
457,4.60474,1.756,-1,5
458,4.60828,1.778,-1,5
459,4.60828,1.778,-1,5
460,4.61181,1.760,-1,5
461,4.61361,1.790,-1,5
462,4.61539,1.782,-1,5
463,4.61718,1.795,-1,5
464,4.61897,1.786,-1,5
465,4.62075,1.782,-1,5
466,4.62254,1.786,-1,5
467,4.62434,1.799,-1,5
468,4.62613,1.790,-1,5
469,4.62792,1.799,-1,5
470,4.63152,1.816,-1,5
471,4.63334,1.821,-1,5
472,4.63515,1.803,-1,5
473,4.63696,1.816,-1,5
474,4.63878,1.812,-1,5
475,4.64058,1.808,-1,5
476,4.64240,1.812,-1,5
477,4.64422,1.821,-1,5
478,4.64603,1.812,-1,5
479,4.64786,1.834,-1,5
480,4.64966,1.803,-1,5
481,4.65149,1.829,-1,5
482,4.65331,1.816,-1,5
483,4.65514,1.825,-1,5
484,4.65695,1.816,-1,5
485,4.65880,1.847,-1,5
486,4.66247,1.838,-1,5
487,4.66430,1.829,-1,5
488,4.66614,1.834,-1,5
489,4.66796,1.825,-1,5
490,4.66978,1.821,-1,5
491,4.67161,1.829,-1,5
492,4.67345,1.838,-1,5
493,4.67529,1.838,-1,5
494,4.67713,1.847,-1,5
495,4.67897,1.838,-1,5
496,4.68082,1.851,-1,5
497,4.68265,1.829,-1,5
498,4.68449,1.842,-1,5
499,4.68633,1.834,-1,5
500,4.68815,1.825,-1,5
501,4.68999,1.842,-1,5
502,4.69182,1.851,-1,5
503,4.69368,1.851,-1,5
504,4.69551,1.834,-1,5
505,4.69733,1.825,-1,5
506,4.69918,1.851,-1,5
507,4.70103,1.847,-1,5
508,4.70289,1.864,-1,5
509,4.70473,1.834,-1,5
510,4.70656,1.834,-1,5
511,4.70840,1.834,-1,5
512,4.71024,1.847,-1,5
513,4.71209,1.851,-1,5
514,4.71391,1.821,-1,5
515,4.71578,1.864,-1,5
516,4.71760,1.821,-1,5
517,4.71944,1.842,-1,5
518,4.72130,1.855,-1,5
519,4.72315,1.851,-1,5
520,4.72498,1.829,-1,5
521,4.72681,1.834,-1,5
522,4.72864,1.834,-1,5
523,4.73048,1.834,-1,5
524,4.73233,1.851,-1,5
525,4.73418,1.855,-1,5
526,4.73602,1.838,-1,5
527,4.73787,1.851,-1,5
528,4.73972,1.847,-1,5
529,4.74155,1.829,-1,5
530,4.74338,1.838,-1,5
531,4.74524,1.851,-1,5
532,4.74708,1.847,-1,5
533,4.74894,1.859,-1,5
534,4.75078,1.842,-1,5
535,4.75263,1.842,-1,5
536,4.75446,1.829,-1,5
537,4.75629,1.838,-1,5
538,4.75814,1.842,-1,5
539,4.75997,1.834,-1,5
540,4.76182,1.847,-1,5
541,4.76365,1.838,-1,5
542,4.76549,1.834,-1,5
543,4.76732,1.829,-1,5
544,4.76916,1.847,-1,5
545,4.77099,1.825,-1,5
546,4.77282,1.829,-1,5
547,4.77467,1.851,-1,5
548,4.77651,1.838,-1,5
549,4.77834,1.834,-1,5
550,4.78018,1.842,-1,5
551,4.78202,1.838,-1,5
552,4.78384,1.821,-1,5
553,4.78566,1.816,-1,5
554,4.78749,1.834,-1,5
555,4.78930,1.808,-1,5
556,4.79113,1.829,-1,5
557,4.79294,1.812,-1,5
558,4.79475,1.812,-1,5
559,4.79837,1.821,-1,5
560,4.80019,1.816,-1,5
561,4.80199,1.808,-1,5
562,4.80199,1.821,-1,5
563,4.80382,1.821,-1,5
564,4.80562,1.795,-1,5
565,4.80920,1.790,-1,5
566,4.81099,1.790,-1,5
567,4.81278,1.790,-1,5
568,4.81458,1.795,-1,5
569,4.81636,1.778,-1,5
570,4.81815,1.795,-1,5
571,4.81993,1.778,-1,5
572,4.82171,1.778,-1,5
573,4.82348,1.773,-1,5
574,4.82526,1.778,-1,5
575,4.82703,1.778,-1,5
576,4.82880,1.765,-1,5
577,4.83056,1.756,-1,5
578,4.83233,1.773,-1,5
579,4.83408,1.752,-1,5
580,4.83584,1.756,-1,5
581,4.83757,1.734,-1,5
582,4.83933,1.765,-1,5
583,4.84109,1.756,-1,5
584,4.84282,1.730,-1,5
585,4.84457,1.752,-1,5
586,4.84630,1.730,-1,5
587,4.84805,1.747,-1,5
588,4.84979,1.743,-1,5
589,4.85151,1.721,-1,5
590,4.85325,1.739,-1,5
591,4.85495,1.700,-1,5
592,4.85668,1.730,-1,5
593,4.85840,1.713,-1,5
594,4.86011,1.713,-1,5
595,4.86182,1.713,-1,5
596,4.86353,1.708,-1,5
597,4.86525,1.696,-1,5
598,4.86865,1.700,-1,5
599,4.87036,1.708,-1,5
600,4.87206,1.708,-1,5
601,4.87376,1.700,-1,5
602,4.87546,1.700,-1,5
603,4.87715,1.687,-1,5
604,4.87883,1.683,-1,5
605,4.88052,1.687,-1,5
606,4.88221,1.687,-1,5
607,4.88390,1.696,-1,5
608,4.88559,1.687,-1,5
609,4.88729,1.700,-1,5
610,4.88897,1.683,-1,5
611,4.89062,1.648,-1,5
612,4.89399,1.687,-1,5
613,4.89568,1.687,-1,5
614,4.89736,1.683,-1,5
615,4.89903,1.665,-1,5
616,4.90070,1.674,-1,5
617,4.90237,1.670,-1,5
618,4.90405,1.678,-1,5
619,4.90571,1.657,-1,5
620,4.90738,1.674,-1,5
621,4.90904,1.661,-1,5
622,4.91072,1.674,-1,5
623,4.91236,1.648,-1,5
624,4.91405,1.683,-1,5
625,4.91572,1.670,-1,5
626,4.91739,1.670,-1,5
627,4.91906,1.678,-1,5
628,4.92239,1.678,-1,5
629,4.92404,1.652,-1,5
630,4.92571,1.670,-1,5
631,4.92736,1.652,-1,5
632,4.92903,1.661,-1,5
633,4.93070,1.674,-1,5
634,4.93234,1.644,-1,5
635,4.93400,1.661,-1,5
636,4.93567,1.665,-1,5
637,4.93733,1.661,-1,5
638,4.93899,1.661,-1,5
639,4.94065,1.657,-1,5
640,4.94231,1.665,-1,5
641,4.94398,1.665,-1,5
642,4.94564,1.661,-1,5
643,4.94731,1.670,-1,5
644,4.94897,1.665,-1,5
645,4.95062,1.648,-1,5
646,4.95228,1.652,-1,5
647,4.95395,1.674,-1,5
648,4.95562,1.670,-1,5
649,4.95730,1.678,-1,5
650,4.95898,1.670,-1,5
651,4.96233,1.678,-1,5
652,4.96401,1.687,-1,5
653,4.96567,1.657,-1,5
654,4.96736,1.687,-1,5
655,4.96905,1.691,-1,5
656,4.97071,1.661,-1,5
657,4.97242,1.708,-1,5
658,4.97411,1.687,-1,5
659,4.97581,1.704,-1,5
660,4.97749,1.683,-1,5
661,4.97919,1.700,-1,5
662,4.98089,1.696,-1,5
663,4.98259,1.704,-1,5
664,4.98432,1.726,-1,5
665,4.98606,1.739,-1,5
666,4.98778,1.721,-1,5
667,4.98949,1.717,-1,5
668,4.99121,1.717,-1,5
669,4.99296,1.743,-1,5
670,4.99469,1.739,-1,5
671,4.99645,1.752,-1,5
672,4.99818,1.739,-1,5
673,4.99994,1.760,-1,5
674,5.00173,1.782,-1,5
675,5.00347,1.743,-1,5
676,5.00524,1.773,-1,5
677,5.00702,1.782,-1,5
678,5.00881,1.782,-1,5
679,5.01059,1.786,-1,5
680,5.01238,1.786,-1,5
681,5.01418,1.803,-1,5
682,5.01600,1.821,-1,5
683,5.01781,1.808,-1,5
684,5.01962,1.812,-1,5
685,5.02144,1.816,-1,5
686,5.02327,1.834,-1,5
687,5.02507,1.803,-1,5
688,5.02691,1.838,-1,5
689,5.02875,1.838,-1,5
690,5.03061,1.859,-1,5
691,5.03247,1.859,-1,5
692,5.03434,1.872,-1,5
693,5.03621,1.868,-1,5
694,5.03809,1.877,-1,5
695,5.03996,1.877,-1,5
696,5.04183,1.868,-1,5
697,5.04371,1.881,-1,5
698,5.04559,1.872,-1,5
699,5.04748,1.894,-1,5
700,5.04938,1.903,-1,5
701,5.05130,1.920,-1,5
702,5.05320,1.903,-1,5
703,5.05512,1.911,-1,5
704,5.05705,1.933,-1,5
705,5.05897,1.920,-1,5
706,5.06091,1.941,-1,5
707,5.06286,1.946,-1,5
708,5.06480,1.941,-1,5
709,5.06672,1.924,-1,5
710,5.06866,1.937,-1,5
711,5.07061,1.954,-1,5
712,5.07258,1.967,-1,5
713,5.07455,1.972,-1,5
714,5.07651,1.954,-1,5
715,5.07847,1.967,-1,5
716,5.08047,1.993,-1,5
717,5.08446,1.993,-1,5
718,5.08645,1.993,-1,5
719,5.08846,2.006,-1,5
720,5.09045,1.993,-1,5
721,5.09246,2.010,-1,5
722,5.09447,2.010,-1,5
723,5.09650,2.028,-1,5
724,5.09852,2.019,-1,5
725,5.10260,2.041,-1,5
726,5.10260,2.028,-1,5
727,5.10463,2.028,-1,5
728,5.10668,2.045,-1,5
729,5.10873,2.054,-1,5
730,5.11080,2.067,-1,5
731,5.11285,2.054,-1,5
732,5.11492,2.071,-1,5
733,5.11699,2.071,-1,5
734,5.11907,2.075,-1,5
735,5.12114,2.084,-1,5
736,5.12323,2.084,-1,5
737,5.12744,2.118,-1,5
738,5.12744,2.084,-1,5
739,5.13162,2.101,-1,5
740,5.13372,2.101,-1,5
741,5.13584,2.118,-1,5
742,5.13795,2.105,-1,5
743,5.14006,2.114,-1,5
744,5.14218,2.118,-1,5
745,5.14428,2.105,-1,5
746,5.14642,2.131,-1,5
747,5.14855,2.131,-1,5
748,5.15283,2.140,-1,5
749,5.15283,2.140,-1,5
750,5.15497,2.140,-1,5
751,5.15711,2.136,-1,5
752,5.15925,2.144,-1,5
753,5.16139,2.144,-1,5
754,5.16573,2.157,-1,5
755,5.16789,2.157,-1,5
756,5.17006,2.170,-1,5
757,5.17222,2.161,-1,5
758,5.17439,2.166,-1,5
759,5.17657,2.183,-1,5
760,5.17876,2.192,-1,5
761,5.18094,2.183,-1,5
762,5.18313,2.192,-1,5
763,5.18533,2.192,-1,5
764,5.18752,2.192,-1,5
765,5.18972,2.205,-1,5
766,5.19193,2.205,-1,5
767,5.19413,2.226,-1,5
768,5.19636,2.226,-1,5
769,5.20081,2.222,-1,5
770,5.20304,2.231,-1,5
771,5.20528,2.239,-1,5
772,5.20751,2.231,-1,5
773,5.20976,2.252,-1,5
774,5.21200,2.239,-1,5
775,5.21424,2.239,-1,5
776,5.21649,2.252,-1,5
777,5.21874,2.252,-1,5
778,5.22099,2.252,-1,5
779,5.22326,2.265,-1,5
780,5.22554,2.269,-1,5
781,5.22781,2.269,-1,5
782,5.23009,2.278,-1,5
783,5.23236,2.265,-1,5
784,5.23462,2.265,-1,5
785,5.23690,2.274,-1,5
786,5.24149,2.300,-1,5
787,5.24378,2.291,-1,5
788,5.24607,2.291,-1,5
789,5.24835,2.282,-1,5
790,5.25065,2.300,-1,5
791,5.25293,2.282,-1,5
792,5.25524,2.308,-1,5
793,5.25752,2.282,-1,5
794,5.25982,2.300,-1,5
795,5.26213,2.308,-1,5
796,5.26443,2.300,-1,5
797,5.26674,2.308,-1,5
798,5.26906,2.325,-1,5
799,5.27138,2.312,-1,5
800,5.27366,2.282,-1,5
801,5.27598,2.325,-1,5
802,5.27828,2.300,-1,5
803,5.28060,2.312,-1,5
804,5.28290,2.308,-1,5
805,5.28522,2.312,-1,5
806,5.28753,2.317,-1,5
807,5.28985,2.321,-1,5
808,5.29217,2.317,-1,5
809,5.29447,2.304,-1,5
810,5.29681,2.338,-1,5
811,5.29913,2.321,-1,5
812,5.30145,2.312,-1,5
813,5.30377,2.321,-1,5
814,5.30610,2.330,-1,5
815,5.30841,2.312,-1,5
816,5.31073,2.321,-1,5
817,5.31306,2.334,-1,5
818,5.31539,2.321,-1,5
819,5.31773,2.343,-1,5
820,5.32006,2.334,-1,5
821,5.32240,2.338,-1,5
822,5.32472,2.321,-1,5
823,5.32707,2.347,-1,5
824,5.32939,2.317,-1,5
825,5.33172,2.338,-1,5
826,5.33406,2.308,-1,5
827,5.33637,2.347,-1,5
828,5.34107,2.356,-1,5
829,5.34343,2.356,-1,5
830,5.34576,2.330,-1,5
831,5.34811,2.347,-1,5
832,5.35045,2.347,-1,5
833,5.35280,2.347,-1,5
834,5.35514,2.343,-1,5
835,5.35749,2.351,-1,5
836,5.35983,2.334,-1,5
837,5.36218,2.377,-1,5
838,5.36456,2.377,-1,5
839,5.36692,2.347,-1,5
840,5.36927,2.347,-1,5
841,5.37163,2.338,-1,5
842,5.37634,2.369,-1,5
843,5.37871,2.369,-1,5
844,5.38106,2.356,-1,5
845,5.38344,2.382,-1,5
846,5.38581,2.364,-1,5
847,5.38818,2.369,-1,5
848,5.39057,2.390,-1,5
849,5.39294,2.373,-1,5
850,5.39532,2.377,-1,5
851,5.39770,2.386,-1,5
852,5.40008,2.377,-1,5
853,5.40245,2.373,-1,5
854,5.40484,2.390,-1,5
855,5.40723,2.386,-1,5
856,5.40962,2.394,-1,5
857,5.41203,2.403,-1,5
858,5.41442,2.390,-1,5
859,5.41921,2.399,-1,5
860,5.42160,2.390,-1,5
861,5.42401,2.412,-1,5
862,5.42640,2.390,-1,5
863,5.42880,2.407,-1,5
864,5.43120,2.394,-1,5
865,5.43360,2.399,-1,5
866,5.43601,2.412,-1,5
867,5.43842,2.407,-1,5
868,5.44084,2.382,-1,5
869,5.44322,2.382,-1,5
870,5.44562,2.399,-1,5
871,5.44803,2.407,-1,5
872,5.45045,2.425,-1,5
873,5.45286,2.412,-1,5
