cnt,pos,speed,Dir,Force,
1,3.21694,2.144,-1,7
2,3.21910,2.157,-1,7
3,3.22128,2.183,-1,7
4,3.22346,2.174,-1,7
5,3.22563,2.174,-1,7
6,3.22781,2.174,-1,7
7,3.23001,2.205,-1,7
8,3.23220,2.192,-1,7
9,3.23439,2.192,-1,7
10,3.23661,2.218,-1,7
11,3.23883,2.213,-1,7
12,3.24105,2.226,-1,7
13,3.24552,2.248,-1,7
14,3.24778,2.261,-1,7
15,3.25003,2.248,-1,7
16,3.25230,2.274,-1,7
17,3.25456,2.261,-1,7
18,3.25683,2.265,-1,7
19,3.25911,2.278,-1,7
20,3.26140,2.291,-1,7
21,3.26370,2.304,-1,7
22,3.26601,2.308,-1,7
23,3.26833,2.317,-1,7
24,3.27063,2.304,-1,7
25,3.27295,2.317,-1,7
26,3.27528,2.330,-1,7
27,3.27759,2.317,-1,7
28,3.28224,2.321,-1,7
29,3.28224,2.325,-1,7
30,3.28693,2.356,-1,7
31,3.28693,2.356,-1,7
32,3.29162,2.338,-1,7
33,3.29397,2.351,-1,7
34,3.29632,2.347,-1,7
35,3.29867,2.356,-1,7
36,3.30101,2.334,-1,7
37,3.30335,2.347,-1,7
38,3.30569,2.334,-1,7
39,3.30803,2.343,-1,7
40,3.31037,2.338,-1,7
41,3.31270,2.334,-1,7
42,3.31502,2.317,-1,7
43,3.31736,2.343,-1,7
44,3.31969,2.325,-1,7
45,3.32201,2.317,-1,7
46,3.32433,2.325,-1,7
47,3.32664,2.308,-1,7
48,3.32893,2.291,-1,7
49,3.33123,2.300,-1,7
50,3.33353,2.300,-1,7
51,3.33811,2.295,-1,7
52,3.34038,2.274,-1,7
53,3.34266,2.278,-1,7
54,3.34492,2.261,-1,7
55,3.34718,2.256,-1,7
56,3.34941,2.239,-1,7
57,3.35166,2.248,-1,7
58,3.35389,2.226,-1,7
59,3.35611,2.226,-1,7
60,3.35835,2.239,-1,7
61,3.36059,2.235,-1,7
62,3.36281,2.222,-1,7
63,3.36501,2.200,-1,7
64,3.36721,2.196,-1,7
65,3.36942,2.179,-1,7
66,3.37379,2.196,-1,7
67,3.37598,2.187,-1,7
68,3.37816,2.179,-1,7
69,3.38031,2.157,-1,7
70,3.38249,2.174,-1,7
71,3.38467,2.183,-1,7
72,3.38684,2.170,-1,7
73,3.38902,2.174,-1,7
74,3.39120,2.183,-1,7
75,3.39336,2.157,-1,7
76,3.39551,2.153,-1,7
77,3.39764,2.136,-1,7
78,3.39981,2.161,-1,7
79,3.40196,2.153,-1,7
80,3.40413,2.170,-1,7
81,3.40629,2.157,-1,7
82,3.41058,2.161,-1,7
83,3.41058,2.166,-1,7
84,3.41489,2.144,-1,7
85,3.41489,2.161,-1,7
86,3.41920,2.149,-1,7
87,3.42135,2.149,-1,7
88,3.42350,2.153,-1,7
89,3.42565,2.149,-1,7
90,3.42781,2.161,-1,7
91,3.42997,2.161,-1,7
92,3.43212,2.144,-1,7
93,3.43426,2.149,-1,7
94,3.43642,2.153,-1,7
95,3.43857,2.153,-1,7
96,3.44071,2.144,-1,7
97,3.44285,2.144,-1,7
98,3.44499,2.131,-1,7
99,3.44712,2.131,-1,7
100,3.45141,2.140,-1,7
101,3.45141,2.149,-1,7
102,3.45569,2.136,-1,7
103,3.45782,2.136,-1,7
104,3.45997,2.149,-1,7
105,3.46210,2.127,-1,7
106,3.46422,2.118,-1,7
107,3.46635,2.136,-1,7
108,3.46848,2.127,-1,7
109,3.47060,2.123,-1,7
110,3.47274,2.136,-1,7
111,3.47487,2.127,-1,7
112,3.47698,2.144,-1,7
113,3.47913,2.144,-1,7
114,3.48126,2.118,-1,7
115,3.48337,2.118,-1,7
116,3.48549,2.118,-1,7
117,3.48761,2.114,-1,7
118,3.49180,2.092,-1,7
119,3.49392,2.118,-1,7
120,3.49603,2.105,-1,7
121,3.49812,2.097,-1,7
122,3.50025,2.123,-1,7
123,3.50237,2.118,-1,7
124,3.50446,2.092,-1,7
125,3.50655,2.097,-1,7
126,3.50866,2.105,-1,7
127,3.51075,2.088,-1,7
128,3.51284,2.092,-1,7
129,3.51493,2.088,-1,7
130,3.51702,2.092,-1,7
131,3.51910,2.092,-1,7
132,3.52325,2.062,-1,7
133,3.52531,2.062,-1,7
134,3.52740,2.084,-1,7
135,3.52948,2.080,-1,7
136,3.53153,2.058,-1,7
137,3.53359,2.058,-1,7
138,3.53565,2.058,-1,7
139,3.53768,2.028,-1,7
140,3.53972,2.041,-1,7
141,3.54176,2.045,-1,7
142,3.54381,2.045,-1,7
143,3.54584,2.028,-1,7
144,3.54787,2.036,-1,7
145,3.54991,2.041,-1,7
146,3.55192,2.002,-1,7
147,3.55393,2.015,-1,7
148,3.55594,2.006,-1,7
149,3.55994,1.989,-1,7
150,3.56195,2.006,-1,7
151,3.56391,1.963,-1,7
152,3.56592,2.006,-1,7
153,3.56788,1.963,-1,7
154,3.56987,1.985,-1,7
155,3.57186,1.989,-1,7
156,3.57383,1.950,-1,7
157,3.57578,1.950,-1,7
158,3.57773,1.950,-1,7
159,3.57968,1.950,-1,7
160,3.58357,1.946,-1,7
161,3.58549,1.924,-1,7
162,3.58740,1.907,-1,7
163,3.58934,1.941,-1,7
164,3.59126,1.920,-1,7
165,3.59317,1.916,-1,7
166,3.59509,1.916,-1,7
167,3.59699,1.903,-1,7
168,3.59887,1.881,-1,7
169,3.60078,1.903,-1,7
170,3.60267,1.894,-1,7
171,3.60456,1.881,-1,7
172,3.60644,1.885,-1,7
173,3.60833,1.855,-1,7
174,3.61018,1.855,-1,7
175,3.61204,1.859,-1,7
176,3.61390,1.859,-1,7
177,3.61760,1.847,-1,7
178,3.61945,1.851,-1,7
179,3.62129,1.838,-1,7
180,3.62312,1.834,-1,7
181,3.62495,1.829,-1,7
182,3.62677,1.821,-1,7
183,3.62858,1.812,-1,7
184,3.63040,1.816,-1,7
185,3.63218,1.786,-1,7
186,3.63398,1.795,-1,7
187,3.63577,1.795,-1,7
188,3.63756,1.795,-1,7
189,3.63932,1.773,-1,7
190,3.64110,1.773,-1,7
191,3.64288,1.782,-1,7
192,3.64464,1.760,-1,7
193,3.64815,1.747,-1,7
194,3.64988,1.734,-1,7
195,3.65162,1.739,-1,7
196,3.65335,1.730,-1,7
197,3.65506,1.713,-1,7
198,3.65678,1.713,-1,7
199,3.65848,1.704,-1,7
200,3.66017,1.696,-1,7
201,3.66354,1.661,-1,7
202,3.66354,1.678,-1,7
203,3.66690,1.678,-1,7
204,3.66690,1.657,-1,7
205,3.67023,1.674,-1,7
206,3.67023,1.652,-1,7
207,3.67351,1.622,-1,7
208,3.67514,1.635,-1,7
209,3.67675,1.614,-1,7
210,3.67836,1.609,-1,7
211,3.67996,1.596,-1,7
212,3.68155,1.588,-1,7
213,3.68314,1.588,-1,7
214,3.68473,1.592,-1,7
215,3.68631,1.583,-1,7
216,3.68788,1.570,-1,7
217,3.68943,1.545,-1,7
218,3.69097,1.540,-1,7
219,3.69251,1.545,-1,7
220,3.69406,1.545,-1,7
221,3.69557,1.510,-1,7
222,3.69709,1.510,-1,7
223,3.70010,1.497,-1,7
224,3.70158,1.488,-1,7
225,3.70307,1.488,-1,7
226,3.70454,1.467,-1,7
227,3.70599,1.450,-1,7
228,3.70746,1.467,-1,7
229,3.70890,1.441,-1,7
230,3.71034,1.445,-1,7
231,3.71177,1.424,-1,7
232,3.71320,1.432,-1,7
233,3.71460,1.406,-1,7
234,3.71602,1.415,-1,7
235,3.71740,1.385,-1,7
236,3.71881,1.406,-1,7
237,3.72017,1.359,-1,7
238,3.72155,1.346,-1,7
239,3.72423,1.324,-1,7
240,3.72557,1.346,-1,7
241,3.72690,1.333,-1,7
242,3.72822,1.320,-1,7
243,3.72953,1.307,-1,7
244,3.73083,1.303,-1,7
245,3.73213,1.294,-1,7
246,3.73341,1.281,-1,7
247,3.73470,1.286,-1,7
248,3.73597,1.273,-1,7
249,3.73723,1.260,-1,7
250,3.73849,1.264,-1,7
251,3.73972,1.230,-1,7
252,3.74096,1.238,-1,7
253,3.74220,1.243,-1,7
254,3.74462,1.212,-1,7
255,3.74462,1.169,-1,7
256,3.74699,1.199,-1,7
257,3.74817,1.186,-1,7
258,3.74934,1.165,-1,7
259,3.74934,1.161,-1,7
260,3.75165,1.152,-1,7
261,3.75280,1.148,-1,7
262,3.75395,1.148,-1,7
263,3.75506,1.117,-1,7
264,3.75620,1.139,-1,7
265,3.75730,1.100,-1,7
266,3.75840,1.096,-1,7
267,3.75946,1.066,-1,7
268,3.76056,1.100,-1,7
269,3.76163,1.061,-1,7
270,3.76270,1.074,-1,7
271,3.76375,1.048,-1,7
272,3.76481,1.057,-1,7
273,3.76583,1.027,-1,7
274,3.76686,1.027,-1,7
275,3.76787,1.010,-1,7
276,3.76987,0.984,-1,7
277,3.77085,0.988,-1,7
278,3.77182,0.966,-1,7
279,3.77280,0.975,-1,7
280,3.77373,0.936,-1,7
281,3.77467,0.941,-1,7
282,3.77561,0.941,-1,7
283,3.77653,0.915,-1,7
284,3.77745,0.919,-1,7
285,3.77833,0.884,-1,7
286,3.77921,0.880,-1,7
287,3.78010,0.893,-1,7
288,3.78096,0.854,-1,7
289,3.78181,0.850,-1,7
290,3.78268,0.867,-1,7
291,3.78350,0.828,-1,7
292,3.78515,0.837,-1,7
293,3.78595,0.802,-1,7
294,3.78674,0.785,-1,7
295,3.78752,0.781,-1,7
296,3.78830,0.781,-1,7
297,3.78904,0.742,-1,7
298,3.78977,0.733,-1,7
299,3.79051,0.738,-1,7
300,3.79123,0.720,-1,7
301,3.79194,0.708,-1,7
302,3.79263,0.695,-1,7
303,3.79332,0.686,-1,7
304,3.79400,0.677,-1,7
305,3.79466,0.664,-1,7
306,3.79532,0.656,-1,7
307,3.79595,0.630,-1,7
308,3.79657,0.621,-1,7
309,3.79718,0.604,-1,7
310,3.79779,0.604,-1,7
311,3.79837,0.578,-1,7
312,3.79895,0.578,-1,7
313,3.80008,0.561,-1,7
314,3.80062,0.539,-1,7
315,3.80115,0.522,-1,7
316,3.80168,0.539,-1,7
317,3.80219,0.505,-1,7
318,3.80268,0.492,-1,7
319,3.80317,0.488,-1,7
320,3.80366,0.488,-1,7
321,3.80412,0.462,-1,7
322,3.80456,0.440,-1,7
323,3.80500,0.444,-1,7
324,3.80541,0.410,-1,7
325,3.80584,0.427,-1,7
326,3.80623,0.393,-1,7
327,3.80661,0.380,-1,7
328,3.80698,0.367,-1,7
329,3.80733,0.354,-1,7
330,3.80803,0.341,-1,7
331,3.80803,0.319,-1,7
332,3.80865,0.298,-1,7
333,3.80865,0.306,-1,7
334,3.80923,0.280,-1,7
335,3.80923,0.259,-1,7
336,3.80977,0.272,-1,7
337,3.81002,0.255,-1,7
338,3.81024,0.220,-1,7
339,3.81046,0.224,-1,7
340,3.81066,0.198,-1,7
341,3.81085,0.190,-1,7
342,3.81103,0.173,-1,7
343,3.81118,0.160,-1,7
344,3.81132,0.138,-1,7
345,3.81145,0.129,-1,7
346,3.81157,0.121,-1,7
347,3.81169,0.112,-1,7
348,3.81177,0.086,-1,7
349,3.81184,0.069,-1,7
350,3.81190,0.060,-1,7
351,3.81195,0.052,-1,7
352,3.81197,0.022,-1,7
353,3.81199,0.013,-1,7
354,3.81198,-0.004,-1,7
355,3.81197,-0.017,-1,7
356,3.81193,-0.035,-1,7
357,3.81182,-0.056,-1,7
358,3.81174,-0.078,-1,7
359,3.81166,-0.086,-1,7
360,3.81154,-0.112,-1,7
361,3.81143,-0.116,-1,7
362,3.81129,-0.134,-1,7
363,3.81115,-0.138,-1,7
364,3.81100,-0.155,-1,7
365,3.81083,-0.168,-1,7
366,3.81065,-0.186,-1,7
367,3.81045,-0.198,-1,7
368,3.81024,-0.211,-1,7
369,3.81001,-0.229,-1,7
370,3.80976,-0.246,-1,7
371,3.80949,-0.267,-1,7
372,3.80923,-0.267,-1,7
373,3.80894,-0.285,-1,7
374,3.80863,-0.306,-1,7
375,3.80800,-0.324,-1,7
376,3.80764,-0.354,-1,7
377,3.80727,-0.371,-1,7
378,3.80690,-0.371,-1,7
379,3.80651,-0.393,-1,7
380,3.80610,-0.406,-1,7
381,3.80567,-0.436,-1,7
382,3.80522,-0.449,-1,7
383,3.80476,-0.457,-1,7
384,3.80429,-0.475,-1,7
385,3.80379,-0.492,-1,7
386,3.80326,-0.535,-1,7
387,3.80273,-0.531,-1,7
388,3.80219,-0.544,-1,7
389,3.80162,-0.569,-1,7
390,3.80102,-0.595,-1,7
391,3.80042,-0.600,-1,7
392,3.79980,-0.621,-1,7
393,3.79916,-0.643,-1,7
394,3.79849,-0.669,-1,7
395,3.79781,-0.682,-1,7
396,3.79711,-0.699,-1,7
397,3.79638,-0.725,-1,7
398,3.79565,-0.764,-1,7
399,3.79410,-0.785,-1,7
400,3.79330,-0.802,-1,7
401,3.79247,-0.824,-1,7
402,3.79163,-0.841,-1,7
403,3.79076,-0.876,-1,7
404,3.78989,-0.871,-1,7
405,3.78898,-0.902,-1,7
406,3.78806,-0.919,-1,7
407,3.78709,-0.971,-1,7
408,3.78613,-0.962,-1,7
409,3.78514,-0.988,-1,7
410,3.78410,-1.040,-1,7
411,3.78308,-1.022,-1,7
412,3.78199,-1.092,-1,7
413,3.77985,-1.083,-1,7
414,3.77871,-1.139,-1,7
415,3.77758,-1.135,-1,7
416,3.77758,-1.178,-1,7
417,3.77521,-1.191,-1,7
418,3.77400,-1.212,-1,7
419,3.77278,-1.217,-1,7
420,3.77150,-1.277,-1,7
421,3.77022,-1.277,-1,7
422,3.76893,-1.290,-1,7
423,3.76759,-1.346,-1,7
424,3.76626,-1.333,-1,7
425,3.76488,-1.372,-1,7
426,3.76346,-1.424,-1,7
427,3.76205,-1.406,-1,7
428,3.76061,-1.441,-1,7
429,3.75914,-1.471,-1,7
430,3.75767,-1.475,-1,7
431,3.75617,-1.497,-1,7
432,3.75462,-1.545,-1,7
433,3.75307,-1.557,-1,7
434,3.75147,-1.592,-1,7
435,3.74989,-1.583,-1,7
436,3.74662,-1.648,-1,7
437,3.74496,-1.661,-1,7
438,3.74326,-1.696,-1,7
439,3.74153,-1.726,-1,7
440,3.73980,-1.730,-1,7
441,3.73805,-1.756,-1,7
442,3.73627,-1.782,-1,7
443,3.73446,-1.808,-1,7
444,3.73262,-1.851,-1,7
445,3.72890,-1.872,-1,7
446,3.72699,-1.911,-1,7
447,3.72506,-1.924,-1,7
448,3.72311,-1.954,-1,7
449,3.72116,-1.950,-1,7
450,3.71915,-2.010,-1,7
451,3.71712,-2.023,-1,7
452,3.71507,-2.054,-1,7
453,3.71300,-2.071,-1,7
454,3.71092,-2.080,-1,7
455,3.70880,-2.123,-1,7
456,3.70664,-2.140,-1,7
457,3.70450,-2.179,-1,7
458,3.70012,-2.209,-1,7
459,3.69788,-2.235,-1,7
460,3.69563,-2.252,-1,7
461,3.69334,-2.287,-1,7
462,3.69106,-2.287,-1,7
463,3.68874,-2.317,-1,7
464,3.68641,-2.330,-1,7
465,3.68403,-2.377,-1,7
466,3.68165,-2.386,-1,7
467,3.67923,-2.416,-1,7
468,3.67682,-2.416,-1,7
469,3.67438,-2.438,-1,7
470,3.67190,-2.476,-1,7
471,3.66938,-2.524,-1,7
472,3.66688,-2.558,-1,7
473,3.66178,-2.537,-1,7
474,3.65919,-2.597,-1,7
475,3.65659,-2.602,-1,7
476,3.65395,-2.632,-1,7
477,3.65130,-2.649,-1,7
478,3.64863,-2.675,-1,7
479,3.64592,-2.705,-1,7
480,3.64319,-2.731,-1,7
481,3.64045,-2.748,-1,7
482,3.63768,-2.765,-1,7
483,3.63488,-2.796,-1,7
484,3.63206,-2.826,-1,7
485,3.62921,-2.847,-1,7
486,3.62636,-2.847,-1,7
487,3.62348,-2.886,-1,7
488,3.62058,-2.899,-1,7
489,3.61764,-2.942,-1,7
490,3.61468,-2.955,-1,7
491,3.61171,-2.973,-1,7
492,3.60873,-2.977,-1,7
493,3.60571,-3.020,-1,7
494,3.60268,-3.029,-1,7
495,3.59961,-3.072,-1,7
496,3.59345,-3.111,-1,7
497,3.59035,-3.098,-1,7
498,3.58718,-3.167,-1,7
499,3.58403,-3.149,-1,7
500,3.58084,-3.193,-1,7
501,3.57765,-3.193,-1,7
502,3.57441,-3.231,-1,7
503,3.57118,-3.236,-1,7
504,3.56790,-3.279,-1,7
505,3.56462,-3.279,-1,7
506,3.56130,-3.318,-1,7
507,3.55799,-3.313,-1,7
508,3.55462,-3.369,-1,7
509,3.55127,-3.352,-1,7
510,3.54787,-3.400,-1,7
511,3.54445,-3.421,-1,7
512,3.53756,-3.464,-1,7
513,3.53408,-3.477,-1,7
514,3.53057,-3.508,-1,7
515,3.52707,-3.503,-1,7
516,3.52351,-3.559,-1,7
517,3.51996,-3.555,-1,7
518,3.51278,-3.607,-1,7
519,3.50915,-3.628,-1,7
520,3.50553,-3.624,-1,7
521,3.50185,-3.680,-1,7
522,3.49817,-3.676,-1,7
523,3.49451,-3.659,-1,7
524,3.49078,-3.732,-1,7
525,3.48705,-3.736,-1,7
526,3.48331,-3.732,-1,7
527,3.47954,-3.771,-1,7
528,3.47576,-3.784,-1,7
529,3.47196,-3.801,-1,7
530,3.46814,-3.818,-1,7
531,3.46430,-3.840,-1,7
532,3.46045,-3.848,-1,7
533,3.45658,-3.883,-1,7
534,3.44878,-3.917,-1,7
535,3.44486,-3.913,-1,7
536,3.44486,-3.939,-1,7
537,3.43699,-3.939,-1,7
538,3.43299,-3.999,-1,7
539,3.42899,-3.999,-1,7
540,3.42498,-4.008,-1,7
541,3.42097,-4.012,-1,7
542,3.41692,-4.043,-1,7
543,3.41287,-4.055,-1,7
544,3.40880,-4.068,-1,7
545,3.40476,-4.043,-1,7
546,3.40064,-4.116,-1,7
547,3.39654,-4.107,-1,7
548,3.39244,-4.099,-1,7
549,3.38415,-4.142,-1,7
550,3.38415,-4.146,-1,7
551,3.38001,-4.155,-1,7
552,3.37585,-4.155,-1,7
553,3.36750,-4.189,-1,7
554,3.36330,-4.202,-1,7
555,3.35907,-4.232,-1,7
556,3.35485,-4.219,-1,7
557,3.35061,-4.241,-1,7
558,3.34636,-4.245,-1,7
559,3.34208,-4.275,-1,7
560,3.33780,-4.284,-1,7
561,3.33349,-4.306,-1,7
562,3.32918,-4.310,-1,7
563,3.32488,-4.306,-1,7
564,3.32054,-4.340,-1,7
565,3.31620,-4.340,-1,7
566,3.31187,-4.327,-1,7
567,3.30751,-4.357,-1,7
568,3.30316,-4.349,-1,7
569,3.29879,-4.379,-1,7
570,3.29001,-4.388,-1,7
571,3.28561,-4.401,-1,7
572,3.28122,-4.388,-1,7
573,3.27684,-4.379,-1,7
574,3.27242,-4.418,-1,7
575,3.26800,-4.418,-1,7
576,3.26355,-4.452,-1,7
577,3.25911,-4.439,-1,7
578,3.25468,-4.435,-1,7
579,3.25022,-4.461,-1,7
580,3.24574,-4.478,-1,7
581,3.24127,-4.457,-1,7
582,3.23681,-4.457,-1,7
583,3.23234,-4.496,-1,7
584,3.22784,-4.496,-1,7
585,3.21885,-4.517,-1,7
