cnt,pos,speed,Dir,Force,
1,3.22950,3.443,-1,5
2,3.23291,3.408,-1,5
3,3.23633,3.417,-1,5
4,3.23973,3.395,-1,5
5,3.24313,3.395,-1,5
6,3.24654,3.374,-1,5
7,3.24991,3.374,-1,5
8,3.25329,3.382,-1,5
9,3.25665,3.348,-1,5
10,3.26336,3.365,-1,5
11,3.26673,3.369,-1,5
12,3.27002,3.292,-1,5
13,3.27335,3.326,-1,5
14,3.27667,3.318,-1,5
15,3.27997,3.305,-1,5
16,3.28324,3.266,-1,5
17,3.28652,3.283,-1,5
18,3.28981,3.288,-1,5
19,3.29306,3.253,-1,5
20,3.29631,3.244,-1,5
21,3.29955,3.244,-1,5
22,3.30276,3.210,-1,5
23,3.30597,3.210,-1,5
24,3.30917,3.197,-1,5
25,3.31238,3.162,-1,5
26,3.31871,3.167,-1,5
27,3.32188,3.171,-1,5
28,3.32501,3.132,-1,5
29,3.32813,3.115,-1,5
30,3.33126,3.128,-1,5
31,3.33435,3.093,-1,5
32,3.33746,3.111,-1,5
33,3.34053,3.067,-1,5
34,3.34361,3.080,-1,5
35,3.34663,3.024,-1,5
36,3.34965,3.020,-1,5
37,3.35267,3.016,-1,5
38,3.35565,2.986,-1,5
39,3.35863,2.977,-1,5
40,3.36160,2.968,-1,5
41,3.36456,2.960,-1,5
42,3.36749,2.925,-1,5
43,3.37041,2.925,-1,5
44,3.37330,2.878,-1,5
45,3.37618,2.878,-1,5
46,3.37905,2.822,-1,5
47,3.38188,2.822,-1,5
48,3.38757,2.847,-1,5
49,3.39036,2.791,-1,5
50,3.39316,2.800,-1,5
51,3.39591,2.757,-1,5
52,3.39865,2.740,-1,5
53,3.40140,2.744,-1,5
54,3.40413,2.731,-1,5
55,3.40683,2.701,-1,5
56,3.40952,2.692,-1,5
57,3.41219,2.666,-1,5
58,3.41483,2.645,-1,5
59,3.41749,2.653,-1,5
60,3.42011,2.627,-1,5
61,3.42271,2.602,-1,5
62,3.42530,2.589,-1,5
63,3.42787,2.571,-1,5
64,3.43298,2.537,-1,5
65,3.43549,2.511,-1,5
66,3.43549,2.489,-1,5
67,3.43798,2.489,-1,5
68,3.44047,2.459,-1,5
69,3.44293,2.438,-1,5
70,3.44777,2.407,-1,5
71,3.45016,2.390,-1,5
72,3.45255,2.390,-1,5
73,3.45492,2.369,-1,5
74,3.45727,2.351,-1,5
75,3.45962,2.343,-1,5
76,3.46191,2.295,-1,5
77,3.46417,2.261,-1,5
78,3.46644,2.269,-1,5
79,3.46868,2.239,-1,5
80,3.47091,2.231,-1,5
81,3.47314,2.231,-1,5
82,3.47533,2.187,-1,5
83,3.47748,2.131,-1,5
84,3.47961,2.131,-1,5
85,3.48175,2.136,-1,5
86,3.48594,2.092,-1,5
87,3.48800,2.062,-1,5
88,3.49005,2.049,-1,5
89,3.49205,1.998,-1,5
90,3.49406,2.010,-1,5
91,3.49604,1.980,-1,5
92,3.49799,1.954,-1,5
93,3.49995,1.954,-1,5
94,3.50186,1.916,-1,5
95,3.50378,1.920,-1,5
96,3.50567,1.890,-1,5
97,3.50752,1.851,-1,5
98,3.50935,1.834,-1,5
99,3.51118,1.825,-1,5
100,3.51298,1.799,-1,5
101,3.51652,1.769,-1,5
102,3.51823,1.713,-1,5
103,3.51995,1.717,-1,5
104,3.52165,1.704,-1,5
105,3.52332,1.665,-1,5
106,3.52496,1.644,-1,5
107,3.52658,1.622,-1,5
108,3.52820,1.622,-1,5
109,3.52980,1.596,-1,5
110,3.53138,1.575,-1,5
111,3.53292,1.549,-1,5
112,3.53444,1.514,-1,5
113,3.53594,1.501,-1,5
114,3.53743,1.488,-1,5
115,3.53888,1.432,-1,5
116,3.54031,1.424,-1,5
117,3.54314,1.402,-1,5
118,3.54450,1.363,-1,5
119,3.54585,1.350,-1,5
120,3.54720,1.346,-1,5
121,3.54849,1.290,-1,5
122,3.54978,1.299,-1,5
123,3.55105,1.268,-1,5
124,3.55228,1.225,-1,5
125,3.55351,1.230,-1,5
126,3.55468,1.173,-1,5
127,3.55586,1.182,-1,5
128,3.55700,1.139,-1,5
129,3.55814,1.139,-1,5
130,3.55924,1.100,-1,5
131,3.56033,1.087,-1,5
132,3.56244,1.053,-1,5
133,3.56344,1.001,-1,5
134,3.56444,0.997,-1,5
135,3.56541,0.975,-1,5
136,3.56635,0.936,-1,5
137,3.56728,0.932,-1,5
138,3.56819,0.906,-1,5
139,3.56907,0.884,-1,5
140,3.56993,0.859,-1,5
141,3.57077,0.841,-1,5
142,3.57159,0.820,-1,5
143,3.57238,0.794,-1,5
144,3.57314,0.755,-1,5
145,3.57389,0.755,-1,5
146,3.57462,0.725,-1,5
147,3.57531,0.695,-1,5
148,3.57598,0.669,-1,5
149,3.57663,0.651,-1,5
150,3.57726,0.626,-1,5
151,3.57787,0.617,-1,5
152,3.57845,0.578,-1,5
153,3.57903,0.574,-1,5
154,3.57956,0.535,-1,5
155,3.58056,0.492,-1,5
156,3.58056,0.492,-1,5
157,3.58149,0.440,-1,5
158,3.58149,0.418,-1,5
159,3.58231,0.401,-1,5
160,3.58231,0.371,-1,5
161,3.58269,0.354,-1,5
162,3.58304,0.354,-1,5
163,3.58370,0.306,-1,5
164,3.58398,0.285,-1,5
165,3.58425,0.267,-1,5
166,3.58449,0.242,-1,5
167,3.58472,0.229,-1,5
168,3.58492,0.198,-1,5
169,3.58509,0.173,-1,5
170,3.58524,0.151,-1,5
171,3.58537,0.125,-1,5
172,3.58548,0.112,-1,5
173,3.58558,0.095,-1,5
174,3.58564,0.060,-1,5
175,3.58567,0.035,-1,5
176,3.58569,0.022,-1,5
177,3.58569,-0.004,-1,5
178,3.58566,-0.030,-1,5
179,3.58561,-0.047,-1,5
180,3.58553,-0.078,-1,5
181,3.58543,-0.104,-1,5
182,3.58531,-0.116,-1,5
183,3.58517,-0.138,-1,5
184,3.58502,-0.155,-1,5
185,3.58483,-0.190,-1,5
186,3.58439,-0.229,-1,5
187,3.58416,-0.237,-1,5
188,3.58389,-0.267,-1,5
189,3.58361,-0.280,-1,5
190,3.58330,-0.306,-1,5
191,3.58296,-0.341,-1,5
192,3.58262,-0.341,-1,5
193,3.58225,-0.375,-1,5
194,3.58187,-0.380,-1,5
195,3.58146,-0.406,-1,5
196,3.58103,-0.431,-1,5
197,3.58055,-0.479,-1,5
198,3.58008,-0.466,-1,5
199,3.57959,-0.492,-1,5
200,3.57908,-0.509,-1,5
201,3.57854,-0.539,-1,5
202,3.57799,-0.591,-1,5
203,3.57740,-0.578,-1,5
204,3.57620,-0.621,-1,5
205,3.57556,-0.634,-1,5
206,3.57491,-0.651,-1,5
207,3.57491,-0.682,-1,5
208,3.57423,-0.703,-1,5
209,3.57281,-0.716,-1,5
210,3.57208,-0.733,-1,5
211,3.57131,-0.764,-1,5
212,3.57052,-0.794,-1,5
213,3.56973,-0.794,-1,5
214,3.56889,-0.837,-1,5
215,3.56806,-0.828,-1,5
216,3.56720,-0.863,-1,5
217,3.56630,-0.893,-1,5
218,3.56542,-0.889,-1,5
219,3.56450,-0.919,-1,5
220,3.56354,-0.958,-1,5
221,3.56259,-0.945,-1,5
222,3.56160,-1.005,-1,5
223,3.55959,-1.005,-1,5
224,3.55854,-1.048,-1,5
225,3.55748,-1.061,-1,5
226,3.55639,-1.092,-1,5
227,3.55530,-1.092,-1,5
228,3.55418,-1.122,-1,5
229,3.55305,-1.130,-1,5
230,3.55187,-1.178,-1,5
231,3.55069,-1.178,-1,5
232,3.54950,-1.186,-1,5
233,3.54827,-1.230,-1,5
234,3.54704,-1.238,-1,5
235,3.54576,-1.273,-1,5
236,3.54447,-1.294,-1,5
237,3.54319,-1.277,-1,5
238,3.54187,-1.324,-1,5
239,3.53917,-1.346,-1,5
240,3.53917,-1.376,-1,5
241,3.53639,-1.402,-1,5
242,3.53499,-1.402,-1,5
243,3.53355,-1.432,-1,5
244,3.53209,-1.467,-1,5
245,3.53060,-1.484,-1,5
246,3.52912,-1.480,-1,5
247,3.52760,-1.523,-1,5
248,3.52606,-1.540,-1,5
249,3.52450,-1.557,-1,5
250,3.52295,-1.553,-1,5
251,3.52138,-1.570,-1,5
252,3.51976,-1.618,-1,5
253,3.51813,-1.626,-1,5
254,3.51651,-1.665,-1,5
255,3.51316,-1.683,-1,5
256,3.51145,-1.708,-1,5
257,3.50973,-1.717,-1,5
258,3.50800,-1.730,-1,5
259,3.50626,-1.747,-1,5
260,3.50448,-1.782,-1,5
261,3.50269,-1.786,-1,5
262,3.50086,-1.834,-1,5
263,3.49901,-1.842,-1,5
264,3.49719,-1.825,-1,5
265,3.49532,-1.864,-1,5
266,3.49344,-1.890,-1,5
267,3.49152,-1.911,-1,5
268,3.48962,-1.924,-1,5
269,3.48573,-1.959,-1,5
270,3.48376,-1.976,-1,5
271,3.48177,-1.989,-1,5
272,3.47975,-2.023,-1,5
273,3.47772,-2.028,-1,5
274,3.47567,-2.045,-1,5
275,3.47362,-2.054,-1,5
276,3.47153,-2.088,-1,5
277,3.46942,-2.110,-1,5
278,3.46731,-2.114,-1,5
279,3.46517,-2.140,-1,5
280,3.46301,-2.161,-1,5
281,3.46085,-2.157,-1,5
282,3.45865,-2.200,-1,5
283,3.45644,-2.205,-1,5
284,3.45422,-2.239,-1,5
285,3.45198,-2.261,-1,5
286,3.44745,-2.274,-1,5
287,3.44745,-2.287,-1,5
288,3.44516,-2.287,-1,5
289,3.44052,-2.338,-1,5
290,3.44052,-2.347,-1,5
291,3.43582,-2.356,-1,5
292,3.43344,-2.377,-1,5
293,3.43106,-2.386,-1,5
294,3.42863,-2.429,-1,5
295,3.42620,-2.429,-1,5
296,3.42377,-2.433,-1,5
297,3.42130,-2.463,-1,5
298,3.41884,-2.468,-1,5
299,3.41634,-2.494,-1,5
300,3.41385,-2.489,-1,5
301,3.41134,-2.515,-1,5
302,3.40880,-2.537,-1,5
303,3.40626,-2.545,-1,5
304,3.40371,-2.550,-1,5
305,3.40113,-2.580,-1,5
306,3.39851,-2.614,-1,5
307,3.39331,-2.610,-1,5
308,3.39066,-2.649,-1,5
309,3.38801,-2.649,-1,5
310,3.38534,-2.666,-1,5
311,3.38263,-2.709,-1,5
312,3.37996,-2.679,-1,5
313,3.37725,-2.705,-1,5
314,3.37451,-2.744,-1,5
315,3.37175,-2.753,-1,5
316,3.36900,-2.753,-1,5
317,3.36623,-2.774,-1,5
318,3.36342,-2.809,-1,5
319,3.36060,-2.817,-1,5
320,3.35777,-2.835,-1,5
321,3.35492,-2.843,-1,5
322,3.35205,-2.873,-1,5
323,3.34916,-2.886,-1,5
324,3.34337,-2.908,-1,5
325,3.34337,-2.951,-1,5
326,3.33748,-2.938,-1,5
327,3.33748,-2.973,-1,5
328,3.33152,-2.986,-1,5
329,3.32852,-2.998,-1,5
330,3.32554,-2.986,-1,5
331,3.32249,-3.050,-1,5
332,3.31946,-3.033,-1,5
333,3.31638,-3.076,-1,5
334,3.31333,-3.050,-1,5
335,3.31024,-3.093,-1,5
336,3.30713,-3.102,-1,5
337,3.30402,-3.124,-1,5
338,3.29774,-3.158,-1,5
339,3.29457,-3.162,-1,5
340,3.29142,-3.154,-1,5
341,3.28822,-3.197,-1,5
342,3.28501,-3.210,-1,5
343,3.28182,-3.197,-1,5
344,3.27859,-3.231,-1,5
345,3.27536,-3.223,-1,5
346,3.27209,-3.275,-1,5
347,3.26883,-3.257,-1,5
348,3.26555,-3.283,-1,5
349,3.26227,-3.283,-1,5
350,3.25894,-3.322,-1,5
351,3.25559,-3.309,-1,5
352,3.24893,-3.352,-1,5
353,3.24554,-3.391,-1,5
354,3.24216,-3.374,-1,5
355,3.23880,-3.369,-1,5
356,3.23536,-3.439,-1,5
357,3.23195,-3.404,-1,5
358,3.22849,-3.460,-1,5
