cnt,pos,speed,Dir,Force,
1,3.21391,2.947,-1,5
2,3.21391,2.955,-1,5
3,3.21985,2.990,-1,5
4,3.21985,2.951,-1,5
5,3.22280,2.951,-1,5
6,3.22867,2.934,-1,5
7,3.23160,2.934,-1,5
8,3.23453,2.934,-1,5
9,3.23744,2.908,-1,5
10,3.24036,2.921,-1,5
11,3.24325,2.891,-1,5
12,3.24616,2.908,-1,5
13,3.24907,2.912,-1,5
14,3.25195,2.873,-1,5
15,3.25483,2.886,-1,5
16,3.25768,2.847,-1,5
17,3.26057,2.891,-1,5
18,3.26343,2.856,-1,5
19,3.26629,2.865,-1,5
20,3.26913,2.839,-1,5
21,3.27196,2.835,-1,5
22,3.27480,2.826,-1,5
23,3.27762,2.809,-1,5
24,3.28322,2.791,-1,5
25,3.28322,2.809,-1,5
26,3.28603,2.809,-1,5
27,3.28884,2.809,-1,5
28,3.29441,2.770,-1,5
29,3.29719,2.783,-1,5
30,3.29995,2.761,-1,5
31,3.30271,2.761,-1,5
32,3.30548,2.765,-1,5
33,3.30821,2.735,-1,5
34,3.31095,2.735,-1,5
35,3.31370,2.748,-1,5
36,3.31639,2.692,-1,5
37,3.31911,2.727,-1,5
38,3.32184,2.727,-1,5
39,3.32453,2.688,-1,5
40,3.32723,2.696,-1,5
41,3.32988,2.653,-1,5
42,3.33254,2.662,-1,5
43,3.33522,2.684,-1,5
44,3.33788,2.653,-1,5
45,3.34052,2.658,-1,5
46,3.34580,2.623,-1,5
47,3.34840,2.597,-1,5
48,3.35098,2.589,-1,5
49,3.35359,2.602,-1,5
50,3.35616,2.576,-1,5
51,3.35874,2.576,-1,5
52,3.36131,2.576,-1,5
53,3.36388,2.567,-1,5
54,3.36642,2.541,-1,5
55,3.36895,2.528,-1,5
56,3.37146,2.511,-1,5
57,3.37398,2.520,-1,5
58,3.37648,2.498,-1,5
59,3.37898,2.507,-1,5
60,3.38145,2.468,-1,5
61,3.38393,2.463,-1,5
62,3.38886,2.463,-1,5
63,3.38886,2.463,-1,5
64,3.39132,2.463,-1,5
65,3.39374,2.416,-1,5
66,3.39615,2.416,-1,5
67,3.39855,2.433,-1,5
68,3.40337,2.394,-1,5
69,3.40576,2.390,-1,5
70,3.40813,2.364,-1,5
71,3.41049,2.364,-1,5
72,3.41287,2.377,-1,5
73,3.41522,2.347,-1,5
74,3.41755,2.330,-1,5
75,3.41988,2.330,-1,5
76,3.42218,2.308,-1,5
77,3.42449,2.308,-1,5
78,3.42679,2.295,-1,5
79,3.42908,2.295,-1,5
80,3.43136,2.274,-1,5
81,3.43363,2.274,-1,5
82,3.43589,2.261,-1,5
83,3.43812,2.226,-1,5
84,3.44035,2.235,-1,5
85,3.44257,2.218,-1,5
86,3.44478,2.213,-1,5
87,3.44697,2.183,-1,5
88,3.44915,2.183,-1,5
89,3.45133,2.183,-1,5
90,3.45351,2.174,-1,5
91,3.45780,2.140,-1,5
92,3.45994,2.140,-1,5
93,3.46205,2.105,-1,5
94,3.46414,2.088,-1,5
95,3.46623,2.097,-1,5
96,3.46833,2.092,-1,5
97,3.47038,2.058,-1,5
98,3.47245,2.067,-1,5
99,3.47450,2.045,-1,5
100,3.47651,2.010,-1,5
101,3.47853,2.023,-1,5
102,3.48055,2.019,-1,5
103,3.48255,2.002,-1,5
104,3.48453,1.985,-1,5
105,3.48651,1.980,-1,5
106,3.49042,1.954,-1,5
107,3.49235,1.929,-1,5
108,3.49427,1.924,-1,5
109,3.49617,1.898,-1,5
110,3.49807,1.898,-1,5
111,3.49997,1.903,-1,5
112,3.50184,1.868,-1,5
113,3.50371,1.872,-1,5
114,3.50557,1.859,-1,5
115,3.50740,1.825,-1,5
116,3.50922,1.825,-1,5
117,3.51104,1.816,-1,5
118,3.51285,1.808,-1,5
119,3.51463,1.782,-1,5
120,3.51640,1.778,-1,5
121,3.51815,1.743,-1,5
122,3.52164,1.747,-1,5
123,3.52164,1.717,-1,5
124,3.52336,1.704,-1,5
125,3.52506,1.704,-1,5
126,3.52844,1.687,-1,5
127,3.52844,1.678,-1,5
128,3.53178,1.661,-1,5
129,3.53342,1.644,-1,5
130,3.53506,1.631,-1,5
131,3.53665,1.592,-1,5
132,3.53825,1.601,-1,5
133,3.53983,1.583,-1,5
134,3.54141,1.579,-1,5
135,3.54298,1.566,-1,5
136,3.54450,1.527,-1,5
137,3.54604,1.540,-1,5
138,3.54756,1.519,-1,5
139,3.54908,1.519,-1,5
140,3.55054,1.463,-1,5
141,3.55201,1.467,-1,5
142,3.55348,1.467,-1,5
143,3.55491,1.428,-1,5
144,3.55633,1.424,-1,5
145,3.55913,1.381,-1,5
146,3.56051,1.376,-1,5
147,3.56188,1.376,-1,5
148,3.56322,1.333,-1,5
149,3.56455,1.333,-1,5
150,3.56586,1.316,-1,5
151,3.56716,1.299,-1,5
152,3.56845,1.290,-1,5
153,3.56973,1.277,-1,5
154,3.57099,1.255,-1,5
155,3.57224,1.255,-1,5
156,3.57345,1.208,-1,5
157,3.57467,1.221,-1,5
158,3.57584,1.173,-1,5
159,3.57817,1.161,-1,5
160,3.57932,1.143,-1,5
161,3.58043,1.113,-1,5
162,3.58155,1.122,-1,5
163,3.58263,1.079,-1,5
164,3.58371,1.079,-1,5
165,3.58477,1.061,-1,5
166,3.58581,1.044,-1,5
167,3.58682,1.010,-1,5
168,3.58784,1.014,-1,5
169,3.58882,0.984,-1,5
170,3.58981,0.988,-1,5
171,3.59077,0.958,-1,5
172,3.59169,0.923,-1,5
173,3.59263,0.945,-1,5
174,3.59442,0.910,-1,5
175,3.59529,0.867,-1,5
176,3.59615,0.863,-1,5
177,3.59698,0.824,-1,5
178,3.59778,0.798,-1,5
179,3.59858,0.807,-1,5
180,3.59936,0.781,-1,5
181,3.60015,0.785,-1,5
182,3.60089,0.738,-1,5
183,3.60161,0.720,-1,5
184,3.60234,0.729,-1,5
185,3.60303,0.695,-1,5
186,3.60370,0.669,-1,5
187,3.60438,0.682,-1,5
188,3.60501,0.630,-1,5
189,3.60563,0.621,-1,5
190,3.60683,0.574,-1,5
191,3.60683,0.561,-1,5
192,3.60739,0.591,-1,5
193,3.60798,0.526,-1,5
194,3.60851,0.500,-1,5
195,3.60901,0.500,-1,5
196,3.60999,0.483,-1,5
197,3.61044,0.453,-1,5
198,3.61088,0.436,-1,5
199,3.61130,0.418,-1,5
200,3.61171,0.414,-1,5
201,3.61210,0.393,-1,5
202,3.61247,0.367,-1,5
203,3.61281,0.341,-1,5
204,3.61315,0.337,-1,5
205,3.61347,0.324,-1,5
206,3.61378,0.306,-1,5
207,3.61405,0.263,-1,5
208,3.61431,0.263,-1,5
209,3.61454,0.220,-1,5
210,3.61476,0.220,-1,5
211,3.61514,0.186,-1,5
212,3.61530,0.155,-1,5
213,3.61546,0.160,-1,5
214,3.61559,0.129,-1,5
215,3.61570,0.116,-1,5
216,3.61580,0.095,-1,5
217,3.61586,0.060,-1,5
218,3.61591,0.052,-1,5
219,3.61594,0.035,-1,5
220,3.61596,0.013,-1,5
221,3.61595,-0.004,-1,5
222,3.61593,-0.026,-1,5
223,3.61588,-0.052,-1,5
224,3.61583,-0.047,-1,5
225,3.61574,-0.086,-1,5
226,3.61563,-0.108,-1,5
227,3.61552,-0.112,-1,5
228,3.61538,-0.142,-1,5
229,3.61522,-0.168,-1,5
230,3.61505,-0.168,-1,5
231,3.61487,-0.181,-1,5
232,3.61466,-0.207,-1,5
233,3.61420,-0.233,-1,5
234,3.61395,-0.255,-1,5
235,3.61366,-0.285,-1,5
236,3.61335,-0.311,-1,5
237,3.61304,-0.311,-1,5
238,3.61272,-0.319,-1,5
239,3.61238,-0.345,-1,5
240,3.61201,-0.362,-1,5
241,3.61162,-0.393,-1,5
242,3.61122,-0.401,-1,5
243,3.61081,-0.410,-1,5
244,3.61038,-0.431,-1,5
245,3.60994,-0.440,-1,5
246,3.60945,-0.488,-1,5
247,3.60897,-0.479,-1,5
248,3.60847,-0.505,-1,5
249,3.60795,-0.513,-1,5
250,3.60739,-0.552,-1,5
251,3.60684,-0.578,-1,5
252,3.60566,-0.600,-1,5
253,3.60506,-0.608,-1,5
254,3.60443,-0.626,-1,5
255,3.60378,-0.651,-1,5
256,3.60311,-0.673,-1,5
257,3.60243,-0.673,-1,5
258,3.60172,-0.716,-1,5
259,3.60101,-0.708,-1,5
260,3.60027,-0.738,-1,5
261,3.59950,-0.768,-1,5
262,3.59874,-0.764,-1,5
263,3.59796,-0.777,-1,5
264,3.59715,-0.811,-1,5
265,3.59635,-0.802,-1,5
266,3.59549,-0.854,-1,5
267,3.59464,-0.850,-1,5
268,3.59374,-0.902,-1,5
269,3.59286,-0.880,-1,5
270,3.59196,-0.902,-1,5
271,3.59102,-0.945,-1,5
272,3.59008,-0.936,-1,5
273,3.58911,-0.975,-1,5
274,3.58812,-0.988,-1,5
275,3.58711,-1.010,-1,5
276,3.58610,-1.005,-1,5
277,3.58506,-1.040,-1,5
278,3.58401,-1.053,-1,5
279,3.58292,-1.087,-1,5
280,3.58184,-1.083,-1,5
281,3.58071,-1.126,-1,5
282,3.57961,-1.156,-1,5
283,3.57729,-1.161,-1,5
284,3.57612,-1.169,-1,5
285,3.57493,-1.191,-1,5
286,3.57372,-1.212,-1,5
287,3.57248,-1.238,-1,5
288,3.57122,-1.255,-1,5
289,3.56994,-1.281,-1,5
290,3.56865,-1.290,-1,5
291,3.56734,-1.316,-1,5
292,3.56602,-1.320,-1,5
293,3.56468,-1.333,-1,5
294,3.56332,-1.363,-1,5
295,3.56195,-1.368,-1,5
296,3.56054,-1.411,-1,5
297,3.55912,-1.415,-1,5
298,3.55625,-1.463,-1,5
299,3.55625,-1.471,-1,5
300,3.55331,-1.467,-1,5
301,3.55179,-1.519,-1,5
302,3.55179,-1.510,-1,5
303,3.55028,-1.510,-1,5
304,3.54719,-1.553,-1,5
305,3.54560,-1.583,-1,5
306,3.54401,-1.596,-1,5
307,3.54239,-1.618,-1,5
308,3.54076,-1.626,-1,5
309,3.53912,-1.644,-1,5
310,3.53746,-1.657,-1,5
311,3.53578,-1.687,-1,5
312,3.53408,-1.696,-1,5
313,3.53235,-1.726,-1,5
314,3.53061,-1.743,-1,5
315,3.52886,-1.747,-1,5
316,3.52709,-1.778,-1,5
317,3.52529,-1.795,-1,5
318,3.52349,-1.799,-1,5
319,3.52168,-1.812,-1,5
320,3.51983,-1.851,-1,5
321,3.51610,-1.868,-1,5
322,3.51420,-1.898,-1,5
323,3.51231,-1.890,-1,5
324,3.51036,-1.950,-1,5
325,3.50842,-1.937,-1,5
326,3.50646,-1.967,-1,5
327,3.50447,-1.985,-1,5
328,3.50249,-1.980,-1,5
329,3.50045,-2.036,-1,5
330,3.49841,-2.041,-1,5
331,3.49432,-2.049,-1,5
332,3.49432,-2.092,-1,5
333,3.49014,-2.088,-1,5
334,3.48802,-2.118,-1,5
335,3.48588,-2.140,-1,5
336,3.48372,-2.161,-1,5
337,3.48155,-2.166,-1,5
338,3.47936,-2.192,-1,5
339,3.47716,-2.205,-1,5
340,3.47496,-2.196,-1,5
341,3.47271,-2.252,-1,5
342,3.47042,-2.287,-1,5
343,3.46817,-2.252,-1,5
344,3.46587,-2.300,-1,5
345,3.46358,-2.308,-1,5
346,3.46127,-2.364,-1,5
347,3.45890,-2.364,-1,5
348,3.45653,-2.373,-1,5
349,3.45417,-2.394,-1,5
350,3.45178,-2.416,-1,5
351,3.44694,-2.420,-1,5
352,3.44450,-2.438,-1,5
353,3.44203,-2.468,-1,5
354,3.43956,-2.476,-1,5
355,3.43706,-2.502,-1,5
356,3.43454,-2.515,-1,5
357,3.43202,-2.520,-1,5
358,3.42949,-2.533,-1,5
359,3.42691,-2.567,-1,5
360,3.42435,-2.567,-1,5
361,3.41915,-2.602,-1,5
362,3.41652,-2.632,-1,5
363,3.41389,-2.623,-1,5
364,3.41125,-2.645,-1,5
365,3.40856,-2.684,-1,5
366,3.40589,-2.671,-1,5
367,3.40321,-2.688,-1,5
368,3.40047,-2.735,-1,5
369,3.39774,-2.731,-1,5
370,3.39502,-2.718,-1,5
371,3.39225,-2.770,-1,5
372,3.38948,-2.774,-1,5
373,3.38668,-2.796,-1,5
374,3.38387,-2.813,-1,5
375,3.38106,-2.843,-1,5
376,3.37821,-2.843,-1,5
377,3.37250,-2.878,-1,5
378,3.36961,-2.886,-1,5
379,3.36673,-2.886,-1,5
380,3.36381,-2.921,-1,5
381,3.36087,-2.938,-1,5
382,3.35792,-2.947,-1,5
383,3.35496,-2.964,-1,5
384,3.35198,-2.977,-1,5
385,3.34897,-3.007,-1,5
386,3.34598,-2.990,-1,5
387,3.34296,-3.029,-1,5
388,3.33990,-3.055,-1,5
389,3.33684,-3.076,-1,5
390,3.33377,-3.089,-1,5
391,3.33068,-3.085,-1,5
392,3.32446,-3.132,-1,5
393,3.32135,-3.106,-1,5
394,3.31820,-3.158,-1,5
395,3.31503,-3.162,-1,5
396,3.31188,-3.149,-1,5
397,3.30868,-3.201,-1,5
398,3.30550,-3.180,-1,5
399,3.30229,-3.214,-1,5
400,3.29908,-3.210,-1,5
401,3.29583,-3.244,-1,5
402,3.29259,-3.240,-1,5
403,3.28935,-3.244,-1,5
404,3.28605,-3.305,-1,5
405,3.28278,-3.270,-1,5
406,3.27947,-3.305,-1,5
407,3.27616,-3.309,-1,5
408,3.27284,-3.322,-1,5
409,3.26949,-3.348,-1,5
410,3.26617,-3.326,-1,5
411,3.26278,-3.382,-1,5
412,3.25939,-3.395,-1,5
413,3.25601,-3.382,-1,5
414,3.25261,-3.395,-1,5
415,3.24919,-3.417,-1,5
416,3.24577,-3.421,-1,5
417,3.24235,-3.426,-1,5
418,3.23890,-3.477,-1,5
419,3.23196,-3.464,-1,5
420,3.22846,-3.495,-1,5
421,3.22497,-3.495,-1,5
422,3.22146,-3.508,-1,5
423,3.21794,-3.525,-1,5
424,3.21442,-3.512,-1,5
