cnt,pos,speed,Dir,Force,
1,3.22581,2.994,-1,5
2,3.22879,2.977,-1,5
3,3.23175,2.964,-1,5
4,3.23468,2.934,-1,5
5,3.23758,2.899,-1,5
6,3.24048,2.895,-1,5
7,3.24333,2.852,-1,5
8,3.24617,2.839,-1,5
9,3.24899,2.826,-1,5
10,3.25177,2.778,-1,5
11,3.25454,2.765,-1,5
12,3.25726,2.718,-1,5
13,3.25997,2.718,-1,5
14,3.26268,2.705,-1,5
15,3.26535,2.666,-1,5
16,3.26798,2.636,-1,5
17,3.27061,2.632,-1,5
18,3.27577,2.580,-1,5
19,3.27830,2.524,-1,5
20,3.28082,2.520,-1,5
21,3.28330,2.485,-1,5
22,3.28578,2.481,-1,5
23,3.28824,2.455,-1,5
24,3.29066,2.425,-1,5
25,3.29307,2.403,-1,5
26,3.29544,2.377,-1,5
27,3.29779,2.347,-1,5
28,3.30012,2.334,-1,5
29,3.30244,2.317,-1,5
30,3.30472,2.278,-1,5
31,3.30697,2.256,-1,5
32,3.30923,2.252,-1,5
33,3.31364,2.187,-1,5
34,3.31364,2.157,-1,5
35,3.31795,2.149,-1,5
36,3.32007,2.127,-1,5
37,3.32217,2.092,-1,5
38,3.32425,2.088,-1,5
39,3.32630,2.049,-1,5
40,3.32830,2.002,-1,5
41,3.33031,2.002,-1,5
42,3.33229,1.985,-1,5
43,3.33425,1.959,-1,5
44,3.33618,1.933,-1,5
45,3.33811,1.924,-1,5
46,3.34000,1.894,-1,5
47,3.34186,1.864,-1,5
48,3.34370,1.821,-1,5
49,3.34730,1.786,-1,5
50,3.34730,1.752,-1,5
51,3.35078,1.721,-1,5
52,3.35078,1.743,-1,5
53,3.35252,1.743,-1,5
54,3.35587,1.665,-1,5
55,3.35754,1.674,-1,5
56,3.35914,1.596,-1,5
57,3.36076,1.618,-1,5
58,3.36232,1.566,-1,5
59,3.36388,1.562,-1,5
60,3.36543,1.545,-1,5
61,3.36692,1.493,-1,5
62,3.36841,1.484,-1,5
63,3.36984,1.437,-1,5
64,3.37128,1.432,-1,5
65,3.37269,1.419,-1,5
66,3.37407,1.376,-1,5
67,3.37543,1.363,-1,5
68,3.37678,1.346,-1,5
69,3.37808,1.299,-1,5
70,3.37938,1.303,-1,5
71,3.38187,1.247,-1,5
72,3.38311,1.243,-1,5
73,3.38430,1.191,-1,5
74,3.38549,1.182,-1,5
75,3.38663,1.139,-1,5
76,3.38776,1.139,-1,5
77,3.38887,1.109,-1,5
78,3.38995,1.079,-1,5
79,3.39102,1.066,-1,5
80,3.39205,1.035,-1,5
81,3.39307,1.014,-1,5
82,3.39404,0.975,-1,5
83,3.39501,0.966,-1,5
84,3.39594,0.932,-1,5
85,3.39686,0.919,-1,5
86,3.39775,0.889,-1,5
87,3.39862,0.871,-1,5
88,3.39947,0.854,-1,5
89,3.40030,0.828,-1,5
90,3.40111,0.807,-1,5
91,3.40189,0.768,-1,5
92,3.40266,0.733,-1,5
93,3.40339,0.712,-1,5
94,3.40479,0.690,-1,5
95,3.40547,0.673,-1,5
96,3.40611,0.643,-1,5
97,3.40673,0.617,-1,5
98,3.40733,0.604,-1,5
99,3.40790,0.565,-1,5
100,3.40844,0.544,-1,5
101,3.40898,0.544,-1,5
102,3.40949,0.505,-1,5
103,3.40997,0.479,-1,5
104,3.41042,0.453,-1,5
105,3.41087,0.449,-1,5
106,3.41129,0.427,-1,5
107,3.41168,0.384,-1,5
108,3.41205,0.375,-1,5
109,3.41273,0.328,-1,5
110,3.41304,0.306,-1,5
111,3.41333,0.289,-1,5
112,3.41358,0.255,-1,5
113,3.41381,0.233,-1,5
114,3.41403,0.211,-1,5
115,3.41421,0.181,-1,5
116,3.41438,0.177,-1,5
117,3.41452,0.121,-1,5
118,3.41464,0.104,-1,5
119,3.41475,0.104,-1,5
120,3.41487,0.052,-1,5
121,3.41487,0.035,-1,5
122,3.41491,0.009,-1,5
123,3.41491,-0.009,-1,5
124,3.41487,-0.035,-1,5
125,3.41481,-0.065,-1,5
126,3.41473,-0.073,-1,5
127,3.41463,-0.108,-1,5
128,3.41450,-0.121,-1,5
129,3.41437,-0.138,-1,5
130,3.41420,-0.164,-1,5
131,3.41402,-0.181,-1,5
132,3.41381,-0.216,-1,5
133,3.41358,-0.229,-1,5
134,3.41333,-0.246,-1,5
135,3.41305,-0.276,-1,5
136,3.41276,-0.293,-1,5
137,3.41245,-0.341,-1,5
138,3.41176,-0.354,-1,5
139,3.41139,-0.371,-1,5
140,3.41098,-0.410,-1,5
141,3.41055,-0.427,-1,5
142,3.41012,-0.431,-1,5
143,3.40967,-0.449,-1,5
144,3.40919,-0.475,-1,5
145,3.40869,-0.505,-1,5
146,3.40816,-0.526,-1,5
147,3.40764,-0.526,-1,5
148,3.40708,-0.552,-1,5
149,3.40649,-0.595,-1,5
150,3.40590,-0.591,-1,5
151,3.40527,-0.626,-1,5
152,3.40463,-0.643,-1,5
153,3.40397,-0.656,-1,5
154,3.40329,-0.703,-1,5
155,3.40258,-0.729,-1,5
156,3.40112,-0.738,-1,5
157,3.40112,-0.777,-1,5
158,3.39956,-0.781,-1,5
159,3.39956,-0.802,-1,5
160,3.39793,-0.828,-1,5
161,3.39710,-0.833,-1,5
162,3.39622,-0.876,-1,5
163,3.39534,-0.876,-1,5
164,3.39443,-0.915,-1,5
165,3.39352,-0.915,-1,5
166,3.39255,-0.962,-1,5
167,3.39160,-0.949,-1,5
168,3.39059,-1.010,-1,5
169,3.38960,-0.992,-1,5
170,3.38856,-1.040,-1,5
171,3.38752,-1.044,-1,5
172,3.38644,-1.083,-1,5
173,3.38535,-1.087,-1,5
174,3.38423,-1.117,-1,5
175,3.38311,-1.126,-1,5
176,3.38194,-1.169,-1,5
177,3.38076,-1.178,-1,5
178,3.37958,-1.217,-1,5
179,3.37714,-1.225,-1,5
180,3.37714,-1.264,-1,5
181,3.37461,-1.273,-1,5
182,3.37461,-1.303,-1,5
183,3.37330,-1.329,-1,5
184,3.37064,-1.333,-1,5
185,3.36929,-1.355,-1,5
186,3.36792,-1.368,-1,5
187,3.36651,-1.406,-1,5
188,3.36508,-1.432,-1,5
189,3.36364,-1.441,-1,5
190,3.36218,-1.463,-1,5
191,3.36069,-1.484,-1,5
192,3.35918,-1.514,-1,5
193,3.35611,-1.557,-1,5
194,3.35611,-1.557,-1,5
195,3.35455,-1.596,-1,5
196,3.35135,-1.609,-1,5
197,3.35135,-1.635,-1,5
198,3.34971,-1.635,-1,5
199,3.34641,-1.665,-1,5
200,3.34471,-1.700,-1,5
201,3.34301,-1.700,-1,5
202,3.34128,-1.730,-1,5
203,3.33952,-1.760,-1,5
204,3.33775,-1.773,-1,5
205,3.33595,-1.803,-1,5
206,3.33412,-1.821,-1,5
207,3.33229,-1.855,-1,5
208,3.32855,-1.881,-1,5
209,3.32855,-1.881,-1,5
210,3.32475,-1.920,-1,5
211,3.32281,-1.941,-1,5
212,3.32085,-1.954,-1,5
213,3.31887,-1.985,-1,5
214,3.31687,-2.002,-1,5
215,3.31485,-2.015,-1,5
216,3.31283,-2.023,-1,5
217,3.31078,-2.054,-1,5
218,3.30869,-2.088,-1,5
219,3.30660,-2.088,-1,5
220,3.30448,-2.118,-1,5
221,3.30236,-2.123,-1,5
222,3.30018,-2.174,-1,5
223,3.29583,-2.192,-1,5
224,3.29583,-2.205,-1,5
225,3.29139,-2.243,-1,5
226,3.29139,-2.239,-1,5
227,3.28686,-2.287,-1,5
228,3.28686,-2.308,-1,5
229,3.28226,-2.291,-1,5
230,3.27993,-2.330,-1,5
231,3.27758,-2.351,-1,5
232,3.27521,-2.373,-1,5
233,3.27282,-2.390,-1,5
234,3.27041,-2.407,-1,5
235,3.26796,-2.446,-1,5
236,3.26552,-2.446,-1,5
237,3.26304,-2.476,-1,5
238,3.26055,-2.494,-1,5
239,3.25802,-2.524,-1,5
240,3.25548,-2.545,-1,5
241,3.25294,-2.537,-1,5
242,3.25037,-2.571,-1,5
243,3.24775,-2.619,-1,5
244,3.24514,-2.614,-1,5
245,3.23985,-2.653,-1,5
246,3.23716,-2.692,-1,5
247,3.23447,-2.692,-1,5
248,3.23175,-2.722,-1,5
249,3.22900,-2.748,-1,5
250,3.22623,-2.765,-1,5
