cnt,pos,speed,Dir,Force,
1,3.21193,1.877,-1,7
2,3.21378,1.855,-1,7
3,3.21566,1.877,-1,7
4,3.21754,1.885,-1,7
5,3.21942,1.872,-1,7
6,3.22128,1.868,-1,7
7,3.22315,1.868,-1,7
8,3.22500,1.851,-1,7
9,3.22684,1.838,-1,7
10,3.22867,1.834,-1,7
11,3.23052,1.842,-1,7
12,3.23234,1.825,-1,7
13,3.23417,1.825,-1,7
14,3.23597,1.808,-1,7
15,3.23779,1.812,-1,7
16,3.23959,1.808,-1,7
17,3.24138,1.790,-1,7
18,3.24317,1.786,-1,7
19,3.24497,1.799,-1,7
20,3.24676,1.786,-1,7
21,3.24853,1.760,-1,7
22,3.25204,1.747,-1,7
23,3.25204,1.743,-1,7
24,3.25552,1.743,-1,7
25,3.25552,1.739,-1,7
26,3.25726,1.743,-1,7
27,3.26074,1.739,-1,7
28,3.26248,1.734,-1,7
29,3.26420,1.721,-1,7
30,3.26590,1.704,-1,7
31,3.26763,1.726,-1,7
32,3.26932,1.691,-1,7
33,3.27103,1.708,-1,7
34,3.27273,1.704,-1,7
35,3.27440,1.665,-1,7
36,3.27610,1.700,-1,7
37,3.27778,1.678,-1,7
38,3.27946,1.687,-1,7
39,3.28112,1.657,-1,7
40,3.28279,1.670,-1,7
41,3.28445,1.661,-1,7
42,3.28611,1.665,-1,7
43,3.28778,1.665,-1,7
44,3.28947,1.687,-1,7
45,3.29112,1.652,-1,7
46,3.29276,1.648,-1,7
47,3.29441,1.648,-1,7
48,3.29607,1.661,-1,7
49,3.29770,1.652,-1,7
50,3.29936,1.652,-1,7
51,3.30099,1.631,-1,7
52,3.30426,1.639,-1,7
53,3.30588,1.626,-1,7
54,3.30753,1.644,-1,7
55,3.30914,1.609,-1,7
56,3.31077,1.631,-1,7
57,3.31238,1.614,-1,7
58,3.31399,1.614,-1,7
59,3.31561,1.614,-1,7
60,3.31721,1.601,-1,7
61,3.31881,1.605,-1,7
62,3.32042,1.605,-1,7
63,3.32202,1.601,-1,7
64,3.32361,1.592,-1,7
65,3.32522,1.609,-1,7
66,3.32678,1.557,-1,7
67,3.32835,1.575,-1,7
68,3.32993,1.575,-1,7
69,3.33149,1.566,-1,7
70,3.33308,1.583,-1,7
71,3.33463,1.549,-1,7
72,3.33618,1.557,-1,7
73,3.33775,1.570,-1,7
74,3.33931,1.553,-1,7
75,3.34085,1.549,-1,7
76,3.34238,1.527,-1,7
77,3.34391,1.527,-1,7
78,3.34545,1.536,-1,7
79,3.34694,1.497,-1,7
80,3.34845,1.510,-1,7
81,3.34996,1.510,-1,7
82,3.35145,1.488,-1,7
83,3.35295,1.497,-1,7
84,3.35444,1.493,-1,7
85,3.35591,1.471,-1,7
86,3.35741,1.497,-1,7
87,3.35885,1.437,-1,7
88,3.36034,1.493,-1,7
89,3.36177,1.432,-1,7
90,3.36323,1.458,-1,7
91,3.36466,1.428,-1,7
92,3.36610,1.445,-1,7
93,3.36752,1.415,-1,7
94,3.36893,1.415,-1,7
95,3.37034,1.406,-1,7
96,3.37174,1.398,-1,7
97,3.37313,1.394,-1,7
98,3.37451,1.376,-1,7
99,3.37590,1.389,-1,7
100,3.37862,1.355,-1,7
101,3.37862,1.359,-1,7
102,3.38132,1.346,-1,7
103,3.38264,1.320,-1,7
104,3.38400,1.355,-1,7
105,3.38533,1.333,-1,7
106,3.38664,1.307,-1,7
107,3.38796,1.320,-1,7
108,3.38928,1.320,-1,7
109,3.39055,1.268,-1,7
110,3.39184,1.294,-1,7
111,3.39313,1.286,-1,7
112,3.39437,1.238,-1,7
113,3.39563,1.260,-1,7
114,3.39688,1.255,-1,7
115,3.39811,1.234,-1,7
116,3.39936,1.247,-1,7
117,3.40058,1.217,-1,7
118,3.40180,1.225,-1,7
119,3.40303,1.225,-1,7
120,3.40421,1.186,-1,7
121,3.40541,1.195,-1,7
122,3.40659,1.182,-1,7
123,3.40776,1.169,-1,7
124,3.40891,1.152,-1,7
125,3.41123,1.161,-1,7
126,3.41123,1.126,-1,7
127,3.41347,1.117,-1,7
128,3.41458,1.109,-1,7
129,3.41569,1.113,-1,7
130,3.41677,1.083,-1,7
131,3.41785,1.079,-1,7
132,3.41892,1.066,-1,7
133,3.41998,1.061,-1,7
134,3.42101,1.031,-1,7
135,3.42205,1.040,-1,7
136,3.42307,1.018,-1,7
137,3.42407,1.001,-1,7
138,3.42509,1.018,-1,7
139,3.42605,0.966,-1,7
140,3.42704,0.988,-1,7
141,3.42801,0.966,-1,7
142,3.42895,0.941,-1,7
143,3.42991,0.962,-1,7
144,3.43083,0.923,-1,7
145,3.43173,0.897,-1,7
146,3.43353,0.889,-1,7
147,3.43439,0.863,-1,7
148,3.43525,0.859,-1,7
149,3.43610,0.854,-1,7
150,3.43693,0.824,-1,7
151,3.43774,0.815,-1,7
152,3.43856,0.815,-1,7
153,3.43934,0.785,-1,7
154,3.44011,0.772,-1,7
155,3.44088,0.764,-1,7
156,3.44161,0.733,-1,7
157,3.44234,0.733,-1,7
158,3.44307,0.725,-1,7
159,3.44376,0.690,-1,7
160,3.44445,0.686,-1,7
161,3.44577,0.651,-1,7
162,3.44577,0.639,-1,7
163,3.44641,0.639,-1,7
164,3.44703,0.626,-1,7
165,3.44765,0.587,-1,7
166,3.44823,0.587,-1,7
167,3.44882,0.582,-1,7
168,3.44992,0.535,-1,7
169,3.45045,0.535,-1,7
170,3.45096,0.513,-1,7
171,3.45147,0.505,-1,7
172,3.45194,0.475,-1,7
173,3.45241,0.462,-1,7
174,3.45285,0.440,-1,7
175,3.45328,0.436,-1,7
176,3.45370,0.414,-1,7
177,3.45408,0.388,-1,7
178,3.45446,0.371,-1,7
179,3.45480,0.345,-1,7
180,3.45515,0.345,-1,7
181,3.45547,0.289,-1,7
182,3.45604,0.280,-1,7
183,3.45629,0.255,-1,7
184,3.45653,0.237,-1,7
185,3.45675,0.220,-1,7
186,3.45695,0.198,-1,7
187,3.45714,0.190,-1,7
188,3.45731,0.168,-1,7
189,3.45745,0.147,-1,7
190,3.45757,0.121,-1,7
191,3.45767,0.099,-1,7
192,3.45774,0.069,-1,7
193,3.45781,0.065,-1,7
194,3.45784,0.035,-1,7
195,3.45785,0.013,-1,7
196,3.45785,-0.004,-1,7
197,3.45783,-0.022,-1,7
198,3.45779,-0.043,-1,7
199,3.45763,-0.091,-1,7
200,3.45753,-0.104,-1,7
201,3.45740,-0.129,-1,7
202,3.45724,-0.155,-1,7
203,3.45707,-0.168,-1,7
204,3.45688,-0.194,-1,7
205,3.45667,-0.211,-1,7
206,3.45644,-0.229,-1,7
207,3.45619,-0.250,-1,7
208,3.45592,-0.272,-1,7
209,3.45562,-0.293,-1,7
210,3.45531,-0.311,-1,7
211,3.45497,-0.345,-1,7
212,3.45461,-0.362,-1,7
213,3.45423,-0.375,-1,7
214,3.45342,-0.418,-1,7
215,3.45342,-0.453,-1,7
216,3.45249,-0.475,-1,7
217,3.45249,-0.488,-1,7
218,3.45150,-0.505,-1,7
219,3.45095,-0.544,-1,7
220,3.45039,-0.561,-1,7
221,3.44981,-0.578,-1,7
222,3.44923,-0.587,-1,7
223,3.44859,-0.639,-1,7
224,3.44794,-0.643,-1,7
225,3.44729,-0.656,-1,7
226,3.44660,-0.690,-1,7
227,3.44589,-0.712,-1,7
228,3.44516,-0.725,-1,7
229,3.44439,-0.777,-1,7
230,3.44361,-0.777,-1,7
231,3.44281,-0.841,-1,7
232,3.44197,-0.841,-1,7
233,3.44112,-0.880,-1,7
234,3.44024,-0.893,-1,7
235,3.43935,-0.919,-1,7
236,3.43746,-0.966,-1,7
237,3.43649,-0.966,-1,7
238,3.43549,-1.005,-1,7
239,3.43447,-1.022,-1,7
240,3.43344,-1.027,-1,7
241,3.43236,-1.079,-1,7
242,3.43128,-1.079,-1,7
243,3.43017,-1.113,-1,7
244,3.42901,-1.156,-1,7
245,3.42785,-1.165,-1,7
246,3.42665,-1.195,-1,7
247,3.42544,-1.212,-1,7
248,3.42420,-1.238,-1,7
249,3.42294,-1.260,-1,7
250,3.42167,-1.277,-1,7
251,3.42035,-1.316,-1,7
252,3.41902,-1.333,-1,7
253,3.41767,-1.350,-1,7
254,3.41628,-1.389,-1,7
255,3.41487,-1.406,-1,7
256,3.41345,-1.424,-1,7
257,3.41199,-1.458,-1,7
258,3.41049,-1.497,-1,7
259,3.40749,-1.527,-1,7
260,3.40594,-1.553,-1,7
261,3.40436,-1.575,-1,7
262,3.40277,-1.592,-1,7
263,3.40114,-1.626,-1,7
264,3.39949,-1.652,-1,7
265,3.39781,-1.678,-1,7
266,3.39612,-1.691,-1,7
267,3.39439,-1.730,-1,7
268,3.39267,-1.726,-1,7
269,3.39091,-1.760,-1,7
270,3.38911,-1.790,-1,7
271,3.38729,-1.821,-1,7
272,3.38544,-1.855,-1,7
273,3.38357,-1.872,-1,7
274,3.38166,-1.903,-1,7
275,3.37976,-1.903,-1,7
276,3.37782,-1.937,-1,7
277,3.37585,-1.972,-1,7
278,3.37385,-2.002,-1,7
279,3.37183,-2.019,-1,7
280,3.36980,-2.036,-1,7
281,3.36774,-2.058,-1,7
282,3.36352,-2.131,-1,7
283,3.36137,-2.149,-1,7
284,3.35919,-2.179,-1,7
285,3.35700,-2.192,-1,7
286,3.35479,-2.213,-1,7
287,3.35253,-2.252,-1,7
288,3.35026,-2.278,-1,7
289,3.34796,-2.291,-1,7
290,3.34564,-2.325,-1,7
291,3.34330,-2.343,-1,7
292,3.34091,-2.390,-1,7
293,3.33849,-2.416,-1,7
294,3.33605,-2.438,-1,7
295,3.33360,-2.451,-1,7
296,3.33113,-2.468,-1,7
297,3.32861,-2.524,-1,7
298,3.32610,-2.507,-1,7
299,3.32355,-2.558,-1,7
300,3.32097,-2.571,-1,7
301,3.31837,-2.602,-1,7
302,3.31574,-2.632,-1,7
303,3.31311,-2.636,-1,7
304,3.31042,-2.684,-1,7
305,3.30500,-2.718,-1,7
306,3.30225,-2.757,-1,7
307,3.29947,-2.774,-1,7
308,3.29668,-2.796,-1,7
309,3.29385,-2.822,-1,7
310,3.29102,-2.835,-1,7
311,3.28813,-2.886,-1,7
312,3.28523,-2.904,-1,7
313,3.28231,-2.916,-1,7
314,3.27938,-2.929,-1,7
315,3.27640,-2.986,-1,7
316,3.27340,-2.994,-1,7
317,3.27040,-3.003,-1,7
318,3.26736,-3.042,-1,7
319,3.26428,-3.076,-1,7
320,3.26118,-3.102,-1,7
321,3.25492,-3.141,-1,7
322,3.25492,-3.184,-1,7
323,3.25173,-3.184,-1,7
324,3.24855,-3.240,-1,7
325,3.24531,-3.253,-1,7
326,3.23879,-3.266,-1,7
327,3.23548,-3.309,-1,7
328,3.23217,-3.309,-1,7
329,3.22881,-3.361,-1,7
330,3.22544,-3.369,-1,7
331,3.22205,-3.395,-1,7
332,3.21860,-3.443,-1,7
333,3.21517,-3.434,-1,7
334,3.21171,-3.456,-1,7
