cnt,pos,speed,Dir,Force,
1,3.31952,1.169,-1,5
2,3.32066,1.148,-1,5
3,3.32182,1.161,-1,5
4,3.32298,1.156,-1,5
5,3.32415,1.169,-1,5
6,3.32532,1.173,-1,5
7,3.32647,1.148,-1,5
8,3.32763,1.161,-1,5
9,3.32877,1.143,-1,5
10,3.32994,1.169,-1,5
11,3.33112,1.178,-1,5
12,3.33227,1.173,-1,5
13,3.33460,1.161,-1,5
14,3.33577,1.169,-1,5
15,3.33695,1.178,-1,5
16,3.33812,1.169,-1,5
17,3.33929,1.173,-1,5
18,3.34045,1.152,-1,5
19,3.34162,1.178,-1,5
20,3.34278,1.156,-1,5
21,3.34395,1.169,-1,5
22,3.34511,1.161,-1,5
23,3.34627,1.165,-1,5
24,3.34744,1.165,-1,5
25,3.34859,1.148,-1,5
26,3.34974,1.156,-1,5
27,3.35090,1.156,-1,5
28,3.35207,1.169,-1,5
29,3.35439,1.165,-1,5
30,3.35555,1.156,-1,5
31,3.35671,1.156,-1,5
32,3.35787,1.165,-1,5
33,3.35901,1.143,-1,5
34,3.35901,1.173,-1,5
35,3.36134,1.152,-1,5
36,3.36249,1.148,-1,5
37,3.36365,1.165,-1,5
38,3.36479,1.143,-1,5
39,3.36596,1.161,-1,5
40,3.36711,1.152,-1,5
41,3.36826,1.152,-1,5
42,3.36939,1.135,-1,5
43,3.37054,1.148,-1,5
44,3.37168,1.139,-1,5
45,3.37283,1.152,-1,5
46,3.37396,1.130,-1,5
47,3.37511,1.148,-1,5
48,3.37625,1.135,-1,5
49,3.37739,1.148,-1,5
50,3.37851,1.122,-1,5
51,3.37966,1.143,-1,5
52,3.38078,1.135,-1,5
53,3.38191,1.143,-1,5
54,3.38419,1.130,-1,5
55,3.38419,1.130,-1,5
56,3.38532,1.135,-1,5
57,3.38644,1.139,-1,5
58,3.38758,1.109,-1,5
59,3.38982,1.130,-1,5
60,3.39093,1.113,-1,5
61,3.39204,1.113,-1,5
62,3.39317,1.122,-1,5
63,3.39425,1.087,-1,5
64,3.39537,1.122,-1,5
65,3.39645,1.079,-1,5
66,3.39756,1.104,-1,5
67,3.39865,1.096,-1,5
68,3.39975,1.100,-1,5
69,3.40085,1.096,-1,5
70,3.40194,1.092,-1,5
71,3.40305,1.104,-1,5
72,3.40412,1.070,-1,5
73,3.40521,1.092,-1,5
74,3.40628,1.070,-1,5
75,3.40736,1.079,-1,5
76,3.40841,1.053,-1,5
77,3.40949,1.044,-1,5
78,3.41054,1.044,-1,5
79,3.41161,1.074,-1,5
80,3.41268,1.066,-1,5
81,3.41373,1.053,-1,5
82,3.41581,1.044,-1,5
83,3.41685,1.035,-1,5
84,3.41789,1.044,-1,5
85,3.41892,1.031,-1,5
86,3.41996,1.035,-1,5
87,3.42096,1.005,-1,5
88,3.42199,1.022,-1,5
89,3.42300,1.014,-1,5
90,3.42400,1.001,-1,5
91,3.42501,1.014,-1,5
92,3.42599,0.979,-1,5
93,3.42700,1.005,-1,5
94,3.42800,1.001,-1,5
95,3.42897,0.971,-1,5
96,3.42998,1.005,-1,5
97,3.43095,0.971,-1,5
98,3.43189,0.945,-1,5
99,3.43382,0.953,-1,5
100,3.43382,0.936,-1,5
101,3.43476,0.936,-1,5
102,3.43571,0.958,-1,5
103,3.43665,0.936,-1,5
104,3.43758,0.928,-1,5
105,3.43943,0.919,-1,5
106,3.44034,0.910,-1,5
107,3.44124,0.902,-1,5
108,3.44215,0.906,-1,5
109,3.44306,0.910,-1,5
110,3.44393,0.876,-1,5
111,3.44481,0.880,-1,5
112,3.44569,0.880,-1,5
113,3.44656,0.867,-1,5
114,3.44743,0.867,-1,5
115,3.44828,0.850,-1,5
116,3.44913,0.854,-1,5
117,3.44998,0.850,-1,5
118,3.45082,0.837,-1,5
119,3.45167,0.854,-1,5
120,3.45249,0.820,-1,5
121,3.45413,0.807,-1,5
122,3.45493,0.807,-1,5
123,3.45575,0.811,-1,5
124,3.45653,0.790,-1,5
125,3.45733,0.794,-1,5
126,3.45811,0.781,-1,5
127,3.45887,0.764,-1,5
128,3.45966,0.785,-1,5
129,3.46041,0.755,-1,5
130,3.46116,0.751,-1,5
131,3.46190,0.733,-1,5
132,3.46261,0.716,-1,5
133,3.46335,0.733,-1,5
134,3.46405,0.699,-1,5
135,3.46474,0.699,-1,5
136,3.46614,0.677,-1,5
137,3.46682,0.677,-1,5
138,3.46751,0.690,-1,5
139,3.46817,0.660,-1,5
140,3.46881,0.643,-1,5
141,3.46947,0.660,-1,5
142,3.47009,0.626,-1,5
143,3.47071,0.617,-1,5
144,3.47135,0.634,-1,5
145,3.47195,0.608,-1,5
146,3.47255,0.591,-1,5
147,3.47315,0.608,-1,5
148,3.47373,0.578,-1,5
149,3.47429,0.561,-1,5
150,3.47485,0.548,-1,5
151,3.47593,0.526,-1,5
152,3.47645,0.518,-1,5
153,3.47697,0.526,-1,5
154,3.47748,0.509,-1,5
155,3.47796,0.483,-1,5
156,3.47844,0.479,-1,5
157,3.47892,0.479,-1,5
158,3.47939,0.470,-1,5
159,3.47984,0.449,-1,5
160,3.48028,0.440,-1,5
161,3.48070,0.418,-1,5
162,3.48113,0.436,-1,5
163,3.48154,0.406,-1,5
164,3.48193,0.393,-1,5
165,3.48231,0.380,-1,5
166,3.48268,0.362,-1,5
167,3.48304,0.358,-1,5
168,3.48340,0.358,-1,5
169,3.48406,0.324,-1,5
170,3.48406,0.306,-1,5
171,3.48467,0.298,-1,5
172,3.48496,0.289,-1,5
173,3.48524,0.280,-1,5
174,3.48551,0.272,-1,5
175,3.48576,0.255,-1,5
176,3.48599,0.229,-1,5
177,3.48622,0.229,-1,5
178,3.48642,0.203,-1,5
179,3.48663,0.203,-1,5
180,3.48681,0.181,-1,5
181,3.48697,0.160,-1,5
182,3.48712,0.151,-1,5
183,3.48726,0.142,-1,5
184,3.48739,0.125,-1,5
185,3.48752,0.129,-1,5
186,3.48762,0.099,-1,5
187,3.48770,0.086,-1,5
188,3.48776,0.060,-1,5
189,3.48787,0.043,-1,5
190,3.48790,0.026,-1,5
191,3.48791,0.013,-1,5
192,3.48791,0.004,-1,5
193,3.48790,-0.013,-1,5
194,3.48788,-0.022,-1,5
195,3.48785,-0.030,-1,5
196,3.48779,-0.056,-1,5
197,3.48774,-0.056,-1,5
198,3.48768,-0.060,-1,5
199,3.48760,-0.078,-1,5
200,3.48750,-0.099,-1,5
201,3.48739,-0.112,-1,5
202,3.48727,-0.112,-1,5
203,3.48715,-0.125,-1,5
204,3.48702,-0.125,-1,5
205,3.48688,-0.142,-1,5
206,3.48674,-0.142,-1,5
207,3.48658,-0.160,-1,5
208,3.48641,-0.168,-1,5
209,3.48624,-0.168,-1,5
210,3.48605,-0.194,-1,5
211,3.48566,-0.198,-1,5
212,3.48544,-0.220,-1,5
213,3.48520,-0.237,-1,5
214,3.48497,-0.229,-1,5
215,3.48473,-0.237,-1,5
216,3.48448,-0.255,-1,5
217,3.48421,-0.267,-1,5
218,3.48394,-0.267,-1,5
219,3.48366,-0.280,-1,5
220,3.48338,-0.285,-1,5
221,3.48307,-0.311,-1,5
222,3.48276,-0.311,-1,5
223,3.48243,-0.324,-1,5
224,3.48211,-0.324,-1,5
225,3.48177,-0.341,-1,5
226,3.48143,-0.341,-1,5
227,3.48106,-0.388,-1,5
228,3.48029,-0.380,-1,5
229,3.47991,-0.384,-1,5
230,3.47950,-0.406,-1,5
231,3.47910,-0.406,-1,5
232,3.47866,-0.440,-1,5
233,3.47822,-0.436,-1,5
234,3.47778,-0.440,-1,5
235,3.47733,-0.457,-1,5
236,3.47685,-0.479,-1,5
237,3.47636,-0.483,-1,5
238,3.47588,-0.488,-1,5
239,3.47539,-0.488,-1,5
240,3.47487,-0.518,-1,5
241,3.47435,-0.522,-1,5
242,3.47327,-0.552,-1,5
243,3.47327,-0.574,-1,5
244,3.47213,-0.565,-1,5
245,3.47213,-0.578,-1,5
246,3.47095,-0.600,-1,5
247,3.47035,-0.604,-1,5
248,3.46973,-0.617,-1,5
249,3.46912,-0.617,-1,5
250,3.46846,-0.651,-1,5
251,3.46782,-0.643,-1,5
252,3.46717,-0.651,-1,5
253,3.46648,-0.690,-1,5
254,3.46580,-0.682,-1,5
255,3.46512,-0.682,-1,5
256,3.46440,-0.712,-1,5
257,3.46370,-0.708,-1,5
258,3.46224,-0.729,-1,5
259,3.46224,-0.725,-1,5
260,3.46151,-0.725,-1,5
261,3.46074,-0.759,-1,5
262,3.45998,-0.759,-1,5
263,3.45841,-0.794,-1,5
264,3.45762,-0.790,-1,5
265,3.45678,-0.833,-1,5
266,3.45598,-0.807,-1,5
267,3.45514,-0.837,-1,5
268,3.45430,-0.837,-1,5
269,3.45346,-0.846,-1,5
270,3.45259,-0.867,-1,5
271,3.45172,-0.867,-1,5
272,3.45083,-0.897,-1,5
273,3.44903,-0.902,-1,5
274,3.44903,-0.906,-1,5
275,3.44721,-0.915,-1,5
276,3.44721,-0.941,-1,5
277,3.44627,-0.932,-1,5
278,3.44534,-0.953,-1,5
279,3.44342,-0.962,-1,5
280,3.44246,-0.966,-1,5
281,3.44147,-0.984,-1,5
282,3.44049,-0.984,-1,5
283,3.43949,-1.001,-1,5
284,3.43849,-0.997,-1,5
285,3.43747,-1.027,-1,5
286,3.43644,-1.022,-1,5
287,3.43540,-1.040,-1,5
288,3.43436,-1.044,-1,5
289,3.43332,-1.035,-1,5
290,3.43226,-1.066,-1,5
291,3.43120,-1.057,-1,5
292,3.43013,-1.070,-1,5
293,3.42903,-1.104,-1,5
294,3.42684,-1.104,-1,5
295,3.42573,-1.104,-1,5
296,3.42464,-1.096,-1,5
297,3.42351,-1.126,-1,5
298,3.42240,-1.113,-1,5
299,3.42126,-1.139,-1,5
300,3.42014,-1.122,-1,5
301,3.41899,-1.148,-1,5
302,3.41785,-1.143,-1,5
303,3.41668,-1.169,-1,5
304,3.41552,-1.161,-1,5
305,3.41435,-1.169,-1,5
306,3.41318,-1.169,-1,5
307,3.41199,-1.191,-1,5
308,3.41081,-1.178,-1,5
309,3.40962,-1.195,-1,5
310,3.40842,-1.178,-1,5
311,3.40602,-1.217,-1,5
312,3.40602,-1.195,-1,5
313,3.40361,-1.221,-1,5
314,3.40361,-1.221,-1,5
315,3.40239,-1.221,-1,5
316,3.39995,-1.230,-1,5
317,3.39872,-1.225,-1,5
318,3.39751,-1.217,-1,5
319,3.39628,-1.230,-1,5
320,3.39507,-1.204,-1,5
321,3.39383,-1.247,-1,5
322,3.39259,-1.238,-1,5
323,3.39136,-1.225,-1,5
324,3.39012,-1.247,-1,5
325,3.38887,-1.247,-1,5
326,3.38763,-1.243,-1,5
327,3.38637,-1.255,-1,5
328,3.38512,-1.247,-1,5
329,3.38386,-1.268,-1,5
330,3.38258,-1.277,-1,5
331,3.38133,-1.247,-1,5
332,3.38007,-1.260,-1,5
333,3.37754,-1.273,-1,5
334,3.37626,-1.286,-1,5
335,3.37499,-1.268,-1,5
336,3.37370,-1.290,-1,5
337,3.37243,-1.273,-1,5
338,3.37113,-1.294,-1,5
339,3.36983,-1.299,-1,5
340,3.36856,-1.277,-1,5
341,3.36726,-1.299,-1,5
342,3.36598,-1.281,-1,5
343,3.36466,-1.320,-1,5
344,3.36337,-1.290,-1,5
345,3.36205,-1.316,-1,5
346,3.36075,-1.303,-1,5
347,3.35942,-1.333,-1,5
348,3.35812,-1.320,-1,5
349,3.35680,-1.320,-1,5
350,3.35415,-1.324,-1,5
351,3.35415,-1.316,-1,5
352,3.35152,-1.320,-1,5
353,3.35152,-1.329,-1,5
354,3.35019,-1.324,-1,5
355,3.34755,-1.316,-1,5
356,3.34621,-1.333,-1,5
357,3.34488,-1.337,-1,5
358,3.34356,-1.320,-1,5
359,3.34221,-1.350,-1,5
360,3.34087,-1.333,-1,5
361,3.33953,-1.337,-1,5
362,3.33819,-1.346,-1,5
363,3.33684,-1.346,-1,5
364,3.33550,-1.342,-1,5
365,3.33415,-1.346,-1,5
366,3.33280,-1.350,-1,5
367,3.33147,-1.337,-1,5
368,3.33011,-1.355,-1,5
369,3.32877,-1.346,-1,5
370,3.32743,-1.337,-1,5
371,3.32473,-1.359,-1,5
372,3.32339,-1.337,-1,5
373,3.32204,-1.355,-1,5
374,3.32068,-1.355,-1,5
