cnt,pos,speed,Dir,Force,
1,3.21047,1.864,-1,5
2,3.21234,1.864,-1,5
3,3.21420,1.864,-1,5
4,3.21607,1.864,-1,5
5,3.21797,1.920,-1,5
6,3.21989,1.920,-1,5
7,3.22178,1.911,-1,5
8,3.22560,1.911,-1,5
9,3.22752,1.920,-1,5
10,3.22945,1.933,-1,5
11,3.23138,1.924,-1,5
12,3.23330,1.924,-1,5
13,3.23525,1.950,-1,5
14,3.23720,1.946,-1,5
15,3.23916,1.963,-1,5
16,3.24112,1.954,-1,5
17,3.24308,1.963,-1,5
18,3.24506,1.976,-1,5
19,3.24704,1.980,-1,5
20,3.24902,1.980,-1,5
21,3.25101,1.993,-1,5
22,3.25300,1.989,-1,5
23,3.25499,1.993,-1,5
24,3.25899,2.010,-1,5
25,3.26101,2.015,-1,5
26,3.26303,2.028,-1,5
27,3.26303,2.028,-1,5
28,3.26709,2.032,-1,5
29,3.26709,2.015,-1,5
30,3.27114,2.036,-1,5
31,3.27318,2.041,-1,5
32,3.27524,2.054,-1,5
33,3.27729,2.049,-1,5
34,3.27934,2.054,-1,5
35,3.28136,2.023,-1,5
36,3.28343,2.067,-1,5
37,3.28549,2.062,-1,5
38,3.28756,2.071,-1,5
39,3.28966,2.097,-1,5
40,3.29173,2.071,-1,5
41,3.29382,2.084,-1,5
42,3.29587,2.058,-1,5
43,3.29796,2.088,-1,5
44,3.30006,2.101,-1,5
45,3.30216,2.097,-1,5
46,3.30635,2.101,-1,5
47,3.30845,2.105,-1,5
48,3.31056,2.110,-1,5
49,3.31267,2.105,-1,5
50,3.31477,2.105,-1,5
51,3.31688,2.110,-1,5
52,3.31900,2.114,-1,5
53,3.32114,2.140,-1,5
54,3.32328,2.140,-1,5
55,3.32542,2.144,-1,5
56,3.32753,2.105,-1,5
57,3.32965,2.127,-1,5
58,3.33178,2.127,-1,5
59,3.33393,2.149,-1,5
60,3.33607,2.136,-1,5
61,3.33823,2.166,-1,5
62,3.34253,2.136,-1,5
63,3.34253,2.161,-1,5
64,3.34469,2.149,-1,5
65,3.34684,2.149,-1,5
66,3.34900,2.157,-1,5
67,3.35116,2.161,-1,5
68,3.35332,2.161,-1,5
69,3.35549,2.192,-1,5
70,3.35983,2.149,-1,5
71,3.36203,2.200,-1,5
72,3.36421,2.179,-1,5
73,3.36640,2.196,-1,5
74,3.36859,2.183,-1,5
75,3.37077,2.187,-1,5
76,3.37297,2.196,-1,5
77,3.37517,2.200,-1,5
78,3.37737,2.200,-1,5
79,3.37957,2.200,-1,5
80,3.38177,2.196,-1,5
81,3.38399,2.226,-1,5
82,3.38622,2.231,-1,5
83,3.38844,2.218,-1,5
84,3.39067,2.226,-1,5
85,3.39514,2.231,-1,5
86,3.39737,2.226,-1,5
87,3.39961,2.239,-1,5
88,3.40185,2.248,-1,5
89,3.40411,2.252,-1,5
90,3.40636,2.252,-1,5
91,3.40860,2.243,-1,5
92,3.41086,2.261,-1,5
93,3.41312,2.256,-1,5
94,3.41538,2.265,-1,5
95,3.41765,2.265,-1,5
96,3.41991,2.265,-1,5
97,3.42218,2.265,-1,5
98,3.42444,2.265,-1,5
99,3.42671,2.261,-1,5
100,3.42899,2.282,-1,5
101,3.43128,2.291,-1,5
102,3.43355,2.274,-1,5
103,3.43582,2.269,-1,5
104,3.43810,2.278,-1,5
105,3.44038,2.282,-1,5
106,3.44266,2.274,-1,5
107,3.44492,2.269,-1,5
108,3.44948,2.282,-1,5
109,3.44948,2.282,-1,5
110,3.45403,2.269,-1,5
111,3.45403,2.274,-1,5
112,3.45857,2.269,-1,5
113,3.46085,2.282,-1,5
114,3.46085,2.256,-1,5
115,3.46539,2.278,-1,5
116,3.46766,2.269,-1,5
117,3.46992,2.265,-1,5
118,3.47219,2.265,-1,5
119,3.47447,2.278,-1,5
120,3.47671,2.243,-1,5
121,3.47900,2.287,-1,5
122,3.48127,2.278,-1,5
123,3.48353,2.261,-1,5
124,3.48580,2.265,-1,5
125,3.48806,2.265,-1,5
126,3.49031,2.248,-1,5
127,3.49256,2.252,-1,5
128,3.49484,2.274,-1,5
129,3.49708,2.243,-1,5
130,3.49932,2.235,-1,5
131,3.50158,2.261,-1,5
132,3.50385,2.269,-1,5
133,3.50611,2.243,-1,5
134,3.50835,2.243,-1,5
135,3.51059,2.243,-1,5
136,3.51285,2.222,-1,5
137,3.51508,2.222,-1,5
138,3.51955,2.226,-1,5
139,3.52179,2.243,-1,5
140,3.52401,2.218,-1,5
141,3.52623,2.222,-1,5
142,3.52846,2.231,-1,5
143,3.53069,2.235,-1,5
144,3.53292,2.222,-1,5
145,3.53513,2.218,-1,5
146,3.53733,2.200,-1,5
147,3.53953,2.196,-1,5
148,3.54173,2.200,-1,5
149,3.54393,2.200,-1,5
150,3.54612,2.192,-1,5
151,3.54831,2.192,-1,5
152,3.55049,2.179,-1,5
153,3.55266,2.170,-1,5
154,3.55483,2.170,-1,5
155,3.55699,2.161,-1,5
156,3.56130,2.149,-1,5
157,3.56346,2.157,-1,5
158,3.56561,2.144,-1,5
159,3.56773,2.123,-1,5
160,3.56988,2.149,-1,5
161,3.57202,2.149,-1,5
162,3.57414,2.114,-1,5
163,3.57624,2.105,-1,5
164,3.57835,2.105,-1,5
165,3.58045,2.097,-1,5
166,3.58254,2.097,-1,5
167,3.58463,2.088,-1,5
168,3.58671,2.084,-1,5
169,3.58878,2.067,-1,5
170,3.59087,2.084,-1,5
171,3.59292,2.058,-1,5
172,3.59498,2.058,-1,5
173,3.59702,2.041,-1,5
174,3.59905,2.032,-1,5
175,3.60109,2.041,-1,5
176,3.60313,2.032,-1,5
177,3.60716,2.015,-1,5
178,3.60917,2.006,-1,5
179,3.61116,1.989,-1,5
180,3.61314,1.985,-1,5
181,3.61512,1.985,-1,5
182,3.61711,1.980,-1,5
183,3.61908,1.972,-1,5
184,3.62105,1.976,-1,5
185,3.62300,1.950,-1,5
186,3.62494,1.941,-1,5
187,3.62688,1.933,-1,5
188,3.62880,1.924,-1,5
189,3.63073,1.929,-1,5
190,3.63262,1.885,-1,5
191,3.63452,1.903,-1,5
192,3.63828,1.894,-1,5
193,3.64016,1.872,-1,5
194,3.64016,1.847,-1,5
195,3.64388,1.872,-1,5
196,3.64388,1.859,-1,5
197,3.64755,1.816,-1,5
198,3.64755,1.825,-1,5
199,3.65120,1.821,-1,5
200,3.65300,1.799,-1,5
201,3.65478,1.782,-1,5
202,3.65656,1.786,-1,5
203,3.65833,1.765,-1,5
204,3.66009,1.760,-1,5
205,3.66184,1.752,-1,5
206,3.66355,1.708,-1,5
207,3.66528,1.730,-1,5
208,3.66701,1.730,-1,5
209,3.66871,1.700,-1,5
210,3.67040,1.691,-1,5
211,3.67209,1.687,-1,5
212,3.67375,1.661,-1,5
213,3.67539,1.644,-1,5
214,3.67702,1.626,-1,5
215,3.68025,1.609,-1,5
216,3.68185,1.605,-1,5
217,3.68342,1.570,-1,5
218,3.68500,1.579,-1,5
219,3.68657,1.570,-1,5
220,3.68657,1.545,-1,5
221,3.68812,1.532,-1,5
222,3.69115,1.497,-1,5
223,3.69265,1.506,-1,5
224,3.69416,1.506,-1,5
225,3.69561,1.454,-1,5
226,3.69708,1.467,-1,5
227,3.69853,1.454,-1,5
228,3.69995,1.419,-1,5
229,3.70137,1.419,-1,5
230,3.70277,1.402,-1,5
231,3.70415,1.372,-1,5
232,3.70552,1.372,-1,5
233,3.70686,1.342,-1,5
234,3.70820,1.342,-1,5
235,3.70952,1.320,-1,5
236,3.71083,1.307,-1,5
237,3.71212,1.286,-1,5
238,3.71340,1.281,-1,5
239,3.71466,1.260,-1,5
240,3.71590,1.247,-1,5
241,3.71713,1.225,-1,5
242,3.71834,1.208,-1,5
243,3.71953,1.195,-1,5
244,3.72070,1.169,-1,5
245,3.72187,1.165,-1,5
246,3.72411,1.113,-1,5
247,3.72522,1.113,-1,5
248,3.72632,1.096,-1,5
249,3.72738,1.066,-1,5
250,3.72843,1.048,-1,5
251,3.72947,1.035,-1,5
252,3.73049,1.027,-1,5
253,3.73149,0.992,-1,5
254,3.73248,0.992,-1,5
255,3.73343,0.953,-1,5
256,3.73440,0.971,-1,5
257,3.73533,0.923,-1,5
258,3.73626,0.932,-1,5
259,3.73714,0.884,-1,5
260,3.73803,0.884,-1,5
261,3.73889,0.863,-1,5
262,3.73973,0.841,-1,5
263,3.74056,0.828,-1,5
264,3.74136,0.798,-1,5
265,3.74216,0.802,-1,5
266,3.74292,0.764,-1,5
267,3.74367,0.742,-1,5
268,3.74442,0.755,-1,5
269,3.74512,0.703,-1,5
270,3.74581,0.690,-1,5
271,3.74649,0.677,-1,5
272,3.74714,0.651,-1,5
273,3.74779,0.643,-1,5
274,3.74842,0.630,-1,5
275,3.74902,0.608,-1,5
276,3.74960,0.578,-1,5
277,3.75073,0.539,-1,5
278,3.75126,0.535,-1,5
279,3.75178,0.513,-1,5
280,3.75228,0.500,-1,5
281,3.75275,0.470,-1,5
282,3.75320,0.457,-1,5
283,3.75363,0.427,-1,5
284,3.75407,0.436,-1,5
285,3.75447,0.401,-1,5
286,3.75484,0.375,-1,5
287,3.75520,0.354,-1,5
288,3.75554,0.341,-1,5
289,3.75588,0.345,-1,5
290,3.75619,0.302,-1,5
291,3.75647,0.285,-1,5
292,3.75698,0.246,-1,5
293,3.75720,0.224,-1,5
294,3.75741,0.207,-1,5
295,3.75758,0.177,-1,5
296,3.75776,0.177,-1,5
297,3.75792,0.160,-1,5
298,3.75804,0.116,-1,5
299,3.75814,0.108,-1,5
300,3.75823,0.086,-1,5
301,3.75830,0.069,-1,5
302,3.75835,0.047,-1,5
303,3.75838,0.030,-1,5
304,3.75839,0.013,-1,5
305,3.75838,-0.013,-1,5
306,3.75835,-0.026,-1,5
307,3.75824,-0.069,-1,5
308,3.75816,-0.078,-1,5
309,3.75805,-0.104,-1,5
310,3.75793,-0.121,-1,5
311,3.75779,-0.147,-1,5
312,3.75762,-0.168,-1,5
313,3.75744,-0.177,-1,5
314,3.75726,-0.186,-1,5
315,3.75703,-0.229,-1,5
316,3.75680,-0.229,-1,5
317,3.75654,-0.255,-1,5
318,3.75628,-0.263,-1,5
319,3.75600,-0.285,-1,5
320,3.75568,-0.319,-1,5
321,3.75534,-0.332,-1,5
322,3.75465,-0.354,-1,5
323,3.75427,-0.380,-1,5
324,3.75389,-0.388,-1,5
325,3.75346,-0.427,-1,5
326,3.75303,-0.427,-1,5
327,3.75258,-0.453,-1,5
328,3.75212,-0.457,-1,5
329,3.75162,-0.505,-1,5
330,3.75112,-0.500,-1,5
331,3.75060,-0.518,-1,5
332,3.75006,-0.535,-1,5
333,3.74949,-0.574,-1,5
334,3.74892,-0.591,-1,5
335,3.74833,-0.591,-1,5
336,3.74709,-0.626,-1,5
337,3.74645,-0.639,-1,5
338,3.74578,-0.669,-1,5
339,3.74511,-0.673,-1,5
340,3.74441,-0.695,-1,5
341,3.74369,-0.725,-1,5
342,3.74296,-0.729,-1,5
343,3.74221,-0.746,-1,5
344,3.74142,-0.790,-1,5
345,3.73982,-0.815,-1,5
346,3.73982,-0.824,-1,5
347,3.73815,-0.846,-1,5
348,3.73815,-0.876,-1,5
349,3.73640,-0.876,-1,5
350,3.73640,-0.910,-1,5
351,3.73457,-0.919,-1,5
352,3.73362,-0.949,-1,5
353,3.73267,-0.949,-1,5
354,3.73170,-0.971,-1,5
355,3.73071,-0.997,-1,5
356,3.72969,-1.014,-1,5
357,3.72867,-1.022,-1,5
358,3.72762,-1.053,-1,5
359,3.72655,-1.070,-1,5
360,3.72546,-1.092,-1,5
361,3.72434,-1.113,-1,5
362,3.72322,-1.126,-1,5
363,3.72092,-1.178,-1,5
364,3.72092,-1.173,-1,5
365,3.71854,-1.204,-1,5
366,3.71732,-1.225,-1,5
367,3.71608,-1.234,-1,5
368,3.71482,-1.264,-1,5
369,3.71355,-1.268,-1,5
370,3.71225,-1.303,-1,5
371,3.71094,-1.312,-1,5
372,3.70960,-1.333,-1,5
373,3.70825,-1.350,-1,5
374,3.70688,-1.394,-1,5
375,3.70549,-1.402,-1,5
376,3.70267,-1.415,-1,5
377,3.70267,-1.445,-1,5
378,3.69975,-1.480,-1,5
379,3.69828,-1.467,-1,5
380,3.69676,-1.523,-1,5
381,3.69524,-1.519,-1,5
382,3.69369,-1.549,-1,5
383,3.69214,-1.549,-1,5
384,3.69057,-1.575,-1,5
385,3.68897,-1.596,-1,5
386,3.68735,-1.618,-1,5
387,3.68573,-1.622,-1,5
388,3.68406,-1.665,-1,5
389,3.68239,-1.670,-1,5
390,3.68069,-1.700,-1,5
391,3.67899,-1.708,-1,5
392,3.67726,-1.721,-1,5
393,3.67553,-1.721,-1,5
394,3.67377,-1.760,-1,5
395,3.67199,-1.786,-1,5
396,3.67017,-1.825,-1,5
397,3.66650,-1.842,-1,5
398,3.66464,-1.864,-1,5
399,3.66276,-1.881,-1,5
400,3.66087,-1.890,-1,5
401,3.65895,-1.920,-1,5
402,3.65701,-1.937,-1,5
403,3.65508,-1.937,-1,5
404,3.65311,-1.967,-1,5
405,3.64910,-2.019,-1,5
406,3.64910,-2.028,-1,5
407,3.64501,-2.058,-1,5
408,3.64501,-2.058,-1,5
409,3.64087,-2.084,-1,5
410,3.63877,-2.105,-1,5
411,3.63665,-2.118,-1,5
412,3.63452,-2.131,-1,5
413,3.63236,-2.161,-1,5
414,3.63019,-2.161,-1,5
415,3.62800,-2.196,-1,5
416,3.62579,-2.209,-1,5
417,3.62355,-2.239,-1,5
418,3.62129,-2.261,-1,5
419,3.61902,-2.269,-1,5
420,3.61673,-2.287,-1,5
421,3.61442,-2.317,-1,5
422,3.61210,-2.312,-1,5
423,3.60978,-2.325,-1,5
424,3.60740,-2.382,-1,5
425,3.60502,-2.377,-1,5
426,3.60263,-2.394,-1,5
427,3.60020,-2.446,-1,5
428,3.59533,-2.425,-1,5
429,3.59287,-2.463,-1,5
430,3.59038,-2.485,-1,5
431,3.58787,-2.515,-1,5
432,3.58535,-2.515,-1,5
433,3.58279,-2.563,-1,5
434,3.58024,-2.554,-1,5
435,3.57766,-2.571,-1,5
436,3.57507,-2.597,-1,5
437,3.57245,-2.614,-1,5
438,3.56980,-2.649,-1,5
439,3.56714,-2.662,-1,5
440,3.56447,-2.666,-1,5
441,3.56179,-2.688,-1,5
442,3.55906,-2.731,-1,5
443,3.55633,-2.722,-1,5
444,3.55083,-2.770,-1,5
445,3.55083,-2.791,-1,5
446,3.54523,-2.804,-1,5
447,3.54523,-2.830,-1,5
448,3.53956,-2.843,-1,5
449,3.53671,-2.847,-1,5
450,3.53384,-2.873,-1,5
451,3.53094,-2.895,-1,5
452,3.52801,-2.929,-1,5
453,3.52508,-2.934,-1,5
454,3.52213,-2.951,-1,5
455,3.51917,-2.964,-1,5
456,3.51619,-2.977,-1,5
457,3.51319,-3.003,-1,5
458,3.51016,-3.029,-1,5
459,3.50712,-3.033,-1,5
460,3.50406,-3.063,-1,5
461,3.50099,-3.076,-1,5
462,3.49789,-3.093,-1,5
463,3.49481,-3.085,-1,5
464,3.49167,-3.141,-1,5
465,3.48854,-3.124,-1,5
466,3.48221,-3.184,-1,5
467,3.47902,-3.188,-1,5
468,3.47581,-3.210,-1,5
469,3.47257,-3.240,-1,5
470,3.46935,-3.218,-1,5
471,3.46609,-3.266,-1,5
472,3.46281,-3.275,-1,5
473,3.45954,-3.275,-1,5
474,3.45622,-3.313,-1,5
475,3.45289,-3.331,-1,5
476,3.44955,-3.339,-1,5
477,3.44621,-3.348,-1,5
478,3.44285,-3.361,-1,5
479,3.43945,-3.400,-1,5
480,3.43263,-3.426,-1,5
481,3.42919,-3.443,-1,5
482,3.42573,-3.460,-1,5
483,3.42227,-3.451,-1,5
484,3.41880,-3.477,-1,5
485,3.41531,-3.486,-1,5
486,3.41180,-3.512,-1,5
487,3.40827,-3.529,-1,5
488,3.40476,-3.508,-1,5
489,3.40122,-3.542,-1,5
490,3.39765,-3.568,-1,5
491,3.39409,-3.559,-1,5
492,3.39050,-3.590,-1,5
493,3.38692,-3.581,-1,5
494,3.38331,-3.611,-1,5
495,3.37969,-3.620,-1,5
496,3.37606,-3.628,-1,5
497,3.37243,-3.637,-1,5
498,3.36877,-3.654,-1,5
499,3.36511,-3.667,-1,5
500,3.36141,-3.697,-1,5
501,3.35773,-3.676,-1,5
502,3.35030,-3.710,-1,5
503,3.34658,-3.723,-1,5
504,3.34285,-3.732,-1,5
505,3.33909,-3.753,-1,5
506,3.33532,-3.775,-1,5
507,3.33155,-3.766,-1,5
508,3.32778,-3.775,-1,5
509,3.32400,-3.779,-1,5
510,3.32020,-3.801,-1,5
511,3.31639,-3.810,-1,5
512,3.31260,-3.788,-1,5
513,3.30877,-3.831,-1,5
514,3.30496,-3.810,-1,5
515,3.30113,-3.831,-1,5
516,3.29730,-3.831,-1,5
517,3.29347,-3.827,-1,5
518,3.28964,-3.831,-1,5
519,3.28577,-3.870,-1,5
520,3.28193,-3.857,-1,5
521,3.27807,-3.857,-1,5
522,3.27421,-3.857,-1,5
523,3.27037,-3.866,-1,5
524,3.26650,-3.866,-1,5
525,3.25874,-3.879,-1,5
526,3.25487,-3.879,-1,5
527,3.25098,-3.883,-1,5
528,3.24709,-3.896,-1,5
529,3.24318,-3.909,-1,5
530,3.23929,-3.887,-1,5
531,3.23540,-3.892,-1,5
532,3.23151,-3.887,-1,5
533,3.22760,-3.909,-1,5
534,3.22371,-3.896,-1,5
535,3.21983,-3.883,-1,5
536,3.21588,-3.943,-1,5
537,3.21202,-3.857,-1,5
