cnt,pos,speed,Dir,Force,
1,0,1.02,1,6
2,0.00204086,1.017,1,6
3,0.00303078,0.995,1,6
4,0.00402069,0.989,1,6
5,0.00504112,1.018,1,6
6,0.00609016,1.045,1,6
7,0.00712013,1.038,1,6
8,0.00814056,1.014,1,6
9,0.00915146,1.015,1,6
10,0.010191,1.042,1,6
11,0.011261,1.065,1,6
12,0.01231,1.052,1,6
13,0.01334,1.038,1,6
14,0.0143814,1.067,1,6
15,0.016531,1.084,1,6
16,0.017601,1.066,1,6
17,0.0186405,1.046,1,6
18,0.019701,1.063,1,6
19,0.0207901,1.091,1,6
20,0.0218906,1.098,1,6
21,0.0229702,1.08,1,6
22,0.0240517,1.073,1,6
23,0.0251408,1.09,1,6
24,0.0262508,1.11,1,6
25,0.0273514,1.097,1,6
26,0.02845,1.097,1,6
27,0.0295506,1.1,1,6
28,0.0318012,1.128,1,6
29,0.0329208,1.125,1,6
30,0.0340405,1.121,1,6
31,0.0351715,1.125,1,6
32,0.0363007,1.136,1,6
33,0.0374508,1.144,1,6
34,0.0386009,1.15,1,6
35,0.0397511,1.151,1,6
36,0.0409012,1.148,1,6
37,0.0420418,1.149,1,6
38,0.043211,1.163,1,6
39,0.0443802,1.171,1,6
40,0.0455513,1.168,1,6
41,0.046711,1.164,1,6
42,0.0478916,1.176,1,6
43,0.0490818,1.193,1,6
44,0.0502701,1.189,1,6
45,0.0514412,1.176,1,6
46,0.0526314,1.183,1,6
47,0.0538311,1.206,1,6
48,0.0550518,1.212,1,6
49,0.0562515,1.205,1,6
50,0.0574512,1.202,1,6
51,0.0586605,1.223,1,6
52,0.0611105,1.225,1,6
53,0.0623407,1.228,1,6
54,0.063571,1.233,1,6
55,0.0648108,1.235,1,6
56,0.066041,1.238,1,6
57,0.0672913,1.246,1,6
58,0.0685406,1.252,1,6
59,0.0697908,1.251,1,6
60,0.0723209,1.267,1,6
61,0.0735807,1.265,1,6
62,0.0748405,1.264,1,6
63,0.0761108,1.267,1,6
64,0.0773907,1.283,1,6
65,0.078681,1.289,1,6
66,0.0799713,1.283,1,6
67,0.0812511,1.283,1,6
68,0.0825405,1.292,1,6
69,0.0838413,1.297,1,6
70,0.0851412,1.312,1,6
71,0.0864611,1.311,1,6
72,0.0877705,1.311,1,6
73,0.0890808,1.309,1,6
74,0.0903912,1.316,1,6
75,0.0917206,1.329,1,6
76,0.093051,1.33,1,6
77,0.0943813,1.329,1,6
78,0.0957212,1.339,1,6
79,0.0970612,1.344,1,6
80,0.0984011,1.343,1,6
81,0.101101,1.353,1,6
82,0.101101,1.362,1,6
83,0.102461,1.363,1,6
84,0.103831,1.366,1,6
85,0.106561,1.363,1,6
86,0.107921,1.366,1,6
87,0.109301,1.379,1,6
88,0.110691,1.392,1,6
89,0.112081,1.387,1,6
90,0.113461,1.387,1,6
91,0.116251,1.402,1,6
92,0.117661,1.409,1,6
93,0.119071,1.409,1,6
94,0.120481,1.407,1,6
95,0.121881,1.405,1,6
96,0.123301,1.419,1,6
97,0.124731,1.433,1,6
98,0.126161,1.432,1,6
99,0.127591,1.427,1,6
100,0.129021,1.43,1,6
101,0.131901,1.445,1,6
102,0.131901,1.453,1,6
103,0.133361,1.456,1,6
104,0.13481,1.456,1,6
105,0.136261,1.449,1,6
106,0.137721,1.463,1,6
107,0.139181,1.47,1,6
108,0.142131,1.478,1,6
109,0.143611,1.483,1,6
110,0.145081,1.471,1,6
111,0.146551,1.476,1,6
112,0.148051,1.492,1,6
113,0.14955,1.502,1,6
114,0.151051,1.502,1,6
115,0.152551,1.497,1,6
116,0.154051,1.501,1,6
117,0.15556,1.506,1,6
118,0.157081,1.525,1,6
119,0.158611,1.528,1,6
120,0.160131,1.518,1,6
121,0.161641,1.533,1,6
122,0.163171,1.533,1,6
123,0.164721,1.551,1,6
124,0.166271,1.551,1,6
125,0.16781,1.536,1,6
126,0.169351,1.536,1,6
127,0.172471,1.574,1,6
128,0.174051,1.574,1,6
129,0.175611,1.562,1,6
130,0.177171,1.56,1,6
131,0.178741,1.573,1,6
132,0.180341,1.597,1,6
133,0.181941,1.587,1,6
134,0.183531,1.587,1,6
135,0.185111,1.578,1,6
136,0.186701,1.596,1,6
137,0.188321,1.616,1,6
138,0.189951,1.626,1,6
139,0.191561,1.616,1,6
140,0.193161,1.6,1,6
141,0.196411,1.638,1,6
142,0.198061,1.65,1,6
143,0.198061,1.643,1,6
144,0.201331,1.628,1,6
145,0.201331,1.633,1,6
146,0.202971,1.659,1,6
147,0.204631,1.673,1,6
148,0.206301,1.665,1,6
149,0.20962,1.655,1,6
150,0.211271,1.657,1,6
151,0.212951,1.677,1,6
152,0.214651,1.696,1,6
153,0.216341,1.688,1,6
154,0.218011,1.678,1,6
155,0.219691,1.68,1,6
156,0.221391,1.7,1,6
157,0.223111,1.716,1,6
158,0.224821,1.71,1,6
159,0.226521,1.7,1,6
160,0.229951,1.724,1,6
161,0.231681,1.734,1,6
162,0.233421,1.732,1,6
163,0.235141,1.723,1,6
164,0.236871,1.732,1,6
165,0.238621,1.748,1,6
166,0.240371,1.756,1,6
167,0.242131,1.752,1,6
168,0.243871,1.746,1,6
169,0.245631,1.771,1,6
170,0.249171,1.772,1,6
171,0.250941,1.771,1,6
172,0.252711,1.771,1,6
173,0.254491,1.776,1,6
174,0.256281,1.787,1,6
175,0.258071,1.792,1,6
176,0.259861,1.793,1,6
177,0.261651,1.793,1,6
178,0.263451,1.798,1,6
179,0.265251,1.803,1,6
180,0.267071,1.813,1,6
181,0.268881,1.815,1,6
182,0.2707,1.816,1,6
183,0.272511,1.814,1,6
184,0.274331,1.819,1,6
185,0.276161,1.833,1,6
186,0.278001,1.835,1,6
187,0.279831,1.831,1,6
188,0.281661,1.83,1,6
189,0.283491,1.836,1,6
190,0.285351,1.853,1,6
191,0.287201,1.855,1,6
192,0.289051,1.845,1,6
193,0.290891,1.847,1,6
194,0.292751,1.857,1,6
195,0.294621,1.873,1,6
196,0.296491,1.868,1,6
197,0.298351,1.863,1,6
198,0.30022,1.865,1,6
199,0.302101,1.877,1,6
200,0.305861,1.883,1,6
201,0.307741,1.879,1,6
202,0.309621,1.884,1,6
203,0.311521,1.892,1,6
204,0.313421,1.901,1,6
205,0.315321,1.898,1,6
206,0.317211,1.898,1,6
207,0.319111,1.9,1,6
208,0.321021,1.905,1,6
209,0.322931,1.917,1,6
210,0.324851,1.916,1,6
211,0.326761,1.912,1,6
212,0.328671,1.91,1,6
213,0.330591,1.92,1,6
214,0.332531,1.935,1,6
215,0.334461,1.931,1,6
216,0.336381,1.921,1,6
217,0.338301,1.923,1,6
218,0.34024,1.94,1,6
219,0.342191,1.938,1,6
220,0.346061,1.932,1,6
221,0.348011,1.944,1,6
222,0.349971,1.957,1,6
223,0.351931,1.96,1,6
224,0.353871,1.947,1,6
225,0.355821,1.95,1,6
226,0.35778,1.961,1,6
227,0.359751,1.97,1,6
228,0.361721,1.965,1,6
229,0.363681,1.961,1,6
230,0.365651,1.966,1,6
231,0.36762,1.97,1,6
232,0.369591,1.979,1,6
233,0.371581,1.981,1,6
234,0.373551,1.974,1,6
235,0.375531,1.975,1,6
236,0.377511,1.983,1,6
237,0.379511,1.996,1,6
238,0.381491,1.99,1,6
239,0.383481,1.981,1,6
240,0.385461,1.987,1,6
241,0.387461,2,1,6
242,0.389471,2.005,1,6
243,0.391461,1.991,1,6
244,0.393451,1.992,1,6
245,0.395451,2.004,1,6
246,0.39747,2.012,1,6
247,0.399471,2.005,1,6
248,0.401471,2.008,1,6
249,0.403481,2.014,1,6
250,0.407511,2.015,1,6
251,0.409521,2.013,1,6
252,0.41153,2.013,1,6
253,0.413551,2.016,1,6
254,0.415571,2.016,1,6
255,0.417591,2.022,1,6
256,0.419611,2.022,1,6
257,0.421631,2.017,1,6
258,0.423641,2.014,1,6
259,0.425671,2.026,1,6
260,0.427701,2.035,1,6
261,0.431741,2.015,1,6
262,0.433771,2.026,1,6
263,0.435811,2.04,1,6
264,0.43784,2.03,1,6
265,0.439861,2.02,1,6
266,0.441881,2.025,1,6
267,0.443921,2.036,1,6
268,0.445961,2.039,1,6
269,0.447981,2.024,1,6
270,0.450011,2.028,1,6
271,0.454081,2.036,1,6
272,0.456111,2.037,1,6
273,0.456111,2.031,1,6
274,0.458151,2.031,1,6
275,0.462211,2.033,1,6
276,0.464251,2.042,1,6
277,0.46629,2.043,1,6
278,0.468321,2.031,1,6
279,0.470351,2.023,1,6
280,0.472381,2.037,1,6
281,0.474431,2.051,1,6
282,0.476471,2.039,1,6
283,0.478501,2.027,1,6
284,0.480531,2.027,1,6
285,0.482571,2.044,1,6
286,0.484621,2.051,1,6
287,0.486661,2.035,1,6
288,0.488691,2.028,1,6
289,0.490721,2.033,1,6
290,0.492771,2.05,1,6
291,0.494821,2.047,1,6
292,0.496851,2.033,1,6
293,0.498881,2.029,1,6
294,0.500921,2.038,1,6
295,0.502971,2.05,1,6
296,0.505021,2.048,1,6
297,0.507051,2.033,1,6
298,0.509081,2.03,1,6
299,0.511121,2.048,1,6
300,0.513181,2.056,1,6
301,0.517261,2.032,1,6
302,0.5193,2.037,1,6
303,0.521351,2.056,1,6
304,0.523411,2.058,1,6
305,0.525461,2.048,1,6
306,0.527491,2.034,1,6
307,0.529541,2.047,1,6
308,0.531601,2.062,1,6
309,0.533661,2.059,1,6
310,0.535711,2.049,1,6
311,0.537751,2.041,1,6
312,0.539811,2.057,1,6
313,0.543941,2.066,1,6
314,0.545991,2.051,1,6
315,0.545991,2.051,1,6
316,0.550111,2.066,1,6
317,0.552181,2.074,1,6
318,0.554251,2.066,1,6
319,0.556301,2.051,1,6
320,0.558361,2.077,1,6
321,0.560431,2.077,1,6
322,0.564571,2.059,1,6
323,0.566631,2.058,1,6
324,0.566631,2.076,1,6
325,0.568701,2.076,1,6
326,0.570791,2.084,1,6
327,0.572861,2.07,1,6
328,0.574921,2.073,1,6
329,0.579081,2.086,1,6
330,0.581161,2.079,1,6
331,0.583231,2.07,1,6
332,0.5853,2.07,1,6
333,0.587381,2.082,1,6
334,0.589471,2.086,1,6
335,0.591551,2.081,1,6
336,0.593621,2.07,1,6
337,0.595691,2.075,1,6
338,0.597781,2.093,1,6
339,0.599871,2.091,1,6
340,0.601951,2.078,1,6
341,0.604021,2.069,1,6
342,0.606111,2.092,1,6
343,0.608211,2.1,1,6
344,0.610301,2.086,1,6
345,0.61237,2.071,1,6
346,0.614461,2.087,1,6
347,0.616561,2.104,1,6
348,0.618661,2.093,1,6
349,0.620741,2.081,1,6
350,0.622821,2.083,1,6
351,0.624921,2.105,1,6
352,0.627031,2.103,1,6
353,0.629121,2.092,1,6
354,0.631211,2.092,1,6
355,0.633311,2.102,1,6
356,0.635421,2.109,1,6
357,0.637531,2.108,1,6
358,0.639631,2.102,1,6
359,0.641741,2.102,1,6
360,0.643851,2.113,1,6
361,0.648091,2.119,1,6
362,0.648091,2.109,1,6
363,0.652311,2.117,1,6
364,0.654451,2.136,1,6
365,0.65659,2.137,1,6
366,0.65871,2.125,1,6
367,0.660841,2.128,1,6
368,0.662991,2.148,1,6
369,0.665141,2.154,1,6
370,0.667291,2.146,1,6
371,0.669431,2.143,1,6
372,0.671591,2.159,1,6
373,0.673761,2.171,1,6
374,0.675931,2.169,1,6
375,0.678101,2.168,1,6
376,0.680271,2.173,1,6
377,0.682461,2.186,1,6
378,0.684651,2.194,1,6
379,0.686851,2.197,1,6
380,0.691241,2.202,1,6
381,0.69346,2.216,1,6
382,0.695691,2.227,1,6
383,0.697901,2.218,1,6
384,0.70013,2.221,1,6
385,0.702371,2.239,1,6
386,0.704621,2.253,1,6
387,0.706861,2.246,1,6
388,0.709121,2.25,1,6
389,0.711381,2.264,1,6
390,0.713651,2.273,1,6
391,0.715931,2.278,1,6
392,0.718211,2.283,1,6
393,0.720501,2.29,1,6
394,0.722801,2.299,1,6
395,0.725111,2.309,1,6
396,0.727421,2.314,1,6
397,0.732071,2.326,1,6
398,0.734411,2.336,1,6
399,0.736751,2.346,1,6
400,0.739111,2.355,1,6
401,0.741471,2.361,1,6
402,0.743841,2.367,1,6
403,0.746211,2.371,1,6
404,0.748601,2.387,1,6
405,0.750991,2.396,1,6
406,0.755791,2.404,1,6
407,0.758211,2.418,1,6
408,0.760641,2.426,1,6
409,0.763061,2.428,1,6
410,0.765501,2.438,1,6
411,0.767951,2.445,1,6
412,0.770401,2.453,1,6
413,0.772861,2.463,1,6
414,0.775331,2.471,1,6
415,0.777811,2.475,1,6
416,0.780291,2.484,1,6
417,0.782781,2.49,1,6
418,0.785281,2.498,1,6
419,0.787791,2.508,1,6
420,0.790301,2.514,1,6
421,0.792821,2.527,1,6
422,0.795351,2.527,1,6
423,0.797881,2.538,1,6
424,0.800431,2.542,1,6
425,0.802971,2.548,1,6
426,0.805531,2.555,1,6
427,0.810661,2.569,1,6
428,0.813241,2.577,1,6
429,0.815821,2.583,1,6
430,0.818411,2.589,1,6
431,0.821011,2.595,1,6
432,0.823611,2.605,1,6
433,0.826221,2.608,1,6
434,0.828831,2.613,1,6
435,0.83145,2.62,1,6
436,0.834081,2.627,1,6
437,0.839351,2.637,1,6
438,0.842001,2.642,1,6
439,0.844651,2.652,1,6
440,0.847301,2.656,1,6
441,0.849971,2.662,1,6
442,0.852641,2.671,1,6
443,0.85531,2.671,1,6
444,0.857981,2.677,1,6
445,0.860671,2.692,1,6
446,0.866061,2.697,1,6
447,0.868761,2.699,1,6
448,0.87147,2.707,1,6
449,0.874181,2.718,1,6
450,0.876901,2.719,1,6
451,0.879631,2.724,1,6
452,0.88236,2.732,1,6
453,0.885101,2.736,1,6
454,0.887841,2.742,1,6
455,0.890591,2.752,1,6
456,0.893351,2.757,1,6
457,0.896111,2.758,1,6
458,0.898881,2.769,1,6
459,0.901651,2.775,1,6
460,0.904431,2.778,1,6
461,0.907211,2.785,1,6
462,0.910001,2.79,1,6
463,0.912801,2.805,1,6
464,0.918421,2.81,1,6
465,0.921231,2.815,1,6
466,0.924051,2.819,1,6
467,0.926871,2.824,1,6
468,0.929711,2.836,1,6
469,0.93255,2.837,1,6
470,0.93539,2.844,1,6
471,0.938241,2.851,1,6
472,0.941101,2.857,1,6
473,0.943961,2.862,1,6
474,0.946831,2.873,1,6
475,0.949711,2.879,1,6
476,0.955471,2.887,1,6
477,0.958361,2.893,1,6
478,0.961261,2.9,1,6
479,0.96417,2.905,1,6
480,0.967081,2.906,1,6
481,0.969991,2.916,1,6
482,0.972911,2.92,1,6
483,0.975841,2.929,1,6
484,0.978771,2.932,1,6
485,0.981701,2.931,1,6
486,0.984651,2.947,1,6
487,0.990551,2.95,1,6
488,0.990551,2.961,1,6
489,0.993511,2.961,1,6
490,0.99647,2.961,1,6
491,0.999431,2.965,1,6
492,1.00241,2.975,1,6
493,1.00539,2.979,1,6
494,1.00837,2.984,1,6
495,1.01136,2.989,1,6
496,1.01736,3.002,1,6
497,1.02036,3.005,1,6
498,1.02338,3.016,1,6
499,1.02639,3.016,1,6
500,1.02941,3.022,1,6
501,1.03244,3.03,1,6
502,1.03548,3.037,1,6
503,1.03852,3.038,1,6
504,1.04156,3.047,1,6
505,1.04461,3.049,1,6
506,1.04767,3.06,1,6
507,1.0538,3.067,1,6
508,1.05687,3.072,1,6
509,1.05994,3.075,1,6
510,1.06302,3.083,1,6
511,1.06611,3.089,1,6
512,1.06921,3.095,1,6
513,1.07231,3.1,1,6
514,1.07852,3.109,1,6
515,1.08164,3.115,1,6
516,1.08476,3.119,1,6
517,1.08789,3.131,1,6
518,1.09102,3.133,1,6
519,1.09416,3.136,1,6
520,1.0973,3.144,1,6
521,1.10045,3.148,1,6
522,1.10361,3.159,1,6
523,1.10677,3.162,1,6
524,1.10994,3.164,1,6
525,1.11311,3.17,1,6
526,1.11628,3.176,1,6
527,1.11947,3.184,1,6
528,1.12265,3.188,1,6
529,1.12585,3.192,1,6
530,1.12904,3.199,1,6
531,1.13224,3.199,1,6
532,1.13546,3.212,1,6
533,1.13867,3.214,1,6
534,1.14188,3.214,1,6
535,1.14511,3.222,1,6
536,1.15157,3.233,1,6
537,1.15481,3.241,1,6
538,1.15805,3.242,1,6
539,1.1613,3.246,1,6
540,1.16455,3.251,1,6
541,1.16781,3.26,1,6
542,1.17107,3.26,1,6
543,1.17433,3.265,1,6
544,1.1776,3.269,1,6
545,1.18088,3.275,1,6
546,1.18415,3.278,1,6
547,1.18743,3.279,1,6
548,1.19072,3.286,1,6
549,1.19401,3.292,1,6
550,1.1973,3.296,1,6
551,1.2006,3.296,1,6
552,1.20389,3.3,1,6
553,1.20719,3.304,1,6
554,1.2105,3.309,1,6
555,1.21712,3.31,1,6
556,1.22043,3.312,1,6
557,1.22374,3.314,1,6
558,1.22706,3.318,1,6
559,1.23039,3.324,1,6
560,1.23703,3.323,1,6
561,1.24036,3.328,1,6
562,1.24369,3.333,1,6
563,1.24703,3.337,1,6
564,1.25036,3.334,1,6
565,1.2537,3.335,1,6
566,1.25704,3.338,1,6
567,1.26038,3.344,1,6
568,1.26707,3.346,1,6
569,1.27042,3.346,1,6
570,1.27377,3.349,1,6
571,1.27712,3.355,1,6
572,1.28047,3.351,1,6
573,1.28383,3.355,1,6
574,1.28719,3.359,1,6
575,1.29055,3.363,1,6
576,1.29391,3.362,1,6
577,1.29728,3.365,1,6
578,1.30064,3.366,1,6
579,1.30402,3.371,1,6
580,1.30739,3.375,1,6
581,1.31076,3.373,1,6
582,1.31414,3.376,1,6
583,1.31752,3.38,1,6
584,1.3209,3.382,1,6
585,1.32429,3.388,1,6
586,1.32767,3.385,1,6
587,1.33106,3.387,1,6
588,1.33445,3.391,1,6
589,1.34124,3.395,1,6
590,1.34464,3.399,1,6
591,1.34803,3.397,1,6
592,1.35143,3.397,1,6
593,1.35483,3.404,1,6
594,1.35824,3.405,1,6
595,1.36165,3.407,1,6
596,1.36505,3.407,1,6
597,1.36846,3.41,1,6
598,1.37187,3.412,1,6
599,1.3787,3.413,1,6
600,1.38212,3.416,1,6
601,1.38554,3.421,1,6
602,1.38896,3.422,1,6
603,1.39238,3.421,1,6
604,1.3958,3.421,1,6
605,1.39923,3.421,1,6
606,1.40265,3.428,1,6
607,1.40608,3.426,1,6
608,1.40951,3.426,1,6
609,1.41636,3.427,1,6
610,1.41979,3.435,1,6
611,1.42322,3.427,1,6
612,1.42665,3.428,1,6
613,1.43008,3.43,1,6
614,1.43351,3.435,1,6
615,1.43695,3.434,1,6
616,1.44038,3.432,1,6
617,1.44381,3.433,1,6
618,1.45069,3.439,1,6
619,1.45412,3.435,1,6
620,1.45756,3.434,1,6
621,1.46099,3.434,1,6
622,1.46443,3.444,1,6
623,1.46788,3.442,1,6
624,1.47131,3.436,1,6
625,1.47475,3.439,1,6
626,1.47819,3.441,1,6
627,1.48164,3.446,1,6
628,1.48508,3.441,1,6
629,1.48852,3.443,1,6
630,1.49196,3.442,1,6
631,1.49541,3.448,1,6
632,1.49886,3.449,1,6
633,1.50231,3.447,1,6
634,1.50576,3.448,1,6
635,1.50921,3.449,1,6
636,1.51266,3.455,1,6
637,1.51612,3.456,1,6
638,1.51957,3.456,1,6
639,1.52303,3.456,1,6
640,1.52649,3.461,1,6
641,1.53342,3.463,1,6
642,1.53689,3.468,1,6
643,1.54035,3.466,1,6
644,1.54383,3.477,1,6
645,1.54731,3.478,1,6
646,1.55079,3.477,1,6
647,1.55427,3.484,1,6
648,1.56124,3.492,1,6
649,1.56473,3.491,1,6
650,1.56822,3.49,1,6
651,1.57172,3.495,1,6
652,1.57522,3.509,1,6
653,1.57873,3.509,1,6
654,1.58224,3.511,1,6
655,1.58575,3.516,1,6
656,1.58927,3.516,1,6
657,1.59279,3.522,1,6
658,1.59632,3.529,1,6
659,1.60338,3.531,1,6
660,1.60692,3.537,1,6
661,1.61046,3.544,1,6
662,1.61401,3.547,1,6
663,1.61756,3.548,1,6
664,1.62111,3.55,1,6
665,1.62466,3.556,1,6
666,1.62822,3.56,1,6
667,1.63179,3.563,1,6
668,1.63535,3.566,1,6
669,1.63892,3.572,1,6
670,1.6425,3.573,1,6
671,1.64607,3.578,1,6
672,1.64966,3.582,1,6
673,1.65324,3.584,1,6
674,1.65683,3.59,1,6
675,1.66042,3.593,1,6
676,1.66402,3.6,1,6
677,1.66762,3.602,1,6
678,1.67123,3.606,1,6
679,1.67484,3.608,1,6
680,1.67845,3.613,1,6
681,1.68207,3.615,1,6
682,1.68569,3.622,1,6
683,1.69294,3.626,1,6
684,1.69656,3.629,1,6
685,1.7002,3.633,1,6
686,1.70384,3.64,1,6
687,1.70748,3.643,1,6
688,1.71112,3.643,1,6
689,1.71477,3.647,1,6
690,1.71842,3.654,1,6
691,1.72209,3.66,1,6
692,1.72575,3.665,1,6
693,1.72942,3.665,1,6
694,1.73309,3.673,1,6
695,1.73677,3.678,1,6
696,1.74045,3.683,1,6
697,1.74414,3.685,1,6
698,1.74783,3.696,1,6
699,1.75153,3.696,1,6
700,1.75523,3.708,1,6
701,1.76265,3.712,1,6
702,1.76638,3.721,1,6
703,1.77011,3.73,1,6
704,1.77384,3.732,1,6
705,1.77757,3.736,1,6
706,1.78132,3.745,1,6
707,1.78507,3.753,1,6
708,1.78883,3.76,1,6
709,1.7926,3.765,1,6
710,1.79637,3.773,1,6
711,1.80015,3.777,1,6
712,1.80394,3.797,1,6
713,1.81153,3.802,1,6
714,1.81534,3.808,1,6
715,1.81916,3.815,1,6
716,1.82298,3.824,1,6
717,1.82682,3.836,1,6
718,1.83066,3.838,1,6
719,1.8345,3.844,1,6
720,1.83835,3.854,1,6
721,1.84222,3.871,1,6
722,1.84997,3.876,1,6
723,1.85385,3.884,1,6
724,1.85774,3.895,1,6
725,1.86165,3.903,1,6
726,1.86556,3.911,1,6
727,1.86948,3.918,1,6
728,1.8734,3.925,1,6
729,1.87734,3.935,1,6
730,1.88128,3.943,1,6
731,1.88523,3.951,1,6
732,1.88919,3.962,1,6
733,1.89316,3.974,1,6
734,1.90111,3.981,1,6
735,1.9051,3.99,1,6
736,1.9091,3.996,1,6
737,1.9131,4.002,1,6
738,1.91711,4.011,1,6
739,1.92113,4.022,1,6
740,1.92516,4.027,1,6
741,1.9292,4.036,1,6
742,1.93323,4.037,1,6
743,1.93729,4.051,1,6
744,1.94541,4.068,1,6
745,1.94948,4.073,1,6
746,1.95356,4.079,1,6
747,1.95765,4.087,1,6
748,1.96174,4.095,1,6
749,1.96585,4.102,1,6
750,1.96996,4.11,1,6
751,1.97407,4.117,1,6
752,1.9782,4.124,1,6
753,1.98647,4.139,1,6
754,1.99061,4.145,1,6
755,1.99476,4.151,1,6
756,1.99892,4.16,1,6
757,2.00309,4.171,1,6
758,2.00727,4.179,1,6
759,2.01146,4.184,1,6
760,2.01565,4.193,1,6
761,2.01985,4.195,1,6
762,2.02405,4.207,1,6
763,2.02827,4.213,1,6
764,2.03249,4.222,1,6
765,2.03672,4.229,1,6
766,2.04095,4.236,1,6
767,2.04519,4.242,1,6
768,2.04944,4.247,1,6
769,2.0537,4.259,1,6
770,2.05796,4.263,1,6
771,2.06224,4.273,1,6
772,2.06651,4.279,1,6
773,2.07509,4.291,1,6
774,2.07939,4.299,1,6
775,2.0837,4.305,1,6
776,2.08801,4.317,1,6
777,2.09233,4.32,1,6
778,2.09666,4.327,1,6
779,2.101,4.337,1,6
780,2.10534,4.339,1,6
781,2.10968,4.345,1,6
782,2.11403,4.353,1,6
783,2.12276,4.363,1,6
784,2.12713,4.369,1,6
785,2.1315,4.373,1,6
786,2.13588,4.38,1,6
787,2.14027,4.386,1,6
788,2.14466,4.397,1,6
789,2.14905,4.397,1,6
790,2.15346,4.403,1,6
791,2.15786,4.406,1,6
792,2.16227,4.411,1,6
793,2.16669,4.418,1,6
794,2.17553,4.427,1,6
795,2.17996,4.431,1,6
796,2.18439,4.429,1,6
797,2.18882,4.43,1,6
798,2.19326,4.438,1,6
799,2.1977,4.441,1,6
800,2.20214,4.443,1,6
801,2.20659,4.444,1,6
802,2.21104,4.45,1,6
803,2.21549,4.451,1,6
804,2.21995,4.455,1,6
805,2.2244,4.455,1,6
806,2.22886,4.459,1,6
807,2.23332,4.463,1,6
808,2.23779,4.466,1,6
809,2.24225,4.465,1,6
810,2.24672,4.463,1,6
811,2.25119,4.471,1,6
812,2.25566,4.473,1,6
813,2.26013,4.471,1,6
814,2.2646,4.47,1,6
815,2.26907,4.474,1,6
816,2.27355,4.476,1,6
817,2.2825,4.477,1,6
818,2.28699,4.482,1,6
819,2.29147,4.483,1,6
820,2.29595,4.486,1,6
821,2.30044,4.484,1,6
822,2.30493,4.487,1,6
823,2.30941,4.488,1,6
824,2.31391,4.495,1,6
825,2.3184,4.493,1,6
826,2.32739,4.495,1,6
827,2.33189,4.499,1,6
828,2.33639,4.501,1,6
829,2.34089,4.5,1,6
830,2.34539,4.505,1,6
831,2.3499,4.506,1,6
832,2.35441,4.513,1,6
833,2.35892,4.511,1,6
834,2.36344,4.515,1,6
835,2.36796,4.524,1,6
836,2.37701,4.527,1,6
837,2.38154,4.531,1,6
838,2.38607,4.528,1,6
839,2.3906,4.537,1,6
840,2.39514,4.539,1,6
841,2.39969,4.547,1,6
842,2.40424,4.548,1,6
843,2.40879,4.552,1,6
844,2.41334,4.556,1,6
845,2.4179,4.563,1,6
846,2.42704,4.57,1,6
847,2.43162,4.578,1,6
848,2.4362,4.582,1,6
849,2.44078,4.582,1,6
850,2.44536,4.585,1,6
851,2.44996,4.593,1,6
852,2.45456,4.598,1,6
853,2.45916,4.605,1,6
854,2.46377,4.605,1,6
855,2.46837,4.604,1,6
856,2.47298,4.607,1,6
857,2.47759,4.612,1,6
858,2.48221,4.619,1,6
859,2.48683,4.624,1,6
860,2.49145,4.622,1,6
861,2.49608,4.622,1,6
862,2.5007,4.625,1,6
863,2.50533,4.627,1,6
864,2.50996,4.634,1,6
865,2.5146,4.634,1,6
866,2.51923,4.633,1,6
867,2.5285,4.633,1,6
868,2.53313,4.635,1,6
869,2.53777,4.636,1,6
870,2.53777,4.634,1,6
871,2.54704,4.632,1,6
872,2.54704,4.63,1,6
873,2.55166,4.627,1,6
874,2.56092,4.63,1,6
875,2.56555,4.629,1,6
876,2.57017,4.625,1,6
877,2.5748,4.623,1,6
878,2.57942,4.619,1,6
879,2.58866,4.62,1,6
880,2.59328,4.616,1,6
881,2.59328,4.616,1,6
882,2.6025,4.611,1,6
883,2.6025,4.611,1,6
884,2.61172,4.603,1,6
885,2.61632,4.602,1,6
886,2.62092,4.601,1,6
887,2.62552,4.596,1,6
888,2.63011,4.591,1,6
889,2.6347,4.588,1,6
890,2.63929,4.588,1,6
891,2.64387,4.586,1,6
892,2.64845,4.581,1,6
893,2.65304,4.582,1,6
894,2.65762,4.577,1,6
895,2.66677,4.574,1,6
