cnt,pos,speed,Dir,Force,
1,0,1.005,1,5
2,0.00100994,1.005,1,5
3,0.00199986,0.997,1,5
4,0.00300026,0.995,1,5
5,0.00399971,1.005,1,5
6,0.00502014,1.019,1,5
7,0.00603962,1.018,1,5
8,0.00706005,1.015,1,5
9,0.00806999,1.017,1,5
10,0.00909996,1.026,1,5
11,0.0101299,1.029,1,5
12,0.0111599,1.029,1,5
13,0.0121899,1.032,1,5
14,0.0132303,1.038,1,5
15,0.0142698,1.043,1,5
16,0.0153103,1.043,1,5
17,0.0163603,1.045,1,5
18,0.0174103,1.051,1,5
19,0.0184603,1.053,1,5
20,0.0195198,1.054,1,5
21,0.0205698,1.052,1,5
22,0.0216303,1.062,1,5
23,0.0227003,1.071,1,5
24,0.0237799,1.074,1,5
25,0.0248404,1.065,1,5
26,0.0259104,1.067,1,5
27,0.0269899,1.077,1,5
28,0.0280704,1.086,1,5
29,0.0291605,1.086,1,5
30,0.0302401,1.081,1,5
31,0.0313301,1.089,1,5
32,0.0324297,1.099,1,5
33,0.0335302,1.103,1,5
34,0.0346203,1.096,1,5
35,0.0357199,1.099,1,5
36,0.0368299,1.109,1,5
37,0.0379505,1.118,1,5
38,0.0390701,1.116,1,5
39,0.0401802,1.114,1,5
40,0.0412998,1.121,1,5
41,0.0424299,1.13,1,5
42,0.04356,1.13,1,5
43,0.0446901,1.129,1,5
44,0.0458202,1.134,1,5
45,0.0469704,1.144,1,5
46,0.04811,1.143,1,5
47,0.0492496,1.142,1,5
48,0.0503998,1.146,1,5
49,0.0515499,1.155,1,5
50,0.0527105,1.157,1,5
51,0.0538702,1.158,1,5
52,0.0550299,1.161,1,5
53,0.0562,1.169,1,5
54,0.0573702,1.171,1,5
55,0.0585403,1.168,1,5
56,0.0597105,1.173,1,5
57,0.0608997,1.184,1,5
58,0.0620899,1.188,1,5
59,0.0632696,1.188,1,5
60,0.0644598,1.187,1,5
61,0.0656605,1.197,1,5
62,0.0668497,1.198,1,5
63,0.0680504,1.195,1,5
64,0.0692596,1.207,1,5
65,0.0704699,1.217,1,5
66,0.0716896,1.215,1,5
67,0.0728998,1.211,1,5
68,0.07411,1.213,1,5
69,0.0753403,1.225,1,5
70,0.0765705,1.229,1,5
71,0.0777998,1.23,1,5
72,0.07903,1.233,1,5
73,0.0802698,1.238,1,5
74,0.0815105,1.239,1,5
75,0.0827398,1.239,1,5
76,0.0839901,1.247,1,5
77,0.0852404,1.251,1,5
78,0.0865002,1.255,1,5
79,0.0877504,1.257,1,5
80,0.0890198,1.262,1,5
81,0.0902805,1.263,1,5
82,0.0915403,1.261,1,5
83,0.0928097,1.272,1,5
84,0.0940905,1.279,1,5
85,0.0953703,1.281,1,5
86,0.0966501,1.277,1,5
87,0.09793,1.28,1,5
88,0.0992203,1.29,1,5
89,0.10051,1.294,1,5
90,0.10181,1.294,1,5
91,0.10311,1.297,1,5
92,0.10441,1.3,1,5
93,0.1057,1.298,1,5
94,0.10701,1.306,1,5
95,0.10832,1.312,1,5
96,0.10964,1.314,1,5
97,0.11095,1.31,1,5
98,0.11226,1.317,1,5
99,0.11358,1.321,1,5
100,0.1149,1.32,1,5
101,0.11623,1.323,1,5
102,0.11756,1.335,1,5
103,0.1189,1.334,1,5
104,0.12022,1.329,1,5
105,0.12156,1.331,1,5
106,0.1229,1.342,1,5
107,0.12425,1.347,1,5
108,0.12559,1.349,1,5
109,0.12694,1.348,1,5
110,0.12829,1.343,1,5
111,0.12963,1.348,1,5
112,0.13099,1.367,1,5
113,0.13236,1.367,1,5
114,0.13372,1.359,1,5
115,0.13507,1.363,1,5
116,0.13644,1.363,1,5
117,0.13781,1.369,1,5
118,0.13918,1.373,1,5
119,0.14055,1.373,1,5
120,0.14193,1.373,1,5
121,0.1433,1.374,1,5
122,0.14468,1.379,1,5
123,0.14606,1.385,1,5
124,0.14745,1.386,1,5
125,0.14884,1.388,1,5
126,0.15023,1.393,1,5
127,0.15162,1.393,1,5
128,0.15301,1.39,1,5
129,0.15441,1.397,1,5
130,0.15582,1.407,1,5
131,0.15722,1.408,1,5
132,0.15863,1.402,1,5
133,0.16003,1.405,1,5
134,0.16144,1.407,1,5
135,0.16285,1.415,1,5
136,0.16428,1.422,1,5
137,0.1657,1.423,1,5
138,0.16711,1.414,1,5
139,0.16853,1.418,1,5
140,0.16996,1.427,1,5
141,0.171391,1.435,1,5
142,0.17283,1.437,1,5
143,0.17426,1.436,1,5
144,0.1757,1.431,1,5
145,0.17713,1.437,1,5
146,0.17858,1.45,1,5
147,0.18004,1.455,1,5
148,0.18149,1.448,1,5
149,0.18293,1.449,1,5
150,0.18439,1.457,1,5
151,0.18585,1.462,1,5
152,0.18732,1.466,1,5
153,0.18879,1.466,1,5
154,0.19172,1.466,1,5
155,0.1932,1.479,1,5
156,0.19469,1.486,1,5
157,0.19617,1.485,1,5
158,0.19765,1.484,1,5
159,0.19914,1.485,1,5
160,0.20063,1.49,1,5
161,0.20214,1.506,1,5
162,0.20364,1.506,1,5
163,0.20515,1.504,1,5
164,0.20665,1.501,1,5
165,0.20816,1.51,1,5
166,0.20968,1.52,1,5
167,0.2112,1.527,1,5
168,0.21273,1.526,1,5
169,0.21425,1.521,1,5
170,0.21578,1.524,1,5
171,0.21731,1.536,1,5
172,0.21885,1.542,1,5
173,0.2204,1.548,1,5
174,0.221951,1.545,1,5
175,0.22349,1.541,1,5
176,0.22504,1.549,1,5
177,0.22659,1.558,1,5
178,0.22816,1.566,1,5
179,0.22972,1.565,1,5
180,0.23129,1.562,1,5
181,0.23285,1.564,1,5
182,0.23442,1.573,1,5
183,0.23601,1.584,1,5
184,0.23759,1.583,1,5
185,0.23917,1.581,1,5
186,0.24075,1.59,1,5
187,0.24234,1.59,1,5
188,0.24394,1.599,1,5
189,0.24555,1.604,1,5
190,0.24714,1.594,1,5
191,0.24874,1.598,1,5
192,0.25035,1.613,1,5
193,0.25197,1.621,1,5
194,0.25359,1.62,1,5
195,0.25521,1.616,1,5
196,0.25683,1.621,1,5
197,0.25846,1.637,1,5
198,0.26011,1.645,1,5
199,0.26175,1.639,1,5
200,0.26338,1.634,1,5
201,0.26503,1.644,1,5
202,0.26668,1.658,1,5
203,0.26835,1.667,1,5
204,0.27001,1.66,1,5
205,0.27166,1.655,1,5
206,0.27333,1.665,1,5
207,0.27501,1.677,1,5
208,0.27669,1.684,1,5
209,0.27837,1.682,1,5
210,0.28005,1.675,1,5
211,0.28173,1.682,1,5
212,0.28343,1.696,1,5
213,0.285131,1.703,1,5
214,0.28683,1.7,1,5
215,0.28853,1.695,1,5
216,0.29023,1.716,1,5
217,0.29366,1.721,1,5
218,0.29366,1.712,1,5
219,0.297091,1.714,1,5
220,0.29881,1.723,1,5
221,0.30055,1.736,1,5
222,0.30228,1.733,1,5
223,0.304,1.723,1,5
224,0.30573,1.727,1,5
225,0.30748,1.746,1,5
226,0.30923,1.751,1,5
227,0.31097,1.739,1,5
228,0.3127,1.735,1,5
229,0.31445,1.749,1,5
230,0.31622,1.768,1,5
231,0.31798,1.76,1,5
232,0.31973,1.748,1,5
233,0.32148,1.749,1,5
234,0.32325,1.771,1,5
235,0.32503,1.784,1,5
236,0.3268,1.766,1,5
237,0.32855,1.757,1,5
238,0.33032,1.771,1,5
239,0.33211,1.789,1,5
240,0.3339,1.787,1,5
241,0.33567,1.774,1,5
242,0.33745,1.774,1,5
243,0.33924,1.791,1,5
244,0.34104,1.8,1,5
245,0.34462,1.788,1,5
246,0.34641,1.795,1,5
247,0.34822,1.808,1,5
248,0.35002,1.8,1,5
249,0.35182,1.796,1,5
250,0.353621,1.806,1,5
251,0.35544,1.817,1,5
252,0.35725,1.811,1,5
253,0.35905,1.803,1,5
254,0.36086,1.81,1,5
255,0.36269,1.827,1,5
256,0.36452,1.828,1,5
257,0.36633,1.809,1,5
258,0.36814,1.81,1,5
259,0.36997,1.83,1,5
260,0.37181,1.843,1,5
261,0.37364,1.831,1,5
262,0.37545,1.813,1,5
263,0.37728,1.829,1,5
264,0.37913,1.849,1,5
265,0.38098,1.829,1,5
266,0.38463,1.829,1,5
267,0.38648,1.847,1,5
268,0.38834,1.857,1,5
269,0.39019,1.847,1,5
270,0.39202,1.835,1,5
271,0.39387,1.847,1,5
272,0.39573,1.866,1,5
273,0.39759,1.858,1,5
274,0.39944,1.846,1,5
275,0.40129,1.856,1,5
276,0.40316,1.868,1,5
277,0.40503,1.868,1,5
278,0.40689,1.86,1,5
279,0.408751,1.862,1,5
280,0.41063,1.876,1,5
281,0.4125,1.877,1,5
282,0.41438,1.87,1,5
283,0.41624,1.87,1,5
284,0.41812,1.881,1,5
285,0.42002,1.891,1,5
286,0.4219,1.881,1,5
287,0.42377,1.879,1,5
288,0.42566,1.889,1,5
289,0.42756,1.895,1,5
290,0.42945,1.896,1,5
291,0.43134,1.889,1,5
292,0.43324,1.897,1,5
293,0.43515,1.904,1,5
294,0.43705,1.904,1,5
295,0.438951,1.902,1,5
296,0.44086,1.906,1,5
297,0.44277,1.915,1,5
298,0.44468,1.911,1,5
299,0.44659,1.909,1,5
300,0.44851,1.917,1,5
301,0.45044,1.925,1,5
302,0.45236,1.924,1,5
303,0.45428,1.917,1,5
304,0.4562,1.923,1,5
305,0.45814,1.937,1,5
306,0.46007,1.935,1,5
307,0.462,1.93,1,5
308,0.46393,1.929,1,5
309,0.46587,1.941,1,5
310,0.46782,1.949,1,5
311,0.46976,1.945,1,5
312,0.4717,1.939,1,5
313,0.47365,1.944,1,5
314,0.4756,1.953,1,5
315,0.47756,1.956,1,5
316,0.47952,1.954,1,5
317,0.48343,1.955,1,5
318,0.48539,1.965,1,5
319,0.48736,1.971,1,5
320,0.48933,1.971,1,5
321,0.4913,1.966,1,5
322,0.49326,1.962,1,5
323,0.49524,1.976,1,5
324,0.49722,1.987,1,5
325,0.49921,1.983,1,5
326,0.50118,1.973,1,5
327,0.50315,1.974,1,5
328,0.50515,1.991,1,5
329,0.50714,1.998,1,5
330,0.50913,1.989,1,5
331,0.51112,1.983,1,5
332,0.51311,1.99,1,5
333,0.51511,2.001,1,5
334,0.51711,2.002,1,5
335,0.51911,1.999,1,5
336,0.5211,1.998,1,5
337,0.52311,2.006,1,5
338,0.52511,2.01,1,5
339,0.52712,2.012,1,5
340,0.52913,2.012,1,5
341,0.53114,2.008,1,5
342,0.53315,2.007,1,5
343,0.53517,2.024,1,5
344,0.53719,2.024,1,5
345,0.54122,2.016,1,5
346,0.54122,2.019,1,5
347,0.54527,2.029,1,5
348,0.5473,2.03,1,5
349,0.54932,2.022,1,5
350,0.55135,2.028,1,5
351,0.55338,2.034,1,5
352,0.55542,2.033,1,5
353,0.55745,2.034,1,5
354,0.55949,2.034,1,5
355,0.56152,2.038,1,5
356,0.56356,2.039,1,5
357,0.5656,2.04,1,5
358,0.56765,2.043,1,5
359,0.56969,2.043,1,5
360,0.57173,2.042,1,5
361,0.573771,2.045,1,5
362,0.57582,2.049,1,5
363,0.57787,2.048,1,5
364,0.57992,2.047,1,5
365,0.58197,2.051,1,5
366,0.58403,2.057,1,5
367,0.58607,2.049,1,5
368,0.58812,2.05,1,5
369,0.59018,2.06,1,5
370,0.59224,2.06,1,5
371,0.59635,2.052,1,5
372,0.5984,2.058,1,5
373,0.600471,2.062,1,5
374,0.60253,2.063,1,5
375,0.60459,2.058,1,5
376,0.60665,2.06,1,5
377,0.60871,2.064,1,5
378,0.61078,2.065,1,5
379,0.61284,2.063,1,5
380,0.6149,2.063,1,5
381,0.61697,2.064,1,5
382,0.61903,2.068,1,5
383,0.6211,2.068,1,5
384,0.62317,2.069,1,5
385,0.62524,2.064,1,5
386,0.6273,2.068,1,5
387,0.62938,2.072,1,5
388,0.63145,2.074,1,5
389,0.63352,2.068,1,5
390,0.63558,2.066,1,5
391,0.63766,2.073,1,5
392,0.63973,2.075,1,5
393,0.6418,2.072,1,5
394,0.64387,2.067,1,5
395,0.64594,2.074,1,5
396,0.64802,2.075,1,5
397,0.65009,2.07,1,5
398,0.65424,2.074,1,5
399,0.65424,2.076,1,5
400,0.65631,2.073,1,5
401,0.658381,2.073,1,5
402,0.66253,2.075,1,5
403,0.66461,2.076,1,5
404,0.66668,2.072,1,5
405,0.66876,2.077,1,5
406,0.67084,2.076,1,5
407,0.67291,2.073,1,5
408,0.67498,2.073,1,5
409,0.67914,2.077,1,5
410,0.67914,2.073,1,5
411,0.681211,2.073,1,5
412,0.68328,2.072,1,5
413,0.68536,2.081,1,5
414,0.68744,2.079,1,5
415,0.68952,2.076,1,5
416,0.69159,2.073,1,5
417,0.69367,2.082,1,5
418,0.69575,2.081,1,5
419,0.69783,2.077,1,5
420,0.69991,2.075,1,5
421,0.70199,2.082,1,5
422,0.70407,2.082,1,5
423,0.70615,2.079,1,5
424,0.70823,2.08,1,5
425,0.71031,2.081,1,5
426,0.71239,2.083,1,5
427,0.71447,2.081,1,5
428,0.71656,2.086,1,5
429,0.71864,2.081,1,5
430,0.72072,2.082,1,5
431,0.72281,2.084,1,5
432,0.7249,2.09,1,5
433,0.72698,2.085,1,5
434,0.72906,2.08,1,5
435,0.73115,2.086,1,5
436,0.73324,2.092,1,5
437,0.73533,2.091,1,5
438,0.73742,2.084,1,5
439,0.739511,2.09,1,5
440,0.7416,2.096,1,5
441,0.7437,2.094,1,5
442,0.74579,2.093,1,5
443,0.74788,2.093,1,5
444,0.75208,2.099,1,5
445,0.75418,2.101,1,5
446,0.75628,2.101,1,5
447,0.75838,2.1,1,5
448,0.76049,2.103,1,5
449,0.7626,2.109,1,5
450,0.76471,2.111,1,5
451,0.76681,2.107,1,5
452,0.76892,2.107,1,5
453,0.77103,2.115,1,5
454,0.77315,2.12,1,5
455,0.77527,2.114,1,5
456,0.77738,2.116,1,5
457,0.77951,2.123,1,5
458,0.781631,2.124,1,5
459,0.783751,2.122,1,5
460,0.78588,2.125,1,5
461,0.78801,2.129,1,5
462,0.79014,2.129,1,5
463,0.79227,2.129,1,5
464,0.7944,2.13,1,5
465,0.79653,2.136,1,5
466,0.79867,2.137,1,5
467,0.8008,2.138,1,5
468,0.80294,2.14,1,5
469,0.80508,2.14,1,5
470,0.80723,2.142,1,5
471,0.80937,2.145,1,5
472,0.81152,2.15,1,5
473,0.81367,2.146,1,5
474,0.81581,2.146,1,5
475,0.81797,2.151,1,5
476,0.82228,2.155,1,5
477,0.82443,2.155,1,5
478,0.826591,2.157,1,5
479,0.82875,2.161,1,5
480,0.83091,2.161,1,5
481,0.83308,2.164,1,5
482,0.83524,2.166,1,5
483,0.83741,2.166,1,5
484,0.83957,2.166,1,5
485,0.84174,2.167,1,5
486,0.84391,2.172,1,5
487,0.84609,2.172,1,5
488,0.84826,2.176,1,5
489,0.85044,2.177,1,5
490,0.85261,2.175,1,5
491,0.85479,2.174,1,5
492,0.85697,2.179,1,5
493,0.85915,2.181,1,5
494,0.86133,2.183,1,5
495,0.86351,2.185,1,5
496,0.8657,2.185,1,5
497,0.86789,2.187,1,5
498,0.87007,2.185,1,5
499,0.87226,2.187,1,5
500,0.87445,2.191,1,5
501,0.87664,2.191,1,5
502,0.87883,2.191,1,5
503,0.88103,2.193,1,5
504,0.88322,2.195,1,5
505,0.88542,2.196,1,5
506,0.88761,2.197,1,5
507,0.88981,2.198,1,5
508,0.89201,2.2,1,5
509,0.89421,2.203,1,5
510,0.89642,2.203,1,5
511,0.89862,2.203,1,5
512,0.90082,2.204,1,5
513,0.90303,2.206,1,5
514,0.90524,2.209,1,5
515,0.90745,2.21,1,5
516,0.90966,2.21,1,5
517,0.91187,2.213,1,5
518,0.91409,2.215,1,5
519,0.9163,2.214,1,5
520,0.91852,2.216,1,5
521,0.92074,2.221,1,5
522,0.92296,2.222,1,5
523,0.92518,2.219,1,5
524,0.9274,2.221,1,5
525,0.92963,2.226,1,5
526,0.93185,2.227,1,5
527,0.93408,2.226,1,5
528,0.93631,2.229,1,5
529,0.93854,2.231,1,5
530,0.943,2.232,1,5
531,0.94524,2.236,1,5
532,0.94748,2.236,1,5
533,0.94971,2.238,1,5
534,0.95196,2.242,1,5
535,0.9542,2.242,1,5
536,0.95644,2.243,1,5
537,0.95869,2.246,1,5
538,0.96093,2.248,1,5
539,0.963181,2.247,1,5
540,0.96543,2.248,1,5
541,0.96768,2.254,1,5
542,0.96994,2.255,1,5
543,0.97219,2.258,1,5
544,0.97671,2.261,1,5
545,0.97671,2.261,1,5
546,0.978971,2.26,1,5
547,0.98124,2.265,1,5
548,0.98351,2.268,1,5
549,0.98577,2.267,1,5
550,0.98804,2.268,1,5
551,0.99031,2.273,1,5
552,0.99259,2.275,1,5
553,0.99487,2.276,1,5
554,0.99714,2.277,1,5
555,0.99942,2.28,1,5
556,1.0017,2.282,1,5
557,1.00399,2.283,1,5
558,1.00627,2.286,1,5
559,1.00856,2.29,1,5
560,1.01085,2.287,1,5
561,1.01314,2.288,1,5
562,1.01543,2.292,1,5
563,1.01773,2.298,1,5
564,1.02002,2.294,1,5
565,1.02232,2.297,1,5
566,1.02462,2.301,1,5
567,1.02692,2.299,1,5
568,1.02922,2.3,1,5
569,1.03153,2.308,1,5
570,1.03384,2.306,1,5
571,1.03614,2.304,1,5
572,1.04076,2.31,1,5
573,1.04307,2.312,1,5
574,1.04539,2.316,1,5
575,1.0477,2.315,1,5
576,1.05002,2.314,1,5
577,1.05233,2.317,1,5
578,1.05465,2.319,1,5
579,1.05698,2.324,1,5
580,1.05929,2.319,1,5
581,1.06162,2.322,1,5
582,1.06394,2.325,1,5
583,1.06627,2.324,1,5
584,1.06859,2.327,1,5
585,1.07092,2.332,1,5
586,1.07325,2.326,1,5
587,1.07558,2.326,1,5
588,1.07791,2.328,1,5
589,1.08024,2.33,1,5
590,1.08257,2.332,1,5
591,1.0849,2.333,1,5
592,1.08723,2.332,1,5
593,1.08957,2.335,1,5
594,1.0919,2.33,1,5
595,1.09423,2.335,1,5
596,1.09657,2.335,1,5
597,1.0989,2.333,1,5
598,1.10123,2.333,1,5
599,1.10357,2.337,1,5
600,1.10591,2.337,1,5
601,1.10824,2.335,1,5
602,1.11058,2.336,1,5
603,1.11291,2.336,1,5
604,1.11525,2.337,1,5
605,1.11758,2.334,1,5
606,1.11993,2.34,1,5
607,1.12226,2.337,1,5
608,1.1246,2.338,1,5
609,1.12694,2.338,1,5
610,1.12928,2.337,1,5
611,1.13161,2.337,1,5
612,1.13395,2.337,1,5
613,1.13629,2.339,1,5
614,1.13863,2.336,1,5
615,1.1433,2.338,1,5
616,1.14564,2.339,1,5
617,1.14797,2.334,1,5
618,1.15031,2.34,1,5
619,1.15265,2.334,1,5
620,1.15498,2.332,1,5
621,1.15731,2.335,1,5
622,1.15965,2.337,1,5
623,1.16198,2.335,1,5
624,1.16432,2.333,1,5
625,1.16665,2.334,1,5
626,1.16898,2.331,1,5
627,1.17132,2.334,1,5
628,1.17365,2.331,1,5
629,1.17598,2.335,1,5
630,1.17831,2.331,1,5
631,1.18064,2.331,1,5
632,1.18297,2.329,1,5
633,1.1853,2.33,1,5
634,1.18763,2.332,1,5
635,1.18996,2.329,1,5
636,1.19229,2.329,1,5
637,1.19462,2.325,1,5
638,1.19695,2.332,1,5
639,1.19928,2.328,1,5
640,1.2016,2.326,1,5
641,1.20393,2.328,1,5
642,1.20626,2.327,1,5
643,1.20858,2.326,1,5
644,1.21091,2.324,1,5
645,1.21323,2.328,1,5
646,1.21556,2.322,1,5
647,1.21788,2.322,1,5
648,1.22021,2.325,1,5
649,1.22253,2.321,1,5
650,1.22485,2.323,1,5
651,1.22717,2.322,1,5
652,1.22949,2.32,1,5
653,1.23181,2.32,1,5
654,1.23413,2.318,1,5
655,1.23645,2.324,1,5
656,1.23877,2.317,1,5
657,1.24108,2.317,1,5
658,1.2434,2.318,1,5
659,1.24572,2.316,1,5
660,1.24804,2.317,1,5
661,1.25035,2.316,1,5
662,1.25267,2.316,1,5
663,1.25498,2.314,1,5
664,1.2573,2.313,1,5
665,1.25961,2.32,1,5
666,1.26193,2.313,1,5
667,1.26424,2.31,1,5
668,1.26655,2.313,1,5
669,1.26886,2.312,1,5
670,1.27117,2.311,1,5
671,1.27349,2.313,1,5
672,1.2758,2.31,1,5
673,1.27811,2.311,1,5
674,1.28042,2.308,1,5
675,1.28273,2.308,1,5
676,1.28504,2.312,1,5
677,1.28734,2.306,1,5
678,1.28965,2.309,1,5
679,1.29196,2.306,1,5
680,1.29657,2.304,1,5
681,1.29888,2.307,1,5
682,1.30118,2.306,1,5
683,1.30348,2.304,1,5
684,1.30579,2.305,1,5
685,1.30809,2.302,1,5
686,1.3104,2.302,1,5
687,1.31269,2.3,1,5
688,1.31499,2.3,1,5
689,1.3173,2.302,1,5
690,1.3196,2.301,1,5
691,1.3219,2.3,1,5
692,1.3242,2.302,1,5
693,1.3265,2.299,1,5
694,1.32879,2.296,1,5
695,1.33109,2.3,1,5
696,1.33339,2.299,1,5
697,1.33569,2.295,1,5
698,1.33798,2.296,1,5
699,1.34028,2.297,1,5
700,1.34257,2.293,1,5
701,1.34716,2.295,1,5
702,1.34716,2.292,1,5
703,1.35175,2.291,1,5
704,1.35175,2.295,1,5
705,1.35404,2.292,1,5
706,1.35633,2.292,1,5
707,1.35862,2.29,1,5
708,1.3632,2.29,1,5
709,1.36549,2.285,1,5
710,1.36777,2.285,1,5
711,1.37006,2.288,1,5
712,1.37235,2.288,1,5
713,1.37463,2.285,1,5
714,1.37692,2.287,1,5
715,1.37921,2.287,1,5
716,1.38149,2.281,1,5
717,1.38377,2.281,1,5
718,1.38605,2.283,1,5
719,1.38834,2.282,1,5
720,1.39061,2.279,1,5
721,1.3929,2.281,1,5
722,1.39518,2.281,1,5
723,1.39746,2.279,1,5
724,1.39973,2.279,1,5
725,1.40201,2.28,1,5
726,1.40429,2.278,1,5
727,1.40657,2.277,1,5
728,1.40885,2.276,1,5
729,1.41112,2.275,1,5
730,1.41339,2.274,1,5
731,1.41567,2.275,1,5
732,1.41794,2.273,1,5
733,1.42021,2.269,1,5
734,1.42249,2.273,1,5
735,1.42476,2.272,1,5
736,1.42703,2.27,1,5
737,1.42929,2.267,1,5
738,1.43156,2.269,1,5
739,1.43383,2.267,1,5
740,1.4361,2.267,1,5
741,1.43836,2.264,1,5
742,1.44289,2.262,1,5
743,1.44515,2.261,1,5
744,1.44741,2.261,1,5
745,1.44966,2.258,1,5
746,1.45193,2.259,1,5
747,1.45418,2.258,1,5
748,1.45644,2.258,1,5
749,1.4587,2.256,1,5
750,1.46095,2.255,1,5
751,1.46321,2.254,1,5
752,1.46546,2.255,1,5
753,1.46771,2.252,1,5
754,1.46997,2.254,1,5
755,1.47222,2.253,1,5
756,1.47447,2.252,1,5
757,1.47672,2.249,1,5
758,1.47897,2.25,1,5
759,1.48122,2.248,1,5
760,1.48347,2.249,1,5
761,1.48571,2.247,1,5
762,1.48796,2.249,1,5
763,1.49021,2.248,1,5
764,1.49246,2.247,1,5
765,1.49471,2.249,1,5
766,1.49696,2.249,1,5
767,1.4992,2.247,1,5
768,1.50145,2.244,1,5
769,1.50369,2.246,1,5
770,1.50594,2.244,1,5
771,1.50818,2.242,1,5
772,1.51042,2.242,1,5
773,1.51266,2.242,1,5
774,1.5149,2.24,1,5
775,1.51715,2.244,1,5
776,1.51939,2.241,1,5
777,1.52163,2.24,1,5
778,1.52387,2.238,1,5
779,1.5261,2.238,1,5
780,1.52834,2.236,1,5
781,1.53281,2.235,1,5
782,1.53504,2.235,1,5
783,1.53727,2.231,1,5
784,1.53951,2.233,1,5
785,1.54174,2.232,1,5
786,1.54397,2.231,1,5
787,1.5462,2.233,1,5
788,1.54844,2.233,1,5
789,1.55067,2.235,1,5
790,1.5529,2.233,1,5
791,1.55514,2.234,1,5
792,1.55961,2.234,1,5
793,1.56184,2.232,1,5
794,1.56407,2.232,1,5
795,1.5663,2.232,1,5
796,1.5663,2.229,1,5
797,1.56853,2.229,1,5
798,1.57076,2.229,1,5
799,1.57299,2.229,1,5
800,1.57522,2.227,1,5
801,1.57744,2.226,1,5
802,1.57967,2.226,1,5
803,1.58189,2.223,1,5
804,1.58411,2.224,1,5
805,1.58856,2.222,1,5
806,1.59078,2.221,1,5
807,1.593,2.221,1,5
808,1.59522,2.22,1,5
809,1.59744,2.221,1,5
810,1.59966,2.218,1,5
811,1.60188,2.219,1,5
812,1.6041,2.219,1,5
813,1.60632,2.22,1,5
814,1.60854,2.219,1,5
815,1.61075,2.217,1,5
816,1.61519,2.217,1,5
817,1.6174,2.215,1,5
818,1.61962,2.214,1,5
819,1.61962,2.214,1,5
820,1.62404,2.212,1,5
821,1.62404,2.211,1,5
822,1.62625,2.211,1,5
823,1.62846,2.209,1,5
824,1.63288,2.207,1,5
825,1.63509,2.206,1,5
826,1.63729,2.204,1,5
827,1.63949,2.203,1,5
828,1.64169,2.201,1,5
829,1.64169,2.201,1,5
830,1.64389,2.2,1,5
831,1.64609,2.197,1,5
832,1.64829,2.195,1,5
833,1.65048,2.194,1,5
834,1.65267,2.195,1,5
835,1.65487,2.192,1,5
836,1.65706,2.19,1,5
837,1.65925,2.19,1,5
838,1.66363,2.189,1,5
839,1.66581,2.188,1,5
840,1.66581,2.189,1,5
841,1.67019,2.187,1,5
842,1.67238,2.188,1,5
843,1.67457,2.187,1,5
844,1.67675,2.187,1,5
845,1.67894,2.186,1,5
846,1.68112,2.186,1,5
847,1.68331,2.187,1,5
848,1.6855,2.185,1,5
849,1.68768,2.186,1,5
850,1.68987,2.186,1,5
851,1.69205,2.183,1,5
852,1.69423,2.182,1,5
853,1.69641,2.18,1,5
854,1.69859,2.178,1,5
855,1.70295,2.175,1,5
856,1.70512,2.176,1,5
857,1.7073,2.172,1,5
858,1.70947,2.173,1,5
859,1.71164,2.169,1,5
860,1.71164,2.169,1,5
861,1.71381,2.169,1,5
862,1.71597,2.168,1,5
863,1.71814,2.167,1,5
864,1.72031,2.165,1,5
865,1.72247,2.163,1,5
866,1.72463,2.163,1,5
867,1.7268,2.162,1,5
868,1.72895,2.16,1,5
869,1.73111,2.156,1,5
870,1.73327,2.158,1,5
871,1.73542,2.155,1,5
872,1.73758,2.153,1,5
873,1.73973,2.151,1,5
874,1.74188,2.15,1,5
875,1.74403,2.149,1,5
876,1.74617,2.149,1,5
877,1.74832,2.145,1,5
878,1.75046,2.145,1,5
879,1.75261,2.142,1,5
880,1.75689,2.139,1,5
881,1.75902,2.136,1,5
882,1.76116,2.137,1,5
883,1.7633,2.136,1,5
884,1.76543,2.134,1,5
885,1.76756,2.133,1,5
886,1.7697,2.134,1,5
887,1.77183,2.134,1,5
888,1.77396,2.133,1,5
889,1.7761,2.133,1,5
890,1.78036,2.128,1,5
891,1.78036,2.128,1,5
892,1.78248,2.126,1,5
893,1.78461,2.126,1,5
894,1.78674,2.125,1,5
895,1.78886,2.122,1,5
896,1.79098,2.122,1,5
897,1.7931,2.12,1,5
898,1.79522,2.118,1,5
899,1.79734,2.12,1,5
900,1.79946,2.119,1,5
901,1.80157,2.116,1,5
902,1.80369,2.115,1,5
903,1.8058,2.114,1,5
904,1.80791,2.112,1,5
905,1.81002,2.111,1,5
906,1.81213,2.108,1,5
907,1.81424,2.107,1,5
908,1.81635,2.107,1,5
909,1.82055,2.103,1,5
910,1.82266,2.104,1,5
911,1.82476,2.101,1,5
912,1.82686,2.101,1,5
