cnt,pos,speed,Dir,Force,
1,0,1.007,1,5
2,0.0010004,0.999,1,5
3,0.00197983,0.987,1,5
4,0.00298023,0.995,1,5
5,0.00399017,1.009,1,5
6,0.00500965,1.018,1,5
7,0.00601959,1.011,1,5
8,0.00702,1.001,1,5
9,0.00802994,1.013,1,5
10,0.00905991,1.033,1,5
11,0.0101004,1.034,1,5
12,0.0111198,1.018,1,5
13,0.0121298,1.012,1,5
14,0.0131598,1.029,1,5
15,0.0142097,1.05,1,5
16,0.0152502,1.046,1,5
17,0.0162802,1.031,1,5
18,0.0173101,1.031,1,5
19,0.0183601,1.05,1,5
20,0.0194302,1.064,1,5
21,0.0204802,1.051,1,5
22,0.0215101,1.036,1,5
23,0.0225601,1.047,1,5
24,0.0236301,1.073,1,5
25,0.0247202,1.081,1,5
26,0.0257797,1.061,1,5
27,0.0268202,1.046,1,5
28,0.0278902,1.064,1,5
29,0.0289803,1.089,1,5
30,0.0300598,1.089,1,5
31,0.0311298,1.069,1,5
32,0.0321999,1.067,1,5
33,0.0332899,1.093,1,5
34,0.0344,1.107,1,5
35,0.03549,1.09,1,5
36,0.0365601,1.075,1,5
37,0.0376596,1.091,1,5
38,0.0387697,1.117,1,5
39,0.0398903,1.12,1,5
40,0.0409899,1.101,1,5
41,0.0420904,1.096,1,5
42,0.04321,1.117,1,5
43,0.0443401,1.131,1,5
44,0.0454597,1.121,1,5
45,0.0465698,1.113,1,5
46,0.0476999,1.125,1,5
47,0.0488396,1.142,1,5
48,0.0499802,1.139,1,5
49,0.0511103,1.128,1,5
50,0.0522404,1.131,1,5
51,0.05338,1.148,1,5
52,0.0545397,1.157,1,5
53,0.0556898,1.15,1,5
54,0.0568399,1.148,1,5
55,0.0579901,1.154,1,5
56,0.0591602,1.163,1,5
57,0.0603199,1.165,1,5
58,0.0614901,1.167,1,5
59,0.0626602,1.172,1,5
60,0.0638399,1.174,1,5
61,0.0650101,1.179,1,5
62,0.0662003,1.185,1,5
63,0.06738,1.186,1,5
64,0.0685701,1.185,1,5
65,0.0697603,1.19,1,5
66,0.07096,1.201,1,5
67,0.0721703,1.203,1,5
68,0.07337,1.203,1,5
69,0.0745697,1.198,1,5
70,0.0757799,1.207,1,5
71,0.0769997,1.22,1,5
72,0.0782204,1.22,1,5
73,0.0806599,1.221,1,5
74,0.0806599,1.23,1,5
75,0.0818901,1.232,1,5
76,0.0831203,1.23,1,5
77,0.0843496,1.235,1,5
78,0.0855799,1.235,1,5
79,0.0868196,1.241,1,5
80,0.0880699,1.245,1,5
81,0.0893202,1.249,1,5
82,0.0905704,1.253,1,5
83,0.0918198,1.251,1,5
84,0.09307,1.262,1,5
85,0.0943403,1.27,1,5
86,0.09688,1.272,1,5
87,0.0981398,1.263,1,5
88,0.0994196,1.273,1,5
89,0.1007,1.283,1,5
90,0.10198,1.284,1,5
91,0.10326,1.283,1,5
92,0.10455,1.288,1,5
93,0.10585,1.292,1,5
94,0.10714,1.295,1,5
95,0.10844,1.302,1,5
96,0.10975,1.308,1,5
97,0.11106,1.308,1,5
98,0.11237,1.312,1,5
99,0.11369,1.319,1,5
100,0.11501,1.324,1,5
101,0.11634,1.325,1,5
102,0.11767,1.33,1,5
103,0.11901,1.339,1,5
104,0.12035,1.344,1,5
105,0.12169,1.342,1,5
106,0.12304,1.345,1,5
107,0.12439,1.355,1,5
108,0.12575,1.36,1,5
109,0.12712,1.363,1,5
110,0.12849,1.37,1,5
111,0.12986,1.37,1,5
112,0.13123,1.374,1,5
113,0.13261,1.381,1,5
114,0.134,1.389,1,5
115,0.13539,1.388,1,5
116,0.13678,1.393,1,5
117,0.13818,1.401,1,5
118,0.13958,1.404,1,5
119,0.14099,1.403,1,5
120,0.1424,1.41,1,5
121,0.14382,1.418,1,5
122,0.14524,1.42,1,5
123,0.14666,1.422,1,5
124,0.14808,1.427,1,5
125,0.14952,1.438,1,5
126,0.15095,1.438,1,5
127,0.15384,1.445,1,5
128,0.15529,1.445,1,5
129,0.15674,1.454,1,5
130,0.15821,1.462,1,5
131,0.15967,1.463,1,5
132,0.16114,1.467,1,5
133,0.1626,1.466,1,5
134,0.16407,1.467,1,5
135,0.16555,1.482,1,5
136,0.16704,1.489,1,5
137,0.16852,1.484,1,5
138,0.17,1.482,1,5
139,0.1715,1.49,1,5
140,0.173,1.501,1,5
141,0.1745,1.507,1,5
142,0.17601,1.509,1,5
143,0.17752,1.504,1,5
144,0.17902,1.509,1,5
145,0.18055,1.522,1,5
146,0.18207,1.528,1,5
147,0.1836,1.527,1,5
148,0.18666,1.529,1,5
149,0.1882,1.538,1,5
150,0.18975,1.551,1,5
151,0.1913,1.555,1,5
152,0.19285,1.544,1,5
153,0.19439,1.547,1,5
154,0.19596,1.562,1,5
155,0.19753,1.573,1,5
156,0.1991,1.573,1,5
157,0.20067,1.565,1,5
158,0.20223,1.566,1,5
159,0.20382,1.585,1,5
160,0.20542,1.602,1,5
161,0.20702,1.594,1,5
162,0.2086,1.584,1,5
163,0.21019,1.587,1,5
164,0.21179,1.61,1,5
165,0.21342,1.627,1,5
166,0.21504,1.619,1,5
167,0.21664,1.601,1,5
168,0.21825,1.611,1,5
169,0.21989,1.633,1,5
170,0.22153,1.649,1,5
171,0.22318,1.64,1,5
172,0.2248,1.624,1,5
173,0.22643,1.632,1,5
174,0.22809,1.659,1,5
175,0.22976,1.671,1,5
176,0.23143,1.663,1,5
177,0.23307,1.649,1,5
178,0.23473,1.683,1,5
179,0.23641,1.7,1,5
180,0.23811,1.684,1,5
181,0.2398,1.67,1,5
182,0.24315,1.684,1,5
183,0.24486,1.714,1,5
184,0.24659,1.723,1,5
185,0.24829,1.702,1,5
186,0.24998,1.692,1,5
187,0.2517,1.716,1,5
188,0.25344,1.742,1,5
189,0.25518,1.743,1,5
190,0.2569,1.722,1,5
191,0.25862,1.717,1,5
192,0.26037,1.746,1,5
193,0.26214,1.774,1,5
194,0.26391,1.766,1,5
195,0.26565,1.742,1,5
196,0.2674,1.747,1,5
197,0.26918,1.782,1,5
198,0.27098,1.801,1,5
199,0.27276,1.784,1,5
200,0.27453,1.766,1,5
201,0.27631,1.784,1,5
202,0.27813,1.813,1,5
203,0.27995,1.824,1,5
204,0.28175,1.803,1,5
205,0.28355,1.797,1,5
206,0.28537,1.82,1,5
207,0.28721,1.843,1,5
208,0.28906,1.827,1,5
209,0.29088,1.831,1,5
210,0.29272,1.859,1,5
211,0.29457,1.859,1,5
212,0.29644,1.869,1,5
213,0.29831,1.864,1,5
214,0.30016,1.857,1,5
215,0.30204,1.871,1,5
216,0.30393,1.889,1,5
217,0.30581,1.89,1,5
218,0.3077,1.886,1,5
219,0.30959,1.893,1,5
220,0.3115,1.904,1,5
221,0.31341,1.914,1,5
222,0.31532,1.912,1,5
223,0.31725,1.922,1,5
224,0.31917,1.928,1,5
225,0.32111,1.933,1,5
226,0.32304,1.935,1,5
227,0.32499,1.945,1,5
228,0.32694,1.956,1,5
229,0.3289,1.958,1,5
230,0.33086,1.959,1,5
231,0.33283,1.966,1,5
232,0.33481,1.978,1,5
233,0.33679,1.988,1,5
234,0.33878,1.985,1,5
235,0.34077,1.989,1,5
236,0.34277,1.998,1,5
237,0.34477,2.006,1,5
238,0.34679,2.014,1,5
239,0.34881,2.02,1,5
240,0.35083,2.024,1,5
241,0.35285,2.024,1,5
242,0.35489,2.033,1,5
243,0.35693,2.047,1,5
244,0.35899,2.052,1,5
245,0.36104,2.051,1,5
246,0.36309,2.051,1,5
247,0.36516,2.067,1,5
248,0.36723,2.078,1,5
249,0.36931,2.079,1,5
250,0.37139,2.075,1,5
251,0.37347,2.085,1,5
252,0.37557,2.095,1,5
253,0.37767,2.101,1,5
254,0.37977,2.104,1,5
255,0.38188,2.11,1,5
256,0.384,2.114,1,5
257,0.38611,2.117,1,5
258,0.38824,2.129,1,5
259,0.39038,2.134,1,5
260,0.39251,2.134,1,5
261,0.39465,2.137,1,5
262,0.3968,2.15,1,5
263,0.39895,2.154,1,5
264,0.40111,2.155,1,5
265,0.40327,2.161,1,5
266,0.40544,2.169,1,5
267,0.40761,2.171,1,5
268,0.40978,2.175,1,5
269,0.41197,2.183,1,5
270,0.41416,2.19,1,5
271,0.41635,2.192,1,5
272,0.41854,2.194,1,5
273,0.42074,2.202,1,5
274,0.42295,2.206,1,5
275,0.42516,2.21,1,5
276,0.42737,2.215,1,5
277,0.42959,2.219,1,5
278,0.43181,2.221,1,5
279,0.43404,2.226,1,5
280,0.43627,2.234,1,5
281,0.43851,2.233,1,5
282,0.44074,2.236,1,5
283,0.44299,2.247,1,5
284,0.44524,2.249,1,5
285,0.44749,2.248,1,5
286,0.44974,2.251,1,5
287,0.45199,2.259,1,5
288,0.45426,2.261,1,5
289,0.45652,2.263,1,5
290,0.45879,2.267,1,5
291,0.46106,2.272,1,5
292,0.46333,2.274,1,5
293,0.4656,2.283,1,5
294,0.47017,2.286,1,5
295,0.47017,2.285,1,5
296,0.47246,2.285,1,5
297,0.47475,2.293,1,5
298,0.47704,2.293,1,5
299,0.47933,2.296,1,5
300,0.48163,2.303,1,5
301,0.48394,2.303,1,5
302,0.48624,2.301,1,5
303,0.48855,2.307,1,5
304,0.49086,2.316,1,5
305,0.49318,2.315,1,5
306,0.49549,2.313,1,5
307,0.49781,2.321,1,5
308,0.50014,2.325,1,5
309,0.50246,2.327,1,5
310,0.50479,2.325,1,5
311,0.50712,2.335,1,5
312,0.50946,2.335,1,5
313,0.51179,2.334,1,5
314,0.51413,2.339,1,5
315,0.51648,2.345,1,5
316,0.51882,2.345,1,5
317,0.52117,2.347,1,5
318,0.52352,2.35,1,5
319,0.52587,2.353,1,5
320,0.52823,2.36,1,5
321,0.53059,2.357,1,5
322,0.53531,2.362,1,5
323,0.53767,2.366,1,5
324,0.54004,2.371,1,5
325,0.54241,2.367,1,5
326,0.54478,2.372,1,5
327,0.54716,2.378,1,5
328,0.54954,2.375,1,5
329,0.55192,2.382,1,5
330,0.5543,2.384,1,5
331,0.55669,2.385,1,5
332,0.55907,2.385,1,5
333,0.56146,2.395,1,5
334,0.56385,2.395,1,5
335,0.56625,2.396,1,5
336,0.56864,2.393,1,5
337,0.57104,2.395,1,5
338,0.57344,2.4,1,5
339,0.57584,2.4,1,5
340,0.57824,2.403,1,5
341,0.58064,2.403,1,5
342,0.58305,2.402,1,5
343,0.58545,2.407,1,5
344,0.58786,2.408,1,5
345,0.59027,2.406,1,5
346,0.59268,2.409,1,5
347,0.59509,2.41,1,5
348,0.59749,2.41,1,5
349,0.59991,2.413,1,5
350,0.60232,2.415,1,5
351,0.60473,2.412,1,5
352,0.60714,2.412,1,5
353,0.60956,2.415,1,5
354,0.61197,2.415,1,5
355,0.61439,2.417,1,5
356,0.61681,2.416,1,5
357,0.61922,2.413,1,5
358,0.62163,2.415,1,5
359,0.62647,2.417,1,5
360,0.62888,2.413,1,5
361,0.6313,2.413,1,5
362,0.63371,2.417,1,5
363,0.63613,2.415,1,5
364,0.63854,2.414,1,5
365,0.64096,2.415,1,5
366,0.64337,2.412,1,5
367,0.64578,2.413,1,5
368,0.6482,2.412,1,5
369,0.65061,2.412,1,5
370,0.65302,2.41,1,5
371,0.65542,2.406,1,5
372,0.65783,2.407,1,5
373,0.66024,2.406,1,5
374,0.66265,2.408,1,5
375,0.66505,2.403,1,5
376,0.66745,2.4,1,5
377,0.66985,2.4,1,5
378,0.67225,2.403,1,5
379,0.67465,2.397,1,5
380,0.67704,2.397,1,5
381,0.67944,2.397,1,5
382,0.68183,2.392,1,5
383,0.68422,2.39,1,5
384,0.68662,2.394,1,5
385,0.68901,2.39,1,5
386,0.69139,2.387,1,5
387,0.69378,2.385,1,5
388,0.69616,2.386,1,5
389,0.69855,2.386,1,5
390,0.70093,2.381,1,5
391,0.70331,2.381,1,5
392,0.70569,2.381,1,5
393,0.70807,2.376,1,5
394,0.71045,2.377,1,5
395,0.71282,2.377,1,5
396,0.71519,2.372,1,5
397,0.71757,2.374,1,5
398,0.71994,2.369,1,5
399,0.72468,2.37,1,5
400,0.72705,2.371,1,5
401,0.72942,2.366,1,5
402,0.73178,2.361,1,5
403,0.73414,2.367,1,5
404,0.73651,2.365,1,5
405,0.73887,2.361,1,5
406,0.74123,2.361,1,5
407,0.74359,2.362,1,5
408,0.74595,2.36,1,5
409,0.74831,2.357,1,5
410,0.75067,2.36,1,5
411,0.75303,2.358,1,5
412,0.75539,2.362,1,5
413,0.75774,2.355,1,5
414,0.7601,2.359,1,5
415,0.76246,2.356,1,5
416,0.76482,2.359,1,5
417,0.76718,2.357,1,5
418,0.76953,2.358,1,5
419,0.77189,2.357,1,5
420,0.77425,2.36,1,5
421,0.77661,2.36,1,5
422,0.77897,2.357,1,5
423,0.78133,2.363,1,5
424,0.78605,2.362,1,5
425,0.78605,2.36,1,5
426,0.79078,2.366,1,5
427,0.79078,2.364,1,5
428,0.7955,2.364,1,5
429,0.79787,2.367,1,5
430,0.80024,2.367,1,5
431,0.80261,2.372,1,5
432,0.80498,2.368,1,5
433,0.80735,2.372,1,5
434,0.80973,2.374,1,5
435,0.8121,2.375,1,5
436,0.81448,2.379,1,5
437,0.81686,2.375,1,5
438,0.81924,2.381,1,5
439,0.82162,2.384,1,5
440,0.824,2.38,1,5
441,0.82639,2.386,1,5
442,0.82877,2.389,1,5
443,0.83116,2.388,1,5
444,0.83355,2.389,1,5
445,0.83595,2.394,1,5
446,0.83834,2.396,1,5
447,0.84074,2.398,1,5
448,0.84314,2.396,1,5
449,0.84554,2.401,1,5
450,0.84794,2.405,1,5
451,0.85035,2.407,1,5
452,0.85276,2.406,1,5
453,0.85517,2.409,1,5
454,0.85758,2.41,1,5
455,0.85999,2.415,1,5
456,0.8624,2.413,1,5
457,0.86482,2.417,1,5
458,0.86724,2.421,1,5
459,0.86966,2.421,1,5
460,0.87208,2.416,1,5
461,0.8745,2.423,1,5
462,0.87935,2.427,1,5
463,0.88178,2.424,1,5
464,0.88421,2.431,1,5
465,0.88664,2.431,1,5
466,0.88907,2.431,1,5
467,0.89151,2.436,1,5
468,0.89394,2.436,1,5
469,0.89638,2.435,1,5
470,0.89882,2.439,1,5
471,0.90126,2.44,1,5
472,0.9037,2.441,1,5
473,0.90615,2.448,1,5
474,0.90859,2.445,1,5
475,0.91103,2.442,1,5
476,0.91348,2.449,1,5
477,0.91594,2.455,1,5
478,0.91839,2.451,1,5
479,0.92084,2.45,1,5
480,0.9233,2.457,1,5
481,0.92576,2.46,1,5
482,0.92821,2.456,1,5
483,0.93067,2.461,1,5
484,0.93314,2.463,1,5
485,0.9356,2.464,1,5
486,0.93806,2.469,1,5
487,0.943,2.469,1,5
488,0.94547,2.472,1,5
489,0.94795,2.473,1,5
490,0.95043,2.477,1,5
491,0.9529,2.479,1,5
492,0.95538,2.479,1,5
493,0.95786,2.481,1,5
494,0.96035,2.485,1,5
495,0.96284,2.489,1,5
496,0.96533,2.489,1,5
497,0.96782,2.494,1,5
498,0.97031,2.498,1,5
499,0.97281,2.498,1,5
500,0.97531,2.499,1,5
501,0.97781,2.503,1,5
502,0.98032,2.506,1,5
503,0.98283,2.509,1,5
504,0.98534,2.512,1,5
505,0.98786,2.516,1,5
506,0.99038,2.518,1,5
507,0.9929,2.519,1,5
508,0.99542,2.524,1,5
509,0.99795,2.526,1,5
510,1.00048,2.531,1,5
511,1.00301,2.535,1,5
512,1.00555,2.537,1,5
513,1.00809,2.539,1,5
514,1.01063,2.545,1,5
515,1.01318,2.546,1,5
516,1.01573,2.549,1,5
517,1.01828,2.556,1,5
518,1.02084,2.557,1,5
519,1.0234,2.56,1,5
520,1.02597,2.568,1,5
521,1.02854,2.569,1,5
522,1.03111,2.57,1,5
523,1.03369,2.58,1,5
524,1.03627,2.582,1,5
525,1.03886,2.586,1,5
526,1.04145,2.591,1,5
527,1.04404,2.593,1,5
528,1.04664,2.602,1,5
529,1.04925,2.608,1,5
530,1.05186,2.614,1,5
531,1.05447,2.625,1,5
532,1.0571,2.625,1,5
533,1.05972,2.626,1,5
534,1.06235,2.631,1,5
535,1.06764,2.643,1,5
536,1.07028,2.646,1,5
537,1.07294,2.66,1,5
538,1.0756,2.658,1,5
539,1.07826,2.665,1,5
540,1.08094,2.675,1,5
541,1.08362,2.678,1,5
542,1.0863,2.683,1,5
543,1.08899,2.691,1,5
544,1.09169,2.696,1,5
545,1.09439,2.703,1,5
546,1.0971,2.711,1,5
547,1.09982,2.713,1,5
548,1.10254,2.721,1,5
549,1.10527,2.73,1,5
550,1.108,2.734,1,5
551,1.11074,2.742,1,5
552,1.11349,2.747,1,5
553,1.11624,2.75,1,5
554,1.119,2.762,1,5
555,1.12177,2.768,1,5
556,1.12454,2.772,1,5
557,1.12732,2.778,1,5
558,1.1329,2.791,1,5
559,1.1357,2.8,1,5
560,1.1385,2.803,1,5
561,1.14131,2.809,1,5
562,1.14412,2.816,1,5
563,1.14695,2.826,1,5
564,1.14978,2.827,1,5
565,1.15261,2.835,1,5
566,1.15545,2.837,1,5
567,1.1583,2.848,1,5
568,1.16115,2.854,1,5
569,1.16401,2.857,1,5
570,1.16687,2.862,1,5
571,1.16974,2.868,1,5
572,1.17261,2.879,1,5
573,1.17549,2.879,1,5
574,1.17837,2.885,1,5
575,1.18126,2.888,1,5
576,1.18416,2.896,1,5
577,1.18706,2.9,1,5
578,1.18997,2.906,1,5
579,1.19287,2.91,1,5
580,1.19579,2.916,1,5
581,1.19871,2.925,1,5
582,1.20163,2.931,1,5
583,1.20457,2.931,1,5
584,1.2075,2.935,1,5
585,1.21044,2.938,1,5
586,1.21338,2.944,1,5
587,1.21633,2.952,1,5
588,1.21929,2.953,1,5
589,1.22224,2.955,1,5
590,1.2252,2.96,1,5
591,1.22817,2.965,1,5
592,1.23114,2.973,1,5
593,1.23411,2.974,1,5
594,1.23709,2.979,1,5
595,1.24008,2.982,1,5
596,1.24306,2.987,1,5
597,1.24606,2.996,1,5
598,1.24905,2.997,1,5
599,1.25206,3.001,1,5
600,1.25506,3.005,1,5
601,1.25807,3.006,1,5
602,1.26108,3.017,1,5
603,1.26713,3.026,1,5
604,1.27016,3.028,1,5
605,1.27016,3.032,1,5
606,1.27319,3.036,1,5
607,1.27623,3.036,1,5
608,1.28231,3.043,1,5
609,1.28536,3.046,1,5
610,1.28841,3.049,1,5
611,1.29147,3.059,1,5
612,1.29453,3.064,1,5
613,1.2976,3.063,1,5
614,1.30066,3.066,1,5
615,1.30373,3.069,1,5
616,1.30681,3.074,1,5
617,1.30989,3.08,1,5
618,1.31297,3.083,1,5
619,1.31605,3.082,1,5
620,1.31914,3.088,1,5
621,1.32223,3.092,1,5
622,1.32533,3.099,1,5
623,1.32843,3.1,1,5
624,1.33153,3.101,1,5
625,1.33463,3.104,1,5
626,1.33774,3.11,1,5
627,1.34086,3.115,1,5
628,1.34398,3.118,1,5
629,1.3471,3.12,1,5
630,1.35022,3.123,1,5
631,1.35334,3.125,1,5
632,1.35648,3.135,1,5
633,1.35962,3.135,1,5
634,1.36275,3.137,1,5
635,1.36589,3.139,1,5
636,1.36903,3.141,1,5
637,1.37218,3.152,1,5
638,1.37534,3.155,1,5
639,1.37849,3.153,1,5
640,1.38165,3.153,1,5
641,1.3848,3.158,1,5
642,1.38797,3.168,1,5
643,1.39431,3.173,1,5
644,1.39748,3.17,1,5
645,1.40066,3.177,1,5
646,1.40384,3.182,1,5
647,1.40703,3.188,1,5
648,1.41022,3.187,1,5
649,1.41341,3.191,1,5
650,1.4166,3.195,1,5
651,1.4198,3.201,1,5
652,1.42301,3.204,1,5
653,1.42621,3.202,1,5
654,1.42942,3.209,1,5
655,1.43263,3.211,1,5
656,1.43584,3.217,1,5
657,1.43906,3.219,1,5
658,1.44228,3.22,1,5
659,1.44551,3.223,1,5
660,1.44873,3.229,1,5
661,1.45197,3.233,1,5
662,1.4552,3.233,1,5
663,1.45844,3.236,1,5
664,1.46168,3.239,1,5
665,1.46492,3.247,1,5
666,1.46817,3.249,1,5
667,1.47142,3.252,1,5
668,1.47468,3.253,1,5
669,1.47793,3.258,1,5
670,1.4812,3.262,1,5
671,1.48446,3.265,1,5
672,1.48773,3.269,1,5
673,1.491,3.27,1,5
674,1.49427,3.272,1,5
675,1.49755,3.28,1,5
676,1.50083,3.28,1,5
677,1.50412,3.282,1,5
678,1.5074,3.281,1,5
679,1.51068,3.285,1,5
680,1.51397,3.29,1,5
681,1.51726,3.292,1,5
682,1.52056,3.294,1,5
683,1.52385,3.294,1,5
684,1.52715,3.298,1,5
685,1.53045,3.301,1,5
686,1.53375,3.303,1,5
687,1.53706,3.305,1,5
688,1.54036,3.303,1,5
689,1.54367,3.306,1,5
690,1.54698,3.312,1,5
691,1.55029,3.314,1,5
692,1.55361,3.314,1,5
693,1.55692,3.313,1,5
694,1.56024,3.318,1,5
695,1.56356,3.318,1,5
696,1.56688,3.321,1,5
697,1.5702,3.321,1,5
698,1.57352,3.323,1,5
699,1.57685,3.325,1,5
700,1.58017,3.326,1,5
701,1.5835,3.327,1,5
702,1.58683,3.329,1,5
703,1.59016,3.33,1,5
704,1.59349,3.332,1,5
705,1.59682,3.331,1,5
706,1.60015,3.333,1,5
707,1.60349,3.334,1,5
708,1.60683,3.338,1,5
709,1.6135,3.34,1,5
710,1.6135,3.34,1,5
711,1.62018,3.34,1,5
712,1.62018,3.345,1,5
713,1.62353,3.346,1,5
714,1.62687,3.346,1,5
715,1.63356,3.344,1,5
716,1.63691,3.35,1,5
717,1.64027,3.353,1,5
718,1.64362,3.351,1,5
719,1.64697,3.352,1,5
720,1.65032,3.353,1,5
721,1.65368,3.355,1,5
722,1.65703,3.356,1,5
723,1.66039,3.358,1,5
724,1.66375,3.36,1,5
725,1.66711,3.36,1,5
726,1.67048,3.363,1,5
727,1.67384,3.362,1,5
728,1.6772,3.365,1,5
729,1.68057,3.366,1,5
730,1.68394,3.369,1,5
731,1.68731,3.368,1,5
732,1.69068,3.37,1,5
733,1.69405,3.371,1,5
734,1.69742,3.375,1,5
735,1.7008,3.376,1,5
736,1.70417,3.375,1,5
737,1.70755,3.378,1,5
738,1.71093,3.379,1,5
739,1.71431,3.381,1,5
740,1.71769,3.382,1,5
741,1.72108,3.383,1,5
742,1.72446,3.384,1,5
743,1.72785,3.385,1,5
744,1.73123,3.385,1,5
745,1.73462,3.391,1,5
746,1.73801,3.389,1,5
747,1.7414,3.391,1,5
748,1.74479,3.391,1,5
749,1.74819,3.396,1,5
750,1.75159,3.397,1,5
751,1.75838,3.397,1,5
752,1.75838,3.397,1,5
753,1.76178,3.403,1,5
754,1.76519,3.403,1,5
755,1.76859,3.402,1,5
756,1.77199,3.406,1,5
757,1.77881,3.409,1,5
758,1.78223,3.416,1,5
759,1.78564,3.412,1,5
760,1.78905,3.414,1,5
761,1.79247,3.418,1,5
762,1.79589,3.421,1,5
763,1.79931,3.423,1,5
764,1.80274,3.423,1,5
765,1.80616,3.424,1,5
766,1.80959,3.431,1,5
767,1.81302,3.432,1,5
768,1.81646,3.436,1,5
769,1.8199,3.438,1,5
770,1.82333,3.435,1,5
771,1.82677,3.441,1,5
772,1.83022,3.447,1,5
773,1.83367,3.451,1,5
774,1.83712,3.451,1,5
775,1.84057,3.453,1,5
776,1.84403,3.457,1,5
777,1.84749,3.463,1,5
778,1.85096,3.466,1,5
779,1.85443,3.467,1,5
780,1.8579,3.47,1,5
781,1.86137,3.471,1,5
782,1.86485,3.477,1,5
783,1.86832,3.479,1,5
784,1.87181,3.482,1,5
785,1.87529,3.486,1,5
786,1.87878,3.485,1,5
787,1.88227,3.491,1,5
788,1.88577,3.497,1,5
789,1.88927,3.5,1,5
790,1.89277,3.502,1,5
791,1.89627,3.506,1,5
792,1.89978,3.51,1,5
793,1.9033,3.517,1,5
794,1.90682,3.518,1,5
795,1.91034,3.518,1,5
796,1.91386,3.525,1,5
797,1.91739,3.528,1,5
798,1.92093,3.536,1,5
799,1.92446,3.537,1,5
800,1.928,3.538,1,5
801,1.93154,3.542,1,5
802,1.93509,3.548,1,5
803,1.93864,3.551,1,5
804,1.94219,3.551,1,5
805,1.94575,3.557,1,5
806,1.94931,3.56,1,5
807,1.95288,3.564,1,5
808,1.95644,3.566,1,5
809,1.96001,3.57,1,5
810,1.96358,3.573,1,5
811,1.96716,3.576,1,5
812,1.97074,3.581,1,5
813,1.97433,3.584,1,5
814,1.97791,3.589,1,5
815,1.9815,3.59,1,5
816,1.9851,3.595,1,5
817,1.9887,3.599,1,5
818,1.9923,3.603,1,5
819,1.9959,3.602,1,5
820,1.99951,3.606,1,5
821,2.00312,3.612,1,5
822,2.00673,3.614,1,5
823,2.01035,3.617,1,5
824,2.01397,3.618,1,5
825,2.01759,3.625,1,5
826,2.02122,3.623,1,5
827,2.02847,3.629,1,5
828,2.02847,3.637,1,5
829,2.03575,3.64,1,5
830,2.03939,3.642,1,5
831,2.04303,3.641,1,5
832,2.04668,3.645,1,5
833,2.05033,3.648,1,5
834,2.05398,3.655,1,5
835,2.05763,3.654,1,5
836,2.06129,3.657,1,5
837,2.06495,3.661,1,5
838,2.06861,3.662,1,5
839,2.07228,3.666,1,5
840,2.07595,3.668,1,5
841,2.07962,3.671,1,5
842,2.08329,3.669,1,5
843,2.08697,3.677,1,5
844,2.09064,3.679,1,5
845,2.09433,3.684,1,5
846,2.09801,3.683,1,5
847,2.1017,3.689,1,5
848,2.10539,3.688,1,5
849,2.10908,3.693,1,5
850,2.11278,3.698,1,5
851,2.11648,3.7,1,5
852,2.12018,3.704,1,5
853,2.12389,3.707,1,5
854,2.1276,3.709,1,5
855,2.13131,3.713,1,5
856,2.13503,3.713,1,5
857,2.13875,3.719,1,5
858,2.14247,3.72,1,5
859,2.14619,3.726,1,5
860,2.14992,3.725,1,5
861,2.15365,3.729,1,5
862,2.15737,3.728,1,5
863,2.16111,3.733,1,5
864,2.16484,3.735,1,5
865,2.16858,3.74,1,5
866,2.17232,3.737,1,5
867,2.17606,3.74,1,5
868,2.1798,3.746,1,5
869,2.18355,3.75,1,5
870,2.1873,3.751,1,5
871,2.19105,3.749,1,5
872,2.19481,3.756,1,5
873,2.19856,3.755,1,5
874,2.20233,3.761,1,5
875,2.20609,3.764,1,5
876,2.21362,3.763,1,5
877,2.21738,3.766,1,5
878,2.22115,3.769,1,5
879,2.22492,3.774,1,5
880,2.2287,3.772,1,5
881,2.23247,3.771,1,5
882,2.23624,3.773,1,5
883,2.24002,3.778,1,5
884,2.2438,3.78,1,5
885,2.24758,3.779,1,5
886,2.25136,3.78,1,5
887,2.25514,3.779,1,5
888,2.25892,3.787,1,5
889,2.26271,3.79,1,5
890,2.2665,3.787,1,5
891,2.27029,3.786,1,5
892,2.27408,3.789,1,5
893,2.27787,3.79,1,5
894,2.28166,3.793,1,5
895,2.28545,3.793,1,5
896,2.28925,3.794,1,5
897,2.29304,3.793,1,5
898,2.29684,3.797,1,5
899,2.30064,3.8,1,5
900,2.30444,3.799,1,5
901,2.30823,3.798,1,5
902,2.31203,3.8,1,5
903,2.31584,3.804,1,5
904,2.31965,3.808,1,5
905,2.32345,3.808,1,5
906,2.32726,3.806,1,5
907,2.33107,3.807,1,5
908,2.33488,3.81,1,5
909,2.33869,3.814,1,5
910,2.34251,3.816,1,5
911,2.34633,3.819,1,5
912,2.35015,3.819,1,5
913,2.35396,3.819,1,5
914,2.35779,3.821,1,5
915,2.36161,3.824,1,5
