cnt,pos,speed,Dir,Force,
1,0,1.007,1,5
2,0.000999451,1.001,1,5
3,0.00198936,0.989,1,5
4,0.00298882,0.994,1,5
5,0.00399971,1.013,1,5
6,0.00502968,1.026,1,5
7,0.00603867,1.016,1,5
8,0.00703812,1,1,5
9,0.00804901,1.006,1,5
10,0.00907898,1.032,1,5
11,0.0101299,1.047,1,5
12,0.0111599,1.033,1,5
13,0.0121784,1.016,1,5
14,0.0131989,1.023,1,5
15,0.0142498,1.045,1,5
16,0.0153084,1.061,1,5
17,0.0163498,1.049,1,5
18,0.0173893,1.033,1,5
19,0.0184288,1.042,1,5
20,0.0194988,1.066,1,5
21,0.0205688,1.077,1,5
22,0.0216293,1.062,1,5
23,0.0226784,1.048,1,5
24,0.0237484,1.064,1,5
25,0.0248299,1.086,1,5
26,0.0259285,1.092,1,5
27,0.02701,1.081,1,5
28,0.02808,1.073,1,5
29,0.0291595,1.082,1,5
30,0.0302582,1.099,1,5
31,0.0313587,1.102,1,5
32,0.0324593,1.098,1,5
33,0.0335598,1.099,1,5
34,0.0346699,1.106,1,5
35,0.03578,1.112,1,5
36,0.0368881,1.115,1,5
37,0.0380096,1.115,1,5
38,0.0391197,1.116,1,5
39,0.0402393,1.119,1,5
40,0.0413685,1.126,1,5
41,0.0425091,1.138,1,5
42,0.0436497,1.139,1,5
43,0.0447788,1.13,1,5
44,0.0458984,1.127,1,5
45,0.047039,1.139,1,5
46,0.0481987,1.155,1,5
47,0.0493584,1.159,1,5
48,0.0505085,1.147,1,5
49,0.0516491,1.147,1,5
50,0.0528088,1.157,1,5
51,0.0539799,1.167,1,5
52,0.0551395,1.166,1,5
53,0.0563087,1.164,1,5
54,0.0574799,1.171,1,5
55,0.0586586,1.179,1,5
56,0.0598392,1.181,1,5
57,0.0610199,1.178,1,5
58,0.0621986,1.181,1,5
59,0.0633793,1.184,1,5
60,0.0645695,1.19,1,5
61,0.0657692,1.198,1,5
62,0.0669689,1.204,1,5
63,0.0681686,1.196,1,5
64,0.0693588,1.192,1,5
65,0.0705585,1.199,1,5
66,0.0717697,1.215,1,5
67,0.0729885,1.219,1,5
68,0.0742092,1.216,1,5
69,0.0754185,1.209,1,5
70,0.0766296,1.217,1,5
71,0.0778599,1.221,1,5
72,0.0790787,1.226,1,5
73,0.0803185,1.234,1,5
74,0.0815487,1.237,1,5
75,0.0827885,1.234,1,5
76,0.0840187,1.232,1,5
77,0.0852585,1.241,1,5
78,0.0865097,1.248,1,5
79,0.087759,1.252,1,5
80,0.0890083,1.251,1,5
81,0.0902691,1.256,1,5
82,0.0915298,1.258,1,5
83,0.0927792,1.258,1,5
84,0.0940399,1.262,1,5
85,0.0953083,1.268,1,5
86,0.0965881,1.276,1,5
87,0.0978584,1.272,1,5
88,0.0991383,1.276,1,5
89,0.10042,1.28,1,5
90,0.1017,1.28,1,5
91,0.10298,1.282,1,5
92,0.104269,1.294,1,5
93,0.10557,1.297,1,5
94,0.106859,1.294,1,5
95,0.108158,1.295,1,5
96,0.109459,1.3,1,5
97,0.110769,1.308,1,5
98,0.11208,1.313,1,5
99,0.1134,1.316,1,5
100,0.11471,1.316,1,5
101,0.11603,1.316,1,5
102,0.11735,1.32,1,5
103,0.118679,1.333,1,5
104,0.12002,1.339,1,5
105,0.121359,1.336,1,5
106,0.122688,1.335,1,5
107,0.124029,1.337,1,5
108,0.125368,1.343,1,5
109,0.126719,1.352,1,5
110,0.128078,1.36,1,5
111,0.129438,1.361,1,5
112,0.130798,1.353,1,5
113,0.132149,1.357,1,5
114,0.133518,1.369,1,5
115,0.134899,1.377,1,5
116,0.136278,1.379,1,5
117,0.137659,1.38,1,5
118,0.13904,1.381,1,5
119,0.140419,1.384,1,5
120,0.141809,1.393,1,5
121,0.143219,1.402,1,5
122,0.144619,1.403,1,5
123,0.146019,1.401,1,5
124,0.147429,1.408,1,5
125,0.14884,1.411,1,5
126,0.150259,1.417,1,5
127,0.15168,1.425,1,5
128,0.153109,1.43,1,5
129,0.154539,1.429,1,5
130,0.15597,1.439,1,5
131,0.15741,1.439,1,5
132,0.15885,1.451,1,5
133,0.160299,1.451,1,5
134,0.161758,1.45,1,5
135,0.16321,1.455,1,5
136,0.166128,1.47,1,5
137,0.166128,1.477,1,5
138,0.167608,1.476,1,5
139,0.169088,1.477,1,5
140,0.170559,1.477,1,5
141,0.172039,1.478,1,5
142,0.173529,1.486,1,5
143,0.17503,1.501,1,5
144,0.176529,1.506,1,5
145,0.17803,1.501,1,5
146,0.179529,1.495,1,5
147,0.18104,1.508,1,5
148,0.18256,1.518,1,5
149,0.18409,1.533,1,5
150,0.185619,1.528,1,5
151,0.18714,1.521,1,5
152,0.18866,1.52,1,5
153,0.190199,1.54,1,5
154,0.19175,1.553,1,5
155,0.19331,1.556,1,5
156,0.194859,1.548,1,5
157,0.196388,1.539,1,5
158,0.197948,1.556,1,5
159,0.19953,1.579,1,5
160,0.201109,1.583,1,5
161,0.202679,1.569,1,5
162,0.204248,1.565,1,5
163,0.205818,1.575,1,5
164,0.207418,1.598,1,5
165,0.209029,1.606,1,5
166,0.210619,1.592,1,5
167,0.212199,1.58,1,5
168,0.213799,1.597,1,5
169,0.215409,1.619,1,5
170,0.217039,1.626,1,5
171,0.218649,1.613,1,5
172,0.220249,1.6,1,5
173,0.221869,1.616,1,5
174,0.223509,1.643,1,5
175,0.225159,1.648,1,5
176,0.226789,1.63,1,5
177,0.228409,1.621,1,5
178,0.230049,1.637,1,5
179,0.231719,1.666,1,5
180,0.233389,1.671,1,5
181,0.235039,1.651,1,5
182,0.236679,1.641,1,5
183,0.238339,1.66,1,5
184,0.240019,1.686,1,5
185,0.241719,1.693,1,5
186,0.243389,1.672,1,5
187,0.245049,1.663,1,5
188,0.246739,1.684,1,5
189,0.248439,1.707,1,5
190,0.250149,1.71,1,5
191,0.251849,1.693,1,5
192,0.253529,1.687,1,5
193,0.255239,1.732,1,5
194,0.256969,1.724,1,5
195,0.260409,1.714,1,5
196,0.262129,1.717,1,5
197,0.263869,1.738,1,5
198,0.265619,1.749,1,5
199,0.267359,1.74,1,5
200,0.269089,1.735,1,5
201,0.270839,1.746,1,5
202,0.272599,1.763,1,5
203,0.274369,1.768,1,5
204,0.276129,1.758,1,5
205,0.277889,1.759,1,5
206,0.279659,1.779,1,5
207,0.281449,1.788,1,5
208,0.283239,1.785,1,5
209,0.285019,1.779,1,5
210,0.286809,1.791,1,5
211,0.28861,1.805,1,5
212,0.290419,1.803,1,5
213,0.292229,1.803,1,5
214,0.295849,1.817,1,5
215,0.297679,1.829,1,5
216,0.29952,1.834,1,5
217,0.301349,1.833,1,5
218,0.303189,1.838,1,5
219,0.305029,1.842,1,5
220,0.306879,1.85,1,5
221,0.308739,1.863,1,5
222,0.310609,1.867,1,5
223,0.312479,1.866,1,5
224,0.314339,1.864,1,5
225,0.316219,1.876,1,5
226,0.31811,1.894,1,5
227,0.320009,1.898,1,5
228,0.321899,1.893,1,5
229,0.323789,1.889,1,5
230,0.325689,1.904,1,5
231,0.327609,1.922,1,5
232,0.329539,1.925,1,5
233,0.331459,1.919,1,5
234,0.333379,1.918,1,5
235,0.335309,1.932,1,5
236,0.337259,1.946,1,5
237,0.339209,1.951,1,5
238,0.341159,1.951,1,5
239,0.343109,1.949,1,5
240,0.345069,1.958,1,5
241,0.347029,1.97,1,5
242,0.34901,1.979,1,5
243,0.350989,1.981,1,5
244,0.352969,1.978,1,5
245,0.354949,1.983,1,5
246,0.356949,1.997,1,5
247,0.358959,2.009,1,5
248,0.360969,2.009,1,5
249,0.362979,2.006,1,5
250,0.364989,2.024,1,5
251,0.367009,2.034,1,5
252,0.369049,2.035,1,5
253,0.373119,2.039,1,5
254,0.375169,2.047,1,5
255,0.377209,2.048,1,5
256,0.379269,2.058,1,5
257,0.381339,2.064,1,5
258,0.38341,2.072,1,5
259,0.385479,2.072,1,5
260,0.387559,2.077,1,5
261,0.389639,2.085,1,5
262,0.391739,2.094,1,5
263,0.393829,2.097,1,5
264,0.395929,2.101,1,5
265,0.398039,2.106,1,5
266,0.400149,2.111,1,5
267,0.402269,2.118,1,5
268,0.404399,2.127,1,5
269,0.406529,2.132,1,5
270,0.408659,2.132,1,5
271,0.410799,2.135,1,5
272,0.412939,2.146,1,5
273,0.415089,2.153,1,5
274,0.417249,2.155,1,5
275,0.419409,2.157,1,5
276,0.421569,2.167,1,5
277,0.423749,2.172,1,5
278,0.42592,2.177,1,5
279,0.428099,2.179,1,5
280,0.430289,2.187,1,5
281,0.432479,2.199,1,5
282,0.434679,2.199,1,5
283,0.439089,2.206,1,5
284,0.439089,2.213,1,5
285,0.441299,2.219,1,5
286,0.443519,2.219,1,5
287,0.447969,2.224,1,5
288,0.450199,2.232,1,5
289,0.452439,2.239,1,5
290,0.454679,2.244,1,5
291,0.456919,2.243,1,5
292,0.459179,2.251,1,5
293,0.461429,2.257,1,5
294,0.463699,2.264,1,5
295,0.465959,2.261,1,5
296,0.468229,2.271,1,5
297,0.470499,2.277,1,5
298,0.472779,2.278,1,5
299,0.47506,2.278,1,5
300,0.477349,2.287,1,5
301,0.479639,2.291,1,5
302,0.481929,2.295,1,5
303,0.484229,2.298,1,5
304,0.486529,2.301,1,5
305,0.488839,2.306,1,5
306,0.491149,2.311,1,5
307,0.493459,2.312,1,5
308,0.495779,2.316,1,5
309,0.498099,2.319,1,5
310,0.500419,2.325,1,5
311,0.502749,2.327,1,5
312,0.505069,2.326,1,5
313,0.507409,2.337,1,5
314,0.509749,2.335,1,5
315,0.512089,2.339,1,5
316,0.514429,2.341,1,5
317,0.516779,2.346,1,5
318,0.519119,2.346,1,5
319,0.523819,2.353,1,5
320,0.523819,2.358,1,5
321,0.526179,2.356,1,5
322,0.528539,2.356,1,5
323,0.530899,2.362,1,5
324,0.533259,2.364,1,5
325,0.537999,2.368,1,5
326,0.540369,2.369,1,5
327,0.542739,2.37,1,5
328,0.545109,2.371,1,5
329,0.547489,2.379,1,5
330,0.549859,2.374,1,5
331,0.552229,2.372,1,5
332,0.554609,2.381,1,5
333,0.556989,2.382,1,5
334,0.559369,2.379,1,5
335,0.561749,2.379,1,5
336,0.564139,2.384,1,5
337,0.566519,2.386,1,5
338,0.568909,2.383,1,5
339,0.571289,2.387,1,5
340,0.573679,2.389,1,5
341,0.576069,2.386,1,5
342,0.578459,2.39,1,5
343,0.580849,2.39,1,5
344,0.583239,2.389,1,5
345,0.585629,2.393,1,5
346,0.590409,2.389,1,5
347,0.590409,2.389,1,5
348,0.595199,2.399,1,5
349,0.595199,2.391,1,5
350,0.599989,2.393,1,5
351,0.599989,2.399,1,5
352,0.604779,2.399,1,5
353,0.607179,2.393,1,5
354,0.609579,2.397,1,5
355,0.611969,2.397,1,5
356,0.614369,2.399,1,5
357,0.616769,2.398,1,5
358,0.619169,2.397,1,5
359,0.621559,2.396,1,5
360,0.62396,2.399,1,5
361,0.626359,2.396,1,5
362,0.628749,2.396,1,5
363,0.631149,2.398,1,5
364,0.633549,2.396,1,5
365,0.635939,2.392,1,5
366,0.638339,2.396,1,5
367,0.640729,2.397,1,5
368,0.643129,2.394,1,5
369,0.645519,2.394,1,5
370,0.647909,2.394,1,5
371,0.650309,2.395,1,5
372,0.652699,2.395,1,5
373,0.655099,2.392,1,5
374,0.657489,2.392,1,5
375,0.659879,2.395,1,5
376,0.662269,2.391,1,5
377,0.66466,2.388,1,5
378,0.667059,2.393,1,5
379,0.669439,2.389,1,5
380,0.671829,2.388,1,5
381,0.674219,2.39,1,5
382,0.676609,2.385,1,5
383,0.678989,2.384,1,5
384,0.681379,2.39,1,5
385,0.683769,2.383,1,5
386,0.686149,2.382,1,5
387,0.688529,2.383,1,5
388,0.690909,2.38,1,5
389,0.693289,2.378,1,5
390,0.695669,2.379,1,5
391,0.698039,2.378,1,5
392,0.700419,2.37,1,5
393,0.702789,2.37,1,5
394,0.705169,2.373,1,5
395,0.707539,2.373,1,5
396,0.712279,2.369,1,5
397,0.714649,2.368,1,5
398,0.717009,2.369,1,5
399,0.719379,2.365,1,5
400,0.721739,2.363,1,5
401,0.724099,2.361,1,5
402,0.726469,2.365,1,5
403,0.728829,2.362,1,5
404,0.731179,2.354,1,5
405,0.733539,2.359,1,5
406,0.735899,2.36,1,5
407,0.738259,2.358,1,5
408,0.740609,2.348,1,5
409,0.742959,2.355,1,5
410,0.745319,2.349,1,5
411,0.747669,2.349,1,5
412,0.75001,2.346,1,5
413,0.752359,2.351,1,5
414,0.754709,2.346,1,5
415,0.757049,2.342,1,5
416,0.759399,2.343,1,5
417,0.761739,2.346,1,5
418,0.766419,2.342,1,5
419,0.768759,2.337,1,5
420,0.771099,2.34,1,5
421,0.773429,2.334,1,5
422,0.775769,2.339,1,5
423,0.778099,2.332,1,5
424,0.780439,2.332,1,5
425,0.782769,2.336,1,5
426,0.785099,2.334,1,5
427,0.787429,2.327,1,5
428,0.789759,2.328,1,5
429,0.792089,2.336,1,5
430,0.794419,2.327,1,5
431,0.796749,2.327,1,5
432,0.799079,2.329,1,5
433,0.801409,2.329,1,5
434,0.803729,2.326,1,5
435,0.806059,2.328,1,5
436,0.808389,2.33,1,5
437,0.810719,2.325,1,5
438,0.813049,2.331,1,5
439,0.815379,2.329,1,5
440,0.817699,2.327,1,5
441,0.820029,2.329,1,5
442,0.822359,2.333,1,5
443,0.824699,2.332,1,5
444,0.827019,2.328,1,5
445,0.829359,2.335,1,5
446,0.831689,2.334,1,5
447,0.834029,2.332,1,5
448,0.836359,2.334,1,5
449,0.838699,2.34,1,5
450,0.841039,2.338,1,5
451,0.843369,2.334,1,5
452,0.845709,2.341,1,5
453,0.848059,2.344,1,5
454,0.850399,2.342,1,5
455,0.852739,2.341,1,5
456,0.855089,2.348,1,5
457,0.857439,2.351,1,5
458,0.859789,2.351,1,5
459,0.862139,2.351,1,5
460,0.864499,2.355,1,5
461,0.866849,2.356,1,5
462,0.869209,2.362,1,5
463,0.871579,2.362,1,5
464,0.87394,2.361,1,5
465,0.876299,2.369,1,5
466,0.878679,2.371,1,5
467,0.881049,2.373,1,5
468,0.883419,2.373,1,5
469,0.885799,2.381,1,5
470,0.888179,2.381,1,5
471,0.890559,2.379,1,5
472,0.892949,2.389,1,5
473,0.895339,2.394,1,5
474,0.897729,2.39,1,5
475,0.900129,2.394,1,5
476,0.902529,2.4,1,5
477,0.904929,2.402,1,5
478,0.907329,2.405,1,5
479,0.909749,2.411,1,5
480,0.912159,2.411,1,5
481,0.914569,2.413,1,5
482,0.916989,2.422,1,5
483,0.919419,2.425,1,5
484,0.921839,2.425,1,5
485,0.924269,2.43,1,5
486,0.926709,2.436,1,5
487,0.929139,2.445,1,5
488,0.931589,2.445,1,5
489,0.936489,2.45,1,5
490,0.938939,2.453,1,5
491,0.941399,2.462,1,5
492,0.943869,2.466,1,5
493,0.946339,2.468,1,5
494,0.948809,2.475,1,5
495,0.951289,2.478,1,5
496,0.953769,2.483,1,5
497,0.956259,2.488,1,5
498,0.958759,2.494,1,5
499,0.961249,2.497,1,5
500,0.963759,2.503,1,5
501,0.966259,2.505,1,5
502,0.968769,2.513,1,5
503,0.971299,2.521,1,5
504,0.973819,2.523,1,5
505,0.976339,2.524,1,5
506,0.978869,2.531,1,5
507,0.981409,2.54,1,5
508,0.983959,2.543,1,5
509,0.986509,2.549,1,5
510,0.989059,2.554,1,5
511,0.991619,2.557,1,5
512,0.994179,2.564,1,5
513,0.996749,2.572,1,5
514,0.999329,2.577,1,5
515,1.00191,2.58,1,5
516,1.00449,2.585,1,5
517,1.00709,2.594,1,5
518,1.00969,2.602,1,5
519,1.01229,2.604,1,5
520,1.0149,2.61,1,5
521,1.01752,2.615,1,5
522,1.02014,2.625,1,5
523,1.02277,2.626,1,5
524,1.02541,2.637,1,5
525,1.02804,2.64,1,5
526,1.03069,2.643,1,5
527,1.03334,2.652,1,5
528,1.03866,2.664,1,5
529,1.04133,2.664,1,5
530,1.04133,2.674,1,5
531,1.04669,2.682,1,5
532,1.04937,2.687,1,5
533,1.05206,2.692,1,5
534,1.05476,2.696,1,5
535,1.05747,2.705,1,5
536,1.06017,2.706,1,5
537,1.06288,2.712,1,5
538,1.0656,2.72,1,5
539,1.06833,2.724,1,5
540,1.07106,2.729,1,5
541,1.0738,2.738,1,5
542,1.07654,2.741,1,5
543,1.07928,2.747,1,5
544,1.08204,2.753,1,5
545,1.08479,2.759,1,5
546,1.08756,2.761,1,5
547,1.09032,2.768,1,5
548,1.0931,2.774,1,5
549,1.09588,2.781,1,5
550,1.09867,2.787,1,5
551,1.10145,2.788,1,5
552,1.10425,2.798,1,5
553,1.10986,2.807,1,5
554,1.11268,2.815,1,5
555,1.11268,2.818,1,5
556,1.11549,2.82,1,5
557,1.11831,2.82,1,5
558,1.12114,2.835,1,5
559,1.12398,2.835,1,5
560,1.12966,2.846,1,5
561,1.13251,2.85,1,5
562,1.13537,2.853,1,5
563,1.13823,2.86,1,5
564,1.1411,2.868,1,5
565,1.14397,2.873,1,5
566,1.14685,2.878,1,5
567,1.14973,2.882,1,5
568,1.15262,2.892,1,5
569,1.15552,2.895,1,5
570,1.15842,2.903,1,5
571,1.16133,2.908,1,5
572,1.16424,2.91,1,5
573,1.16715,2.917,1,5
574,1.17008,2.926,1,5
575,1.17301,2.93,1,5
576,1.17595,2.939,1,5
577,1.17889,2.941,1,5
578,1.18183,2.944,1,5
579,1.18479,2.953,1,5
580,1.18775,2.959,1,5
581,1.19071,2.967,1,5
582,1.19368,2.97,1,5
583,1.19964,2.981,1,5
584,1.19964,2.989,1,5
585,1.20562,2.997,1,5
586,1.20562,3.005,1,5
587,1.20863,3.005,1,5
588,1.21164,3.006,1,5
589,1.21465,3.015,1,5
590,1.2207,3.028,1,5
591,1.22374,3.038,1,5
592,1.22678,3.042,1,5
593,1.22983,3.046,1,5
594,1.23288,3.051,1,5
595,1.23594,3.061,1,5
596,1.23901,3.072,1,5
597,1.24208,3.076,1,5
598,1.24516,3.077,1,5
599,1.24825,3.085,1,5
600,1.25134,3.092,1,5
601,1.25444,3.1,1,5
602,1.25755,3.109,1,5
603,1.26066,3.113,1,5
604,1.26378,3.117,1,5
605,1.2669,3.123,1,5
606,1.27003,3.133,1,5
607,1.27317,3.139,1,5
608,1.27631,3.142,1,5
609,1.27946,3.149,1,5
610,1.28262,3.152,1,5
611,1.28578,3.163,1,5
612,1.28895,3.168,1,5
613,1.29212,3.175,1,5
614,1.2953,3.175,1,5
615,1.29848,3.184,1,5
616,1.30167,3.191,1,5
617,1.30487,3.197,1,5
618,1.30807,3.2,1,5
619,1.31127,3.205,1,5
620,1.31448,3.209,1,5
621,1.3177,3.215,1,5
622,1.32092,3.222,1,5
623,1.32415,3.224,1,5
624,1.32737,3.228,1,5
625,1.33061,3.233,1,5
626,1.33384,3.238,1,5
627,1.33708,3.241,1,5
628,1.34033,3.244,1,5
629,1.34358,3.249,1,5
630,1.34683,3.257,1,5
631,1.35334,3.258,1,5
632,1.35661,3.264,1,5
633,1.35987,3.267,1,5
634,1.36315,3.272,1,5
635,1.36642,3.275,1,5
636,1.3697,3.277,1,5
637,1.37298,3.279,1,5
638,1.37626,3.283,1,5
639,1.37955,3.287,1,5
640,1.38284,3.291,1,5
641,1.38613,3.291,1,5
642,1.38942,3.294,1,5
643,1.39272,3.296,1,5
644,1.39602,3.3,1,5
645,1.39932,3.302,1,5
646,1.40263,3.304,1,5
647,1.40593,3.303,1,5
648,1.40924,3.307,1,5
649,1.41255,3.313,1,5
650,1.41586,3.31,1,5
651,1.41917,3.311,1,5
652,1.42248,3.314,1,5
653,1.4258,3.319,1,5
654,1.42912,3.32,1,5
655,1.43244,3.321,1,5
656,1.43577,3.323,1,5
657,1.43909,3.327,1,5
658,1.44243,3.331,1,5
659,1.44576,3.331,1,5
660,1.44909,3.329,1,5
661,1.45242,3.332,1,5
662,1.45576,3.338,1,5
663,1.4591,3.343,1,5
664,1.46244,3.341,1,5
665,1.46578,3.339,1,5
666,1.46912,3.343,1,5
667,1.47247,3.346,1,5
668,1.47582,3.35,1,5
669,1.47917,3.349,1,5
670,1.48252,3.349,1,5
671,1.48587,3.35,1,5
672,1.48922,3.356,1,5
673,1.49258,3.359,1,5
674,1.49594,3.36,1,5
675,1.4993,3.359,1,5
676,1.50266,3.364,1,5
677,1.50602,3.364,1,5
678,1.50939,3.367,1,5
679,1.51276,3.369,1,5
680,1.51613,3.369,1,5
681,1.52287,3.374,1,5
682,1.52625,3.378,1,5
683,1.52963,3.377,1,5
684,1.533,3.378,1,5
685,1.53638,3.379,1,5
686,1.53977,3.387,1,5
687,1.54315,3.384,1,5
688,1.54654,3.385,1,5
689,1.54992,3.385,1,5
690,1.55332,3.394,1,5
691,1.55671,3.393,1,5
692,1.5601,3.393,1,5
693,1.5635,3.394,1,5
694,1.56689,3.397,1,5
695,1.5703,3.406,1,5
696,1.5737,3.406,1,5
697,1.57711,3.405,1,5
698,1.58051,3.402,1,5
699,1.58392,3.413,1,5
700,1.58734,3.414,1,5
701,1.59075,3.414,1,5
702,1.59417,3.417,1,5
703,1.59759,3.418,1,5
704,1.60101,3.424,1,5
705,1.60444,3.427,1,5
706,1.60786,3.424,1,5
707,1.61129,3.428,1,5
708,1.61472,3.43,1,5
709,1.61815,3.432,1,5
710,1.62159,3.435,1,5
711,1.62502,3.436,1,5
712,1.62846,3.437,1,5
713,1.6319,3.438,1,5
714,1.63534,3.445,1,5
715,1.63879,3.444,1,5
716,1.64223,3.445,1,5
717,1.64567,3.443,1,5
718,1.64913,3.452,1,5
719,1.65258,3.45,1,5
720,1.65603,3.453,1,5
721,1.65948,3.452,1,5
722,1.6664,3.458,1,5
723,1.66986,3.461,1,5
724,1.67331,3.457,1,5
725,1.67678,3.462,1,5
726,1.68024,3.463,1,5
727,1.6837,3.464,1,5
728,1.68717,3.465,1,5
729,1.69063,3.466,1,5
730,1.6941,3.468,1,5
731,1.69757,3.468,1,5
732,1.70104,3.468,1,5
733,1.7045,3.466,1,5
734,1.70798,3.471,1,5
735,1.71144,3.47,1,5
736,1.71492,3.475,1,5
737,1.7184,3.475,1,5
738,1.72187,3.474,1,5
739,1.72534,3.473,1,5
740,1.72882,3.474,1,5
741,1.73229,3.477,1,5
742,1.73577,3.477,1,5
743,1.73925,3.475,1,5
744,1.74272,3.477,1,5
745,1.7462,3.477,1,5
746,1.74968,3.481,1,5
747,1.75315,3.474,1,5
748,1.75663,3.474,1,5
749,1.76011,3.479,1,5
750,1.76358,3.476,1,5
751,1.76706,3.48,1,5
752,1.77054,3.475,1,5
753,1.77402,3.479,1,5
754,1.77749,3.478,1,5
755,1.78097,3.479,1,5
756,1.78445,3.479,1,5
757,1.78793,3.476,1,5
758,1.79141,3.479,1,5
759,1.79489,3.48,1,5
760,1.79837,3.48,1,5
761,1.80185,3.48,1,5
762,1.80533,3.481,1,5
763,1.80881,3.481,1,5
764,1.81229,3.481,1,5
765,1.81577,3.478,1,5
766,1.81925,3.482,1,5
767,1.82273,3.48,1,5
768,1.82621,3.481,1,5
769,1.82969,3.481,1,5
770,1.83317,3.479,1,5
771,1.83665,3.483,1,5
772,1.84013,3.481,1,5
773,1.84362,3.481,1,5
774,1.8471,3.482,1,5
775,1.85058,3.486,1,5
776,1.85406,3.486,1,5
777,1.85755,3.484,1,5
778,1.86104,3.487,1,5
779,1.86452,3.486,1,5
780,1.86801,3.485,1,5
781,1.8715,3.49,1,5
782,1.87848,3.49,1,5
783,1.88197,3.492,1,5
784,1.88547,3.497,1,5
785,1.88896,3.494,1,5
786,1.89246,3.5,1,5
787,1.89596,3.499,1,5
788,1.89946,3.501,1,5
789,1.90297,3.506,1,5
790,1.90648,3.508,1,5
791,1.90998,3.504,1,5
792,1.91349,3.51,1,5
793,1.91701,3.513,1,5
794,1.92052,3.516,1,5
795,1.92404,3.519,1,5
796,1.92756,3.519,1,5
797,1.93108,3.525,1,5
798,1.93461,3.527,1,5
799,1.93814,3.53,1,5
800,1.94168,3.534,1,5
801,1.94521,3.538,1,5
802,1.94876,3.542,1,5
803,1.95585,3.548,1,5
804,1.9594,3.552,1,5
805,1.96296,3.555,1,5
806,1.96651,3.559,1,5
807,1.97008,3.562,1,5
808,1.97364,3.566,1,5
809,1.97721,3.571,1,5
810,1.98078,3.571,1,5
811,1.98436,3.575,1,5
812,1.98794,3.583,1,5
813,1.99152,3.587,1,5
814,1.9987,3.591,1,5
815,1.9987,3.594,1,5
816,2.00229,3.594,1,5
817,2.00589,3.597,1,5
818,2.00949,3.601,1,5
819,2.0131,3.604,1,5
820,2.0167,3.607,1,5
821,2.02031,3.61,1,5
822,2.02393,3.614,1,5
823,2.02754,3.617,1,5
824,2.03116,3.619,1,5
825,2.03478,3.622,1,5
826,2.03841,3.622,1,5
827,2.04203,3.624,1,5
828,2.04566,3.628,1,5
829,2.04929,3.63,1,5
830,2.05292,3.63,1,5
831,2.05655,3.633,1,5
832,2.06019,3.636,1,5
833,2.06382,3.637,1,5
834,2.06746,3.638,1,5
835,2.0711,3.638,1,5
836,2.07474,3.643,1,5
837,2.07838,3.642,1,5
838,2.08203,3.647,1,5
839,2.08568,3.646,1,5
840,2.08932,3.647,1,5
841,2.09297,3.648,1,5
842,2.09662,3.65,1,5
843,2.10392,3.652,1,5
844,2.10757,3.652,1,5
845,2.11123,3.655,1,5
846,2.11488,3.653,1,5
847,2.11854,3.655,1,5
848,2.12219,3.655,1,5
849,2.12584,3.654,1,5
850,2.1295,3.657,1,5
851,2.13316,3.66,1,5
852,2.13682,3.661,1,5
853,2.14414,3.662,1,5
854,2.14781,3.664,1,5
855,2.15147,3.666,1,5
856,2.15514,3.665,1,5
857,2.15881,3.67,1,5
858,2.16248,3.669,1,5
859,2.16615,3.668,1,5
860,2.16982,3.674,1,5
861,2.1735,3.678,1,5
862,2.17717,3.673,1,5
863,2.18085,3.674,1,5
864,2.18453,3.68,1,5
865,2.1882,3.679,1,5
866,2.19189,3.683,1,5
867,2.19557,3.685,1,5
868,2.19926,3.686,1,5
869,2.20295,3.688,1,5
870,2.20664,3.694,1,5
871,2.21033,3.691,1,5
872,2.21403,3.698,1,5
873,2.21773,3.703,1,5
874,2.22514,3.706,1,5
875,2.22885,3.708,1,5
876,2.23256,3.712,1,5
877,2.23627,3.712,1,5
878,2.23998,3.715,1,5
879,2.2437,3.721,1,5
880,2.24743,3.723,1,5
881,2.25115,3.725,1,5
882,2.25488,3.728,1,5
883,2.25861,3.73,1,5
884,2.26235,3.736,1,5
885,2.26609,3.738,1,5
886,2.26983,3.741,1,5
887,2.27357,3.741,1,5
888,2.27732,3.749,1,5
889,2.28107,3.749,1,5
890,2.28482,3.757,1,5
891,2.28858,3.757,1,5
892,2.29234,3.76,1,5
893,2.29611,3.765,1,5
