cnt,pos,speed,Dir,Force,
1,0,1.009,1,5
2,0.000989914,0.992,1,5
3,0.00197029,0.976,1,5
4,0.00294876,0.983,1,5
5,0.00395966,1.011,1,5
6,0.00498009,1.022,1,5
7,0.00598907,1.01,1,5
8,0.00698853,0.997,1,5
9,0.00799942,1.004,1,5
10,0.00901985,1.024,1,5
11,0.0100498,1.035,1,5
12,0.0110798,1.023,1,5
13,0.0120888,1.014,1,5
14,0.0131187,1.026,1,5
15,0.0141602,1.045,1,5
16,0.0152092,1.047,1,5
17,0.0162487,1.038,1,5
18,0.0172787,1.032,1,5
19,0.0183201,1.042,1,5
20,0.0193691,1.054,1,5
21,0.0204296,1.057,1,5
22,0.0214901,1.055,1,5
23,0.0225391,1.055,1,5
24,0.0235996,1.062,1,5
25,0.0246696,1.065,1,5
26,0.0257301,1.067,1,5
27,0.0268002,1.068,1,5
28,0.0278797,1.073,1,5
29,0.0289497,1.076,1,5
30,0.0300293,1.079,1,5
31,0.0311203,1.086,1,5
32,0.0322094,1.094,1,5
33,0.0332985,1.091,1,5
34,0.0343895,1.088,1,5
35,0.0354786,1.093,1,5
36,0.0365887,1.107,1,5
37,0.0377102,1.115,1,5
38,0.0388203,1.111,1,5
39,0.0399189,1.108,1,5
40,0.0410385,1.115,1,5
41,0.04216,1.126,1,5
42,0.0432892,1.129,1,5
43,0.0444202,1.124,1,5
44,0.0455399,1.128,1,5
45,0.04669,1.141,1,5
46,0.0478287,1.148,1,5
47,0.0489788,1.142,1,5
48,0.0501194,1.142,1,5
49,0.0512695,1.151,1,5
50,0.0524292,1.16,1,5
51,0.0535889,1.162,1,5
52,0.0547485,1.165,1,5
53,0.0559196,1.166,1,5
54,0.0570889,1.171,1,5
55,0.0582695,1.175,1,5
56,0.0594501,1.187,1,5
57,0.0606384,1.195,1,5
58,0.0618286,1.195,1,5
59,0.0630188,1.194,1,5
60,0.0642185,1.195,1,5
61,0.0654202,1.205,1,5
62,0.0666294,1.211,1,5
63,0.0678387,1.217,1,5
64,0.0690594,1.228,1,5
65,0.0715199,1.231,1,5
66,0.0727386,1.226,1,5
67,0.0739689,1.228,1,5
68,0.0752087,1.238,1,5
69,0.0764599,1.247,1,5
70,0.0777092,1.252,1,5
71,0.0789585,1.256,1,5
72,0.0802193,1.258,1,5
73,0.08148,1.257,1,5
74,0.0827389,1.259,1,5
75,0.0840092,1.275,1,5
76,0.085289,1.281,1,5
77,0.0865803,1.283,1,5
78,0.0878601,1.282,1,5
79,0.0891495,1.287,1,5
80,0.0904388,1.293,1,5
81,0.0917397,1.297,1,5
82,0.0930386,1.305,1,5
83,0.0943584,1.314,1,5
84,0.0956688,1.315,1,5
85,0.0969791,1.313,1,5
86,0.098299,1.318,1,5
87,0.0996284,1.329,1,5
88,0.10096,1.334,1,5
89,0.102299,1.338,1,5
90,0.10364,1.342,1,5
91,0.104979,1.339,1,5
92,0.106319,1.34,1,5
93,0.107679,1.355,1,5
94,0.109039,1.362,1,5
95,0.110399,1.362,1,5
96,0.111759,1.36,1,5
97,0.11313,1.365,1,5
98,0.11449,1.369,1,5
99,0.11587,1.378,1,5
100,0.117259,1.387,1,5
101,0.118649,1.389,1,5
102,0.120029,1.383,1,5
103,0.121419,1.386,1,5
104,0.122809,1.397,1,5
105,0.124219,1.404,1,5
106,0.125629,1.411,1,5
107,0.128449,1.408,1,5
108,0.129859,1.409,1,5
109,0.131269,1.418,1,5
110,0.132699,1.427,1,5
111,0.13413,1.431,1,5
112,0.135559,1.43,1,5
113,0.13699,1.43,1,5
114,0.138419,1.431,1,5
115,0.139859,1.44,1,5
116,0.141319,1.453,1,5
117,0.14277,1.453,1,5
118,0.144209,1.444,1,5
119,0.145659,1.445,1,5
120,0.14712,1.459,1,5
121,0.148589,1.47,1,5
122,0.15006,1.472,1,5
123,0.15152,1.465,1,5
124,0.152989,1.462,1,5
125,0.154459,1.472,1,5
126,0.15595,1.489,1,5
127,0.157439,1.491,1,5
128,0.158919,1.484,1,5
129,0.160399,1.479,1,5
130,0.161889,1.488,1,5
131,0.163389,1.499,1,5
132,0.1649,1.514,1,5
133,0.166409,1.504,1,5
134,0.16791,1.498,1,5
135,0.169399,1.5,1,5
136,0.170919,1.516,1,5
137,0.172449,1.529,1,5
138,0.17398,1.531,1,5
139,0.175499,1.515,1,5
140,0.17701,1.515,1,5
141,0.17855,1.532,1,5
142,0.180099,1.55,1,5
143,0.181649,1.551,1,5
144,0.183189,1.542,1,5
145,0.18473,1.537,1,5
146,0.18627,1.546,1,5
147,0.18784,1.57,1,5
148,0.18942,1.575,1,5
149,0.190979,1.562,1,5
150,0.19253,1.556,1,5
151,0.194099,1.566,1,5
152,0.195689,1.588,1,5
153,0.197289,1.597,1,5
154,0.19887,1.587,1,5
155,0.200449,1.573,1,5
156,0.202029,1.587,1,5
157,0.20365,1.614,1,5
158,0.20527,1.621,1,5
159,0.20688,1.61,1,5
160,0.208469,1.597,1,5
161,0.210079,1.608,1,5
162,0.21172,1.636,1,5
163,0.21336,1.647,1,5
164,0.214999,1.634,1,5
165,0.216619,1.623,1,5
166,0.218249,1.631,1,5
167,0.21991,1.653,1,5
168,0.22158,1.673,1,5
169,0.223239,1.663,1,5
170,0.22489,1.648,1,5
171,0.22654,1.651,1,5
172,0.228209,1.671,1,5
173,0.229899,1.691,1,5
174,0.2316,1.695,1,5
175,0.233279,1.677,1,5
176,0.234949,1.673,1,5
177,0.236639,1.691,1,5
178,0.238349,1.71,1,5
179,0.240069,1.709,1,5
180,0.241779,1.709,1,5
181,0.24348,1.701,1,5
182,0.24519,1.711,1,5
183,0.24692,1.728,1,5
184,0.24865,1.737,1,5
185,0.250389,1.738,1,5
186,0.25213,1.735,1,5
187,0.25386,1.735,1,5
188,0.25561,1.743,1,5
189,0.25736,1.754,1,5
190,0.259119,1.766,1,5
191,0.260889,1.769,1,5
192,0.262659,1.763,1,5
193,0.26442,1.761,1,5
194,0.26619,1.773,1,5
195,0.26798,1.791,1,5
196,0.269779,1.801,1,5
197,0.271569,1.792,1,5
198,0.273359,1.786,1,5
199,0.275149,1.811,1,5
200,0.278779,1.823,1,5
201,0.280609,1.822,1,5
202,0.282419,1.812,1,5
203,0.28424,1.818,1,5
204,0.28424,1.829,1,5
205,0.28791,1.842,1,5
206,0.28791,1.846,1,5
207,0.289749,1.843,1,5
208,0.291599,1.843,1,5
209,0.293439,1.85,1,5
210,0.295289,1.864,1,5
211,0.29902,1.87,1,5
212,0.29902,1.872,1,5
213,0.3009,1.872,1,5
214,0.30464,1.872,1,5
215,0.30464,1.883,1,5
216,0.30652,1.883,1,5
217,0.30841,1.897,1,5
218,0.310309,1.897,1,5
219,0.3122,1.89,1,5
220,0.314099,1.895,1,5
221,0.315999,1.921,1,5
222,0.317929,1.921,1,5
223,0.319849,1.92,1,5
224,0.321759,1.916,1,5
225,0.323679,1.921,1,5
226,0.32562,1.937,1,5
227,0.327559,1.943,1,5
228,0.32951,1.944,1,5
229,0.33145,1.942,1,5
230,0.3334,1.948,1,5
231,0.33536,1.959,1,5
232,0.33929,1.97,1,5
233,0.33929,1.969,1,5
234,0.343229,1.973,1,5
235,0.343229,1.988,1,5
236,0.34522,1.988,1,5
237,0.347219,1.995,1,5
238,0.34921,1.995,1,5
239,0.35121,1.992,1,5
240,0.353209,2.001,1,5
241,0.35522,2.023,1,5
242,0.357249,2.017,1,5
243,0.35926,2.017,1,5
244,0.363309,2.033,1,5
245,0.365359,2.046,1,5
246,0.367399,2.043,1,5
247,0.369439,2.04,1,5
248,0.37149,2.049,1,5
249,0.373549,2.063,1,5
250,0.375619,2.068,1,5
251,0.37768,2.066,1,5
252,0.379749,2.071,1,5
253,0.381829,2.078,1,5
254,0.38392,2.088,1,5
255,0.386009,2.094,1,5
256,0.388109,2.093,1,5
257,0.3902,2.097,1,5
258,0.392309,2.105,1,5
259,0.394429,2.116,1,5
260,0.396549,2.12,1,5
261,0.39866,2.117,1,5
262,0.400789,2.125,1,5
263,0.402929,2.138,1,5
264,0.405069,2.141,1,5
265,0.407209,2.141,1,5
266,0.409359,2.158,1,5
267,0.41151,2.158,1,5
268,0.413679,2.166,1,5
269,0.41801,2.17,1,5
270,0.420189,2.178,1,5
271,0.422369,2.181,1,5
272,0.42456,2.19,1,5
273,0.42676,2.197,1,5
274,0.428959,2.2,1,5
275,0.431159,2.202,1,5
276,0.43337,2.212,1,5
277,0.43559,2.219,1,5
278,0.437809,2.219,1,5
279,0.440029,2.224,1,5
280,0.442269,2.237,1,5
281,0.44451,2.24,1,5
282,0.44675,2.238,1,5
283,0.448999,2.25,1,5
284,0.451249,2.256,1,5
285,0.453509,2.259,1,5
286,0.45577,2.259,1,5
287,0.458039,2.273,1,5
288,0.46032,2.278,1,5
289,0.4626,2.278,1,5
290,0.464879,2.283,1,5
291,0.467179,2.295,1,5
292,0.469469,2.296,1,5
293,0.471769,2.298,1,5
294,0.474079,2.307,1,5
295,0.476389,2.313,1,5
296,0.478709,2.317,1,5
297,0.481039,2.326,1,5
298,0.483359,2.325,1,5
299,0.485689,2.33,1,5
300,0.488029,2.341,1,5
301,0.490379,2.347,1,5
302,0.492729,2.346,1,5
303,0.495079,2.35,1,5
304,0.497439,2.36,1,5
305,0.4998,2.369,1,5
306,0.50217,2.367,1,5
307,0.504549,2.376,1,5
308,0.506929,2.385,1,5
309,0.5117,2.39,1,5
310,0.514099,2.396,1,5
311,0.5165,2.398,1,5
312,0.518899,2.405,1,5
313,0.521309,2.406,1,5
314,0.52372,2.414,1,5
315,0.526139,2.419,1,5
316,0.52856,2.423,1,5
317,0.530979,2.42,1,5
318,0.533409,2.429,1,5
319,0.53585,2.436,1,5
320,0.538289,2.441,1,5
321,0.54073,2.441,1,5
322,0.54318,2.447,1,5
323,0.545619,2.45,1,5
324,0.548079,2.455,1,5
325,0.550539,2.459,1,5
326,0.552999,2.464,1,5
327,0.55547,2.467,1,5
328,0.55794,2.47,1,5
329,0.56041,2.476,1,5
330,0.5629,2.48,1,5
331,0.565379,2.483,1,5
332,0.567869,2.485,1,5
333,0.57035,2.49,1,5
334,0.572849,2.493,1,5
335,0.57535,2.501,1,5
336,0.577849,2.501,1,5
337,0.580349,2.502,1,5
338,0.582859,2.508,1,5
339,0.585369,2.515,1,5
340,0.58789,2.512,1,5
341,0.592919,2.521,1,5
342,0.595449,2.522,1,5
343,0.597969,2.525,1,5
344,0.600499,2.532,1,5
345,0.60304,2.534,1,5
346,0.60557,2.534,1,5
347,0.608109,2.54,1,5
348,0.610649,2.544,1,5
349,0.613199,2.547,1,5
350,0.615749,2.548,1,5
351,0.618299,2.552,1,5
352,0.620859,2.555,1,5
353,0.62342,2.563,1,5
354,0.625979,2.56,1,5
355,0.628539,2.563,1,5
356,0.631109,2.571,1,5
357,0.633689,2.573,1,5
358,0.636259,2.575,1,5
359,0.63884,2.579,1,5
360,0.641419,2.583,1,5
361,0.64401,2.581,1,5
362,0.6466,2.591,1,5
363,0.649189,2.593,1,5
364,0.651779,2.591,1,5
365,0.654379,2.597,1,5
366,0.65698,2.603,1,5
367,0.659579,2.602,1,5
368,0.662189,2.608,1,5
369,0.6648,2.607,1,5
370,0.667409,2.613,1,5
371,0.67003,2.617,1,5
372,0.672649,2.619,1,5
373,0.675269,2.619,1,5
374,0.67789,2.627,1,5
375,0.680519,2.627,1,5
376,0.683149,2.63,1,5
377,0.68578,2.633,1,5
378,0.688419,2.637,1,5
379,0.691059,2.637,1,5
380,0.6937,2.645,1,5
381,0.696349,2.645,1,5
382,0.698989,2.65,1,5
383,0.704289,2.652,1,5
384,0.704289,2.658,1,5
385,0.706949,2.658,1,5
386,0.709609,2.658,1,5
387,0.71227,2.661,1,5
388,0.71493,2.662,1,5
389,0.717599,2.671,1,5
390,0.722939,2.673,1,5
391,0.725619,2.673,1,5
392,0.72829,2.673,1,5
393,0.730969,2.679,1,5
394,0.733649,2.682,1,5
395,0.73634,2.685,1,5
396,0.739019,2.683,1,5
397,0.74171,2.691,1,5
398,0.744399,2.689,1,5
399,0.747089,2.689,1,5
400,0.74978,2.695,1,5
401,0.75248,2.696,1,5
402,0.755169,2.696,1,5
403,0.757879,2.701,1,5
404,0.760579,2.702,1,5
405,0.763279,2.704,1,5
406,0.765989,2.706,1,5
407,0.768689,2.705,1,5
408,0.771399,2.709,1,5
409,0.774119,2.713,1,5
410,0.77683,2.71,1,5
411,0.779539,2.714,1,5
412,0.782249,2.716,1,5
413,0.784969,2.714,1,5
414,0.787689,2.719,1,5
415,0.790409,2.721,1,5
416,0.793129,2.72,1,5
417,0.79585,2.721,1,5
418,0.79857,2.722,1,5
419,0.80129,2.721,1,5
420,0.804019,2.725,1,5
421,0.80674,2.725,1,5
422,0.80946,2.721,1,5
423,0.812189,2.727,1,5
424,0.814919,2.727,1,5
425,0.817639,2.727,1,5
426,0.82037,2.728,1,5
427,0.823099,2.727,1,5
428,0.82583,2.727,1,5
429,0.828559,2.73,1,5
430,0.83128,2.727,1,5
431,0.834009,2.73,1,5
432,0.83674,2.731,1,5
433,0.839479,2.732,1,5
434,0.84221,2.729,1,5
435,0.844939,2.732,1,5
436,0.84767,2.731,1,5
437,0.850399,2.733,1,5
438,0.853139,2.732,1,5
439,0.85586,2.728,1,5
440,0.8586,2.733,1,5
441,0.861329,2.732,1,5
442,0.864059,2.732,1,5
443,0.86679,2.731,1,5
444,0.869519,2.726,1,5
445,0.87225,2.729,1,5
446,0.874979,2.728,1,5
447,0.877709,2.728,1,5
448,0.88044,2.728,1,5
449,0.883169,2.729,1,5
450,0.885889,2.725,1,5
451,0.888609,2.723,1,5
452,0.891339,2.725,1,5
453,0.894059,2.724,1,5
454,0.89679,2.723,1,5
455,0.899499,2.719,1,5
456,0.902229,2.72,1,5
457,0.904949,2.72,1,5
458,0.907669,2.717,1,5
459,0.910379,2.717,1,5
460,0.913099,2.718,1,5
461,0.915819,2.716,1,5
462,0.921249,2.717,1,5
463,0.92396,2.715,1,5
464,0.926669,2.709,1,5
465,0.929379,2.712,1,5
466,0.93209,2.712,1,5
467,0.934799,2.709,1,5
468,0.93751,2.709,1,5
469,0.940219,2.708,1,5
470,0.942929,2.707,1,5
471,0.945629,2.708,1,5
472,0.948339,2.707,1,5
473,0.95105,2.705,1,5
474,0.95375,2.705,1,5
475,0.95645,2.702,1,5
476,0.959159,2.705,1,5
477,0.961869,2.707,1,5
478,0.964569,2.702,1,5
479,0.967269,2.704,1,5
480,0.969979,2.704,1,5
481,0.972679,2.705,1,5
482,0.975389,2.707,1,5
483,0.9781,2.71,1,5
484,0.9808,2.705,1,5
485,0.983509,2.706,1,5
486,0.986219,2.711,1,5
487,0.98893,2.711,1,5
488,0.991639,2.712,1,5
489,0.994359,2.715,1,5
490,0.997069,2.711,1,5
491,0.999789,2.717,1,5
492,1.0025,2.718,1,5
493,1.00522,2.72,1,5
494,1.00795,2.722,1,5
495,1.01067,2.722,1,5
496,1.01339,2.724,1,5
497,1.01612,2.727,1,5
498,1.01885,2.731,1,5
499,1.02158,2.731,1,5
500,1.02432,2.737,1,5
501,1.02706,2.736,1,5
502,1.02979,2.739,1,5
503,1.03528,2.746,1,5
504,1.03803,2.749,1,5
505,1.04079,2.753,1,5
506,1.04354,2.754,1,5
507,1.0463,2.76,1,5
508,1.04907,2.763,1,5
509,1.05183,2.766,1,5
510,1.0546,2.769,1,5
511,1.05737,2.771,1,5
512,1.06015,2.774,1,5
513,1.06293,2.78,1,5
514,1.06571,2.783,1,5
515,1.06849,2.784,1,5
516,1.07128,2.792,1,5
517,1.07408,2.792,1,5
518,1.07687,2.794,1,5
519,1.07967,2.8,1,5
520,1.08247,2.801,1,5
521,1.08528,2.803,1,5
522,1.08808,2.806,1,5
523,1.09089,2.809,1,5
524,1.0937,2.811,1,5
525,1.09652,2.818,1,5
526,1.09933,2.821,1,5
527,1.10498,2.823,1,5
528,1.1078,2.824,1,5
529,1.11063,2.829,1,5
530,1.11346,2.828,1,5
531,1.11629,2.832,1,5
532,1.11913,2.837,1,5
533,1.12197,2.839,1,5
534,1.12481,2.837,1,5
535,1.12765,2.842,1,5
536,1.13049,2.844,1,5
537,1.13334,2.846,1,5
538,1.13619,2.85,1,5
539,1.13903,2.848,1,5
540,1.14188,2.847,1,5
541,1.14473,2.851,1,5
542,1.14759,2.857,1,5
543,1.15045,2.858,1,5
544,1.1533,2.856,1,5
545,1.15616,2.859,1,5
546,1.15902,2.859,1,5
547,1.16189,2.865,1,5
548,1.16475,2.868,1,5
549,1.16762,2.867,1,5
550,1.17049,2.866,1,5
551,1.17336,2.869,1,5
552,1.17623,2.873,1,5
553,1.17911,2.879,1,5
554,1.18199,2.877,1,5
555,1.18487,2.88,1,5
556,1.18774,2.88,1,5
557,1.19063,2.885,1,5
558,1.19352,2.889,1,5
559,1.19641,2.894,1,5
560,1.1993,2.892,1,5
561,1.2022,2.892,1,5
562,1.2051,2.901,1,5
563,1.208,2.904,1,5
564,1.21091,2.907,1,5
565,1.21382,2.909,1,5
566,1.21673,2.912,1,5
567,1.21964,2.916,1,5
568,1.22257,2.922,1,5
569,1.22549,2.926,1,5
570,1.22842,2.928,1,5
571,1.23135,2.933,1,5
572,1.23429,2.938,1,5
573,1.23723,2.942,1,5
574,1.24018,2.946,1,5
575,1.24313,2.952,1,5
576,1.24609,2.956,1,5
577,1.24905,2.96,1,5
578,1.25202,2.968,1,5
579,1.25499,2.972,1,5
580,1.25797,2.984,1,5
581,1.26095,2.99,1,5
582,1.26394,2.99,1,5
583,1.26694,2.996,1,5
584,1.26994,3.007,1,5
585,1.27294,3.015,1,5
586,1.27596,3.021,1,5
587,1.282,3.025,1,5
588,1.28503,3.031,1,5
589,1.28807,3.037,1,5
590,1.29112,3.046,1,5
591,1.29417,3.051,1,5
592,1.29722,3.055,1,5
593,1.30029,3.063,1,5
594,1.30335,3.069,1,5
595,1.30643,3.079,1,5
596,1.30951,3.08,1,5
597,1.3126,3.085,1,5
598,1.31569,3.095,1,5
599,1.31879,3.102,1,5
600,1.3219,3.108,1,5
601,1.32501,3.109,1,5
602,1.33126,3.127,1,5
603,1.33126,3.129,1,5
604,1.33438,3.139,1,5
605,1.33753,3.139,1,5
606,1.34067,3.141,1,5
607,1.34381,3.147,1,5
608,1.34697,3.156,1,5
609,1.35012,3.169,1,5
610,1.35329,3.168,1,5
611,1.35964,3.176,1,5
612,1.36282,3.179,1,5
613,1.36601,3.189,1,5
614,1.36919,3.188,1,5
615,1.37239,3.195,1,5
616,1.37559,3.197,1,5
617,1.37879,3.203,1,5
618,1.38199,3.206,1,5
619,1.3852,3.209,1,5
620,1.38842,3.215,1,5
621,1.39164,3.219,1,5
622,1.39486,3.221,1,5
623,1.39808,3.227,1,5
624,1.40131,3.229,1,5
625,1.40455,3.231,1,5
626,1.40778,3.236,1,5
627,1.41102,3.238,1,5
628,1.41426,3.24,1,5
629,1.4175,3.243,1,5
630,1.42075,3.248,1,5
631,1.424,3.247,1,5
632,1.42724,3.249,1,5
633,1.4305,3.25,1,5
634,1.43375,3.258,1,5
635,1.43701,3.255,1,5
636,1.44026,3.254,1,5
637,1.44352,3.258,1,5
638,1.44678,3.26,1,5
639,1.45004,3.264,1,5
640,1.4533,3.26,1,5
641,1.45657,3.262,1,5
642,1.45983,3.264,1,5
643,1.4631,3.268,1,5
644,1.46637,3.267,1,5
645,1.46964,3.271,1,5
646,1.47291,3.27,1,5
647,1.47618,3.275,1,5
648,1.47946,3.278,1,5
649,1.48273,3.274,1,5
650,1.48601,3.274,1,5
651,1.48929,3.279,1,5
652,1.49257,3.282,1,5
653,1.49585,3.282,1,5
654,1.50242,3.285,1,5
655,1.5057,3.286,1,5
656,1.5057,3.288,1,5
657,1.51228,3.29,1,5
658,1.51557,3.287,1,5
659,1.51886,3.292,1,5
660,1.52215,3.293,1,5
661,1.52545,3.298,1,5
662,1.52875,3.298,1,5
663,1.53205,3.297,1,5
664,1.53535,3.3,1,5
665,1.53865,3.303,1,5
666,1.54196,3.306,1,5
667,1.54526,3.307,1,5
668,1.54857,3.306,1,5
669,1.55188,3.309,1,5
670,1.55519,3.314,1,5
671,1.55851,3.319,1,5
672,1.56183,3.318,1,5
673,1.56515,3.317,1,5
674,1.56847,3.321,1,5
675,1.57179,3.325,1,5
676,1.57512,3.33,1,5
677,1.57845,3.327,1,5
678,1.58178,3.329,1,5
679,1.58511,3.333,1,5
680,1.58845,3.338,1,5
681,1.59179,3.339,1,5
682,1.59513,3.34,1,5
683,1.59847,3.342,1,5
684,1.60516,3.348,1,5
685,1.60851,3.352,1,5
686,1.61186,3.35,1,5
687,1.61521,3.349,1,5
688,1.61857,3.356,1,5
689,1.62193,3.359,1,5
690,1.62529,3.361,1,5
691,1.62865,3.359,1,5
692,1.63201,3.363,1,5
693,1.63537,3.363,1,5
694,1.63874,3.371,1,5
695,1.64211,3.369,1,5
696,1.64548,3.37,1,5
697,1.64885,3.367,1,5
698,1.65222,3.37,1,5
699,1.65559,3.374,1,5
700,1.65897,3.375,1,5
701,1.66234,3.375,1,5
702,1.66572,3.374,1,5
703,1.66909,3.378,1,5
704,1.67247,3.379,1,5
705,1.67585,3.381,1,5
706,1.67923,3.38,1,5
707,1.68261,3.379,1,5
708,1.68599,3.382,1,5
709,1.68938,3.383,1,5
710,1.69276,3.385,1,5
711,1.69615,3.384,1,5
712,1.69953,3.386,1,5
713,1.70292,3.384,1,5
714,1.7063,3.385,1,5
715,1.70969,3.384,1,5
716,1.71307,3.387,1,5
717,1.71984,3.384,1,5
718,1.72323,3.386,1,5
719,1.72661,3.385,1,5
720,1.72661,3.385,1,5
721,1.73,3.383,1,5
722,1.73338,3.385,1,5
723,1.74015,3.385,1,5
724,1.74353,3.382,1,5
725,1.74692,3.382,1,5
726,1.7503,3.384,1,5
727,1.75369,3.386,1,5
728,1.75707,3.383,1,5
729,1.76045,3.382,1,5
730,1.76384,3.383,1,5
731,1.76722,3.381,1,5
732,1.7706,3.383,1,5
733,1.77398,3.383,1,5
734,1.77737,3.383,1,5
735,1.78075,3.382,1,5
736,1.78413,3.381,1,5
737,1.78751,3.38,1,5
738,1.79089,3.383,1,5
739,1.79427,3.383,1,5
740,1.79766,3.382,1,5
741,1.80104,3.381,1,5
742,1.80442,3.381,1,5
743,1.8078,3.381,1,5
744,1.81118,3.383,1,5
745,1.81456,3.381,1,5
746,1.81795,3.384,1,5
747,1.82133,3.385,1,5
748,1.82471,3.383,1,5
749,1.83148,3.384,1,5
750,1.83487,3.388,1,5
751,1.83826,3.386,1,5
752,1.84164,3.388,1,5
753,1.84503,3.39,1,5
754,1.84842,3.39,1,5
755,1.85181,3.389,1,5
756,1.85521,3.392,1,5
757,1.8586,3.393,1,5
758,1.86199,3.392,1,5
759,1.86538,3.392,1,5
760,1.86878,3.395,1,5
761,1.87217,3.395,1,5
762,1.87557,3.394,1,5
763,1.87897,3.398,1,5
764,1.88236,3.399,1,5
765,1.88576,3.397,1,5
766,1.88916,3.4,1,5
767,1.89257,3.404,1,5
768,1.89597,3.403,1,5
769,1.89937,3.404,1,5
770,1.90278,3.408,1,5
771,1.90619,3.407,1,5
772,1.9096,3.407,1,5
773,1.91301,3.412,1,5
774,1.91642,3.409,1,5
775,1.91983,3.413,1,5
776,1.92324,3.416,1,5
777,1.92666,3.414,1,5
778,1.93007,3.415,1,5
779,1.93349,3.413,1,5
780,1.9369,3.416,1,5
781,1.94032,3.418,1,5
782,1.94374,3.418,1,5
783,1.94716,3.417,1,5
784,1.95058,3.422,1,5
785,1.954,3.421,1,5
786,1.95742,3.425,1,5
787,1.96084,3.422,1,5
788,1.96426,3.42,1,5
789,1.96769,3.425,1,5
790,1.97112,3.426,1,5
791,1.97455,3.43,1,5
792,1.97797,3.426,1,5
793,1.9814,3.428,1,5
794,1.98483,3.429,1,5
795,1.98826,3.428,1,5
796,1.99169,3.43,1,5
797,1.99512,3.429,1,5
798,1.99855,3.431,1,5
799,2.00541,3.43,1,5
800,2.00884,3.433,1,5
801,2.01227,3.43,1,5
802,2.01571,3.434,1,5
803,2.01913,3.429,1,5
804,2.02257,3.432,1,5
805,2.026,3.432,1,5
806,2.02943,3.433,1,5
807,2.03287,3.436,1,5
808,2.0363,3.435,1,5
809,2.03974,3.435,1,5
810,2.04317,3.433,1,5
811,2.04661,3.441,1,5
812,2.05005,3.435,1,5
813,2.05349,3.439,1,5
814,2.05692,3.437,1,5
815,2.06036,3.439,1,5
816,2.0638,3.44,1,5
817,2.06724,3.439,1,5
818,2.07068,3.441,1,5
819,2.07412,3.439,1,5
820,2.07756,3.443,1,5
821,2.081,3.44,1,5
822,2.08445,3.44,1,5
823,2.08789,3.445,1,5
824,2.09133,3.445,1,5
825,2.09478,3.446,1,5
826,2.09822,3.446,1,5
827,2.10167,3.446,1,5
828,2.10856,3.448,1,5
829,2.11201,3.45,1,5
830,2.11546,3.45,1,5
831,2.11891,3.451,1,5
832,2.12237,3.453,1,5
833,2.12582,3.456,1,5
834,2.12928,3.455,1,5
835,2.13273,3.455,1,5
836,2.13619,3.454,1,5
837,2.13965,3.458,1,5
838,2.1431,3.459,1,5
839,2.14657,3.461,1,5
840,2.15002,3.457,1,5
841,2.15348,3.461,1,5
842,2.15695,3.463,1,5
843,2.16041,3.464,1,5
844,2.16387,3.461,1,5
845,2.16733,3.464,1,5
846,2.1708,3.467,1,5
847,2.17427,3.467,1,5
848,2.17774,3.469,1,5
849,2.1812,3.467,1,5
850,2.18467,3.47,1,5
851,2.18814,3.471,1,5
852,2.19162,3.475,1,5
853,2.19509,3.471,1,5
854,2.19856,3.471,1,5
855,2.20204,3.477,1,5
856,2.20552,3.479,1,5
857,2.20899,3.478,1,5
858,2.21247,3.474,1,5
859,2.21595,3.479,1,5
860,2.21943,3.48,1,5
861,2.22291,3.481,1,5
862,2.22639,3.483,1,5
863,2.22987,3.479,1,5
864,2.23335,3.482,1,5
865,2.23684,3.487,1,5
866,2.24033,3.487,1,5
867,2.24382,3.487,1,5
868,2.2473,3.484,1,5
869,2.25079,3.487,1,5
870,2.25428,3.492,1,5
871,2.25777,3.493,1,5
872,2.26126,3.492,1,5
873,2.26475,3.491,1,5
874,2.26825,3.493,1,5
875,2.27174,3.496,1,5
876,2.27524,3.498,1,5
877,2.27874,3.494,1,5
878,2.28224,3.5,1,5
879,2.28573,3.498,1,5
880,2.28923,3.499,1,5
881,2.29274,3.503,1,5
882,2.29624,3.5,1,5
883,2.30324,3.504,1,5
884,2.30675,3.504,1,5
885,2.31025,3.504,1,5
886,2.31376,3.507,1,5
887,2.31727,3.509,1,5
888,2.32078,3.511,1,5
889,2.32429,3.509,1,5
890,2.3278,3.516,1,5
891,2.33131,3.512,1,5
892,2.33483,3.515,1,5
893,2.33835,3.517,1,5
894,2.34187,3.52,1,5
895,2.34539,3.522,1,5
896,2.34891,3.518,1,5
897,2.35243,3.523,1,5
898,2.35595,3.525,1,5
899,2.35948,3.528,1,5
900,2.36301,3.526,1,5
