cnt,pos,speed,Dir,Force,
1,3.22933,1.006,-1,5
2,3.23033,0.992,-1,5
3,3.23232,0.994,-1,5
4,3.23333,1.014,-1,5
5,3.23436,1.030,-1,5
6,3.23539,1.024,-1,5
7,3.23639,1.006,-1,5
8,3.23741,1.014,-1,5
9,3.23845,1.040,-1,5
10,3.23950,1.049,-1,5
11,3.24053,1.034,-1,5
12,3.24155,1.020,-1,5
13,3.24259,1.037,-1,5
14,3.24365,1.066,-1,5
15,3.24472,1.070,-1,5
16,3.24577,1.050,-1,5
17,3.24681,1.037,-1,5
18,3.24787,1.062,-1,5
19,3.24896,1.087,-1,5
20,3.25004,1.083,-1,5
21,3.25111,1.063,-1,5
22,3.25217,1.063,-1,5
23,3.25326,1.092,-1,5
24,3.25437,1.108,-1,5
25,3.25546,1.093,-1,5
26,3.25654,1.076,-1,5
27,3.25763,1.088,-1,5
28,3.25874,1.116,-1,5
29,3.25986,1.121,-1,5
30,3.26097,1.103,-1,5
31,3.26207,1.120,-1,5
32,3.26432,1.135,-1,5
33,3.26545,1.126,-1,5
34,3.26656,1.117,-1,5
35,3.26769,1.130,-1,5
36,3.26769,1.146,-1,5
37,3.26999,1.150,-1,5
38,3.26999,1.140,-1,5
39,3.27227,1.142,-1,5
40,3.27227,1.152,-1,5
41,3.27459,1.163,-1,5
42,3.27575,1.165,-1,5
43,3.27692,1.166,-1,5
44,3.27808,1.167,-1,5
45,3.27925,1.169,-1,5
46,3.28043,1.176,-1,5
47,3.28162,1.185,-1,5
48,3.28280,1.188,-1,5
49,3.28399,1.185,-1,5
50,3.28518,1.186,-1,5
51,3.28638,1.201,-1,5
52,3.28758,1.193,-1,5
53,3.28877,1.198,-1,5
54,3.28997,1.215,-1,5
55,3.29241,1.225,-1,5
56,3.29241,1.214,-1,5
57,3.29362,1.214,-1,5
58,3.29605,1.218,-1,5
59,3.29605,1.233,-1,5
60,3.29728,1.233,-1,5
61,3.29851,1.229,-1,5
62,3.30097,1.232,-1,5
63,3.30222,1.241,-1,5
64,3.30346,1.240,-1,5
65,3.30470,1.244,-1,5
66,3.30470,1.245,-1,5
67,3.30594,1.245,-1,5
68,3.30844,1.250,-1,5
69,3.30970,1.259,-1,5
70,3.31096,1.263,-1,5
71,3.31222,1.254,-1,5
72,3.31347,1.254,-1,5
73,3.31474,1.265,-1,5
74,3.31602,1.278,-1,5
75,3.31728,1.268,-1,5
76,3.31855,1.263,-1,5
77,3.31982,1.271,-1,5
78,3.32109,1.277,-1,5
79,3.32238,1.281,-1,5
80,3.32365,1.277,-1,5
81,3.32493,1.281,-1,5
82,3.32750,1.284,-1,5
83,3.32879,1.290,-1,5
84,3.33009,1.294,-1,5
85,3.33137,1.288,-1,5
86,3.33267,1.293,-1,5
87,3.33397,1.303,-1,5
88,3.33527,1.301,-1,5
89,3.33657,1.295,-1,5
90,3.33787,1.303,-1,5
91,3.33918,1.313,-1,5
92,3.34049,1.312,-1,5
93,3.34311,1.308,-1,5
94,3.34442,1.315,-1,5
95,3.34574,1.317,-1,5
96,3.34706,1.319,-1,5
97,3.34838,1.322,-1,5
98,3.34970,1.318,-1,5
99,3.35101,1.314,-1,5
100,3.35234,1.325,-1,5
101,3.35366,1.329,-1,5
102,3.35499,1.327,-1,5
103,3.35632,1.325,-1,5
104,3.35765,1.331,-1,5
105,3.35898,1.333,-1,5
106,3.36031,1.327,-1,5
107,3.36164,1.330,-1,5
108,3.36298,1.338,-1,5
109,3.36432,1.339,-1,5
110,3.36565,1.335,-1,5
111,3.36699,1.335,-1,5
112,3.36832,1.331,-1,5
113,3.36965,1.334,-1,5
114,3.37099,1.342,-1,5
115,3.37234,1.335,-1,5
116,3.37500,1.330,-1,5
117,3.37634,1.336,-1,5
118,3.37768,1.345,-1,5
119,3.37903,1.342,-1,5
120,3.38036,1.339,-1,5
121,3.38170,1.335,-1,5
122,3.38303,1.333,-1,5
123,3.38437,1.339,-1,5
124,3.38572,1.346,-1,5
125,3.38706,1.344,-1,5
126,3.38840,1.333,-1,5
127,3.38973,1.332,-1,5
128,3.39107,1.343,-1,5
129,3.39241,1.343,-1,5
130,3.39375,1.340,-1,5
131,3.39509,1.339,-1,5
132,3.39642,1.337,-1,5
133,3.39776,1.332,-1,5
134,3.39909,1.333,-1,5
135,3.40043,1.341,-1,5
136,3.40177,1.339,-1,5
137,3.40310,1.334,-1,5
138,3.40444,1.335,-1,5
139,3.40577,1.328,-1,5
140,3.40710,1.328,-1,5
141,3.40843,1.331,-1,5
142,3.40977,1.341,-1,5
143,3.41111,1.339,-1,5
144,3.41244,1.326,-1,5
145,3.41510,1.328,-1,5
146,3.41643,1.334,-1,5
147,3.41777,1.338,-1,5
148,3.41911,1.337,-1,5
149,3.42043,1.325,-1,5
150,3.42175,1.317,-1,5
151,3.42308,1.328,-1,5
152,3.42442,1.341,-1,5
153,3.42575,1.335,-1,5
154,3.42708,1.322,-1,5
155,3.42839,1.318,-1,5
156,3.43104,1.328,-1,5
157,3.43104,1.334,-1,5
158,3.43237,1.331,-1,5
159,3.43502,1.316,-1,5
160,3.43502,1.308,-1,5
161,3.43633,1.308,-1,5
162,3.43765,1.329,-1,5
163,3.43898,1.329,-1,5
164,3.44030,1.318,-1,5
165,3.44162,1.318,-1,5
166,3.44425,1.313,-1,5
167,3.44556,1.314,-1,5
168,3.44688,1.319,-1,5
169,3.44820,1.316,-1,5
170,3.44951,1.310,-1,5
171,3.45082,1.311,-1,5
172,3.45213,1.314,-1,5
173,3.45344,1.308,-1,5
174,3.45474,1.302,-1,5
175,3.45605,1.308,-1,5
176,3.45736,1.304,-1,5
177,3.45996,1.296,-1,5
178,3.46126,1.299,-1,5
179,3.46256,1.299,-1,5
180,3.46386,1.296,-1,5
181,3.46515,1.296,-1,5
182,3.46645,1.295,-1,5
183,3.46773,1.288,-1,5
184,3.46902,1.286,-1,5
185,3.47031,1.292,-1,5
186,3.47160,1.290,-1,5
187,3.47288,1.282,-1,5
188,3.47416,1.279,-1,5
189,3.47544,1.281,-1,5
190,3.47672,1.282,-1,5
191,3.47800,1.271,-1,5
192,3.47927,1.273,-1,5
193,3.48054,1.276,-1,5
194,3.48182,1.271,-1,5
195,3.48308,1.265,-1,5
196,3.48434,1.260,-1,5
197,3.48560,1.262,-1,5
198,3.48686,1.261,-1,5
199,3.48938,1.261,-1,5
200,3.49063,1.251,-1,5
201,3.49188,1.243,-1,5
202,3.49312,1.243,-1,5
203,3.49438,1.256,-1,5
204,3.49563,1.251,-1,5
205,3.49687,1.240,-1,5
206,3.49810,1.233,-1,5
207,3.49934,1.242,-1,5
208,3.50058,1.236,-1,5
209,3.50181,1.232,-1,5
210,3.50304,1.230,-1,5
211,3.50428,1.236,-1,5
212,3.50551,1.228,-1,5
213,3.50673,1.221,-1,5
214,3.50795,1.221,-1,5
215,3.50917,1.223,-1,5
216,3.51039,1.219,-1,5
217,3.51160,1.212,-1,5
218,3.51282,1.218,-1,5
219,3.51403,1.212,-1,5
220,3.51524,1.203,-1,5
221,3.51644,1.202,-1,5
222,3.51765,1.205,-1,5
223,3.51885,1.205,-1,5
224,3.52005,1.192,-1,5
225,3.52124,1.192,-1,5
226,3.52244,1.197,-1,5
227,3.52363,1.195,-1,5
228,3.52482,1.184,-1,5
229,3.52719,1.192,-1,5
230,3.52838,1.189,-1,5
231,3.52956,1.176,-1,5
232,3.53073,1.175,-1,5
233,3.53191,1.179,-1,5
234,3.53309,1.179,-1,5
235,3.53426,1.168,-1,5
236,3.53543,1.168,-1,5
237,3.53660,1.173,-1,5
238,3.53777,1.171,-1,5
239,3.53893,1.157,-1,5
240,3.54008,1.153,-1,5
241,3.54124,1.161,-1,5
242,3.54240,1.161,-1,5
243,3.54355,1.152,-1,5
244,3.54470,1.147,-1,5
245,3.54585,1.151,-1,5
246,3.54700,1.149,-1,5
247,3.54814,1.138,-1,5
248,3.54927,1.136,-1,5
249,3.55042,1.144,-1,5
250,3.55156,1.144,-1,5
251,3.55382,1.124,-1,5
252,3.55495,1.128,-1,5
253,3.55608,1.132,-1,5
254,3.55720,1.125,-1,5
255,3.55832,1.117,-1,5
256,3.55944,1.121,-1,5
257,3.56057,1.126,-1,5
258,3.56168,1.116,-1,5
259,3.56279,1.101,-1,5
260,3.56389,1.104,-1,5
261,3.56500,1.114,-1,5
262,3.56611,1.110,-1,5
263,3.56830,1.092,-1,5
264,3.56940,1.098,-1,5
265,3.57049,1.095,-1,5
266,3.57157,1.081,-1,5
267,3.57265,1.075,-1,5
268,3.57373,1.087,-1,5
269,3.57482,1.089,-1,5
270,3.57590,1.074,-1,5
271,3.57696,1.061,-1,5
272,3.57802,1.065,-1,5
273,3.57910,1.074,-1,5
274,3.58121,1.050,-1,5
275,3.58227,1.052,-1,5
276,3.58333,1.063,-1,5
277,3.58439,1.063,-1,5
278,3.58543,1.041,-1,5
279,3.58647,1.031,-1,5
280,3.58751,1.044,-1,5
281,3.58856,1.053,-1,5
282,3.58960,1.041,-1,5
283,3.59062,1.022,-1,5
284,3.59165,1.026,-1,5
285,3.59269,1.041,-1,5
286,3.59373,1.037,-1,5
287,3.59474,1.013,-1,5
288,3.59574,1.004,-1,5
289,3.59676,1.019,-1,5
290,3.59780,1.033,-1,5
291,3.59881,1.017,-1,5
292,3.59981,0.993,-1,5
293,3.60080,0.995,-1,5
294,3.60182,1.016,-1,5
295,3.60283,0.989,-1,5
296,3.60382,0.989,-1,5
297,3.60480,0.991,-1,5
298,3.60579,0.991,-1,5
299,3.60780,0.998,-1,5
300,3.60877,0.969,-1,5
301,3.60877,0.964,-1,5
302,3.61072,0.987,-1,5
303,3.61172,0.999,-1,5
304,3.61269,0.977,-1,5
305,3.61365,0.954,-1,5
306,3.61461,0.960,-1,5
307,3.61559,0.985,-1,5
308,3.61657,0.982,-1,5
309,3.61753,0.955,-1,5
310,3.61846,0.934,-1,5
311,3.61942,0.955,-1,5
312,3.62039,0.976,-1,5
313,3.62136,0.970,-1,5
314,3.62230,0.938,-1,5
315,3.62323,0.944,-1,5
316,3.62513,0.962,-1,5
317,3.62608,0.950,-1,5
318,3.62700,0.918,-1,5
319,3.62791,0.913,-1,5
320,3.62885,0.937,-1,5
321,3.62980,0.949,-1,5
322,3.63073,0.934,-1,5
323,3.63164,0.903,-1,5
324,3.63253,0.898,-1,5
325,3.63346,0.924,-1,5
326,3.63440,0.937,-1,5
327,3.63531,0.914,-1,5
328,3.63620,0.892,-1,5
329,3.63709,0.892,-1,5
330,3.63801,0.915,-1,5
331,3.63893,0.923,-1,5
332,3.63983,0.902,-1,5
333,3.64071,0.881,-1,5
334,3.64249,0.901,-1,5
335,3.64340,0.910,-1,5
336,3.64429,0.890,-1,5
337,3.64517,0.872,-1,5
338,3.64604,0.874,-1,5
339,3.64693,0.888,-1,5
340,3.64782,0.893,-1,5
341,3.64870,0.877,-1,5
342,3.64956,0.862,-1,5
343,3.65043,0.865,-1,5
344,3.65218,0.876,-1,5
345,3.65304,0.866,-1,5
346,3.65390,0.856,-1,5
347,3.65476,0.858,-1,5
348,3.65562,0.862,-1,5
349,3.65648,0.859,-1,5
350,3.65733,0.851,-1,5
351,3.65818,0.849,-1,5
352,3.65903,0.850,-1,5
353,3.65988,0.848,-1,5
354,3.66072,0.845,-1,5
355,3.66156,0.842,-1,5
356,3.66241,0.846,-1,5
357,3.66325,0.846,-1,5
358,3.66409,0.838,-1,5
359,3.66492,0.831,-1,5
360,3.66575,0.831,-1,5
361,3.66659,0.839,-1,5
362,3.66743,0.840,-1,5
363,3.66826,0.832,-1,5
364,3.66909,0.822,-1,5
365,3.66991,0.829,-1,5
366,3.67074,0.833,-1,5
367,3.67240,0.826,-1,5
368,3.67321,0.815,-1,5
369,3.67321,0.811,-1,5
370,3.67402,0.811,-1,5
371,3.67566,0.823,-1,5
372,3.67566,0.819,-1,5
373,3.67648,0.809,-1,5
374,3.67810,0.806,-1,5
375,3.67891,0.810,-1,5
376,3.67972,0.813,-1,5
377,3.68053,0.808,-1,5
378,3.68133,0.804,-1,5
379,3.68214,0.802,-1,5
380,3.68294,0.801,-1,5
381,3.68374,0.799,-1,5
382,3.68453,0.798,-1,5
383,3.68533,0.798,-1,5
384,3.68613,0.798,-1,5
385,3.68692,0.796,-1,5
386,3.68772,0.791,-1,5
387,3.68929,0.789,-1,5
388,3.69009,0.794,-1,5
389,3.69088,0.792,-1,5
390,3.69166,0.785,-1,5
391,3.69245,0.782,-1,5
392,3.69323,0.783,-1,5
393,3.69402,0.788,-1,5
394,3.69480,0.786,-1,5
395,3.69558,0.782,-1,5
396,3.69636,0.778,-1,5
397,3.69792,0.780,-1,5
398,3.69870,0.780,-1,5
399,3.69948,0.778,-1,5
400,3.70025,0.777,-1,5
401,3.70103,0.776,-1,5
402,3.70181,0.777,-1,5
403,3.70258,0.770,-1,5
404,3.70335,0.769,-1,5
405,3.70412,0.771,-1,5
406,3.70489,0.774,-1,5
407,3.70566,0.772,-1,5
408,3.70643,0.761,-1,5
409,3.70795,0.765,-1,5
410,3.70872,0.770,-1,5
411,3.70949,0.767,-1,5
412,3.71025,0.757,-1,5
413,3.71100,0.753,-1,5
414,3.71176,0.756,-1,5
415,3.71251,0.757,-1,5
416,3.71327,0.755,-1,5
417,3.71402,0.750,-1,5
418,3.71477,0.749,-1,5
419,3.71552,0.749,-1,5
420,3.71701,0.745,-1,5
421,3.71776,0.742,-1,5
422,3.71850,0.742,-1,5
423,3.71924,0.743,-1,5
424,3.71998,0.743,-1,5
425,3.72072,0.732,-1,5
426,3.72145,0.729,-1,5
427,3.72218,0.736,-1,5
428,3.72292,0.738,-1,5
429,3.72365,0.735,-1,5
430,3.72438,0.730,-1,5
431,3.72511,0.724,-1,5
432,3.72583,0.726,-1,5
433,3.72656,0.729,-1,5
434,3.72729,0.724,-1,5
435,3.72801,0.722,-1,5
436,3.72873,0.719,-1,5
437,3.72945,0.720,-1,5
438,3.73017,0.720,-1,5
439,3.73088,0.715,-1,5
440,3.73160,0.715,-1,5
441,3.73231,0.715,-1,5
442,3.73303,0.715,-1,5
443,3.73374,0.715,-1,5
444,3.73445,0.706,-1,5
445,3.73516,0.706,-1,5
446,3.73657,0.709,-1,5
447,3.73728,0.708,-1,5
448,3.73798,0.702,-1,5
449,3.73868,0.700,-1,5
450,3.73938,0.702,-1,5
451,3.74009,0.703,-1,5
452,3.74078,0.697,-1,5
453,3.74148,0.697,-1,5
454,3.74218,0.696,-1,5
455,3.74287,0.697,-1,5
456,3.74357,0.692,-1,5
457,3.74426,0.690,-1,5
458,3.74494,0.691,-1,5
459,3.74563,0.691,-1,5
460,3.74702,0.691,-1,5
461,3.74770,0.684,-1,5
462,3.74839,0.685,-1,5
463,3.74907,0.684,-1,5
464,3.74975,0.684,-1,5
465,3.75043,0.680,-1,5
466,3.75111,0.681,-1,5
467,3.75180,0.681,-1,5
468,3.75247,0.679,-1,5
469,3.75315,0.677,-1,5
470,3.75383,0.675,-1,5
471,3.75450,0.675,-1,5
472,3.75518,0.675,-1,5
473,3.75585,0.677,-1,5
474,3.75652,0.671,-1,5
475,3.75719,0.669,-1,5
476,3.75786,0.668,-1,5
477,3.75919,0.665,-1,5
478,3.75985,0.659,-1,5
479,3.76051,0.662,-1,5
480,3.76118,0.662,-1,5
481,3.76184,0.661,-1,5
482,3.76184,0.661,-1,5
483,3.76250,0.658,-1,5
484,3.76315,0.654,-1,5
485,3.76380,0.654,-1,5
486,3.76445,0.651,-1,5
487,3.76575,0.647,-1,5
488,3.76639,0.643,-1,5
489,3.76703,0.641,-1,5
490,3.76768,0.642,-1,5
491,3.76831,0.637,-1,5
492,3.76895,0.633,-1,5
493,3.76958,0.635,-1,5
494,3.77022,0.636,-1,5
495,3.77085,0.631,-1,5
496,3.77147,0.626,-1,5
497,3.77210,0.625,-1,5
498,3.77272,0.624,-1,5
499,3.77334,0.622,-1,5
500,3.77458,0.615,-1,5
501,3.77519,0.616,-1,5
502,3.77581,0.613,-1,5
503,3.77581,0.610,-1,5
504,3.77642,0.610,-1,5
505,3.77702,0.608,-1,5
506,3.77763,0.605,-1,5
507,3.77823,0.603,-1,5
508,3.77883,0.601,-1,5
509,3.77943,0.599,-1,5
510,3.78003,0.597,-1,5
511,3.78062,0.592,-1,5
512,3.78121,0.590,-1,5
513,3.78180,0.589,-1,5
514,3.78239,0.585,-1,5
515,3.78296,0.579,-1,5
516,3.78354,0.578,-1,5
517,3.78412,0.578,-1,5
518,3.78470,0.576,-1,5
519,3.78527,0.570,-1,5
520,3.78583,0.565,-1,5
521,3.78639,0.563,-1,5
522,3.78751,0.555,-1,5
523,3.78806,0.548,-1,5
524,3.78860,0.546,-1,5
525,3.78915,0.544,-1,5
526,3.78969,0.541,-1,5
527,3.79022,0.532,-1,5
528,3.79075,0.528,-1,5
529,3.79127,0.525,-1,5
530,3.79180,0.522,-1,5
531,3.79231,0.517,-1,5
532,3.79282,0.510,-1,5
533,3.79333,0.507,-1,5
534,3.79384,0.504,-1,5
535,3.79434,0.501,-1,5
536,3.79483,0.494,-1,5
537,3.79532,0.487,-1,5
538,3.79580,0.482,-1,5
539,3.79628,0.478,-1,5
540,3.79675,0.475,-1,5
541,3.79768,0.461,-1,5
542,3.79814,0.458,-1,5
543,3.79859,0.453,-1,5
544,3.79904,0.447,-1,5
545,3.79948,0.443,-1,5
546,3.79992,0.439,-1,5
547,3.80035,0.436,-1,5
548,3.80079,0.431,-1,5
549,3.80121,0.425,-1,5
550,3.80163,0.420,-1,5
551,3.80205,0.417,-1,5
552,3.80246,0.413,-1,5
553,3.80287,0.407,-1,5
554,3.80327,0.400,-1,5
555,3.80405,0.392,-1,5
556,3.80405,0.389,-1,5
557,3.80444,0.389,-1,5
558,3.80483,0.382,-1,5
559,3.80520,0.377,-1,5
560,3.80557,0.372,-1,5
561,3.80594,0.366,-1,5
562,3.80630,0.364,-1,5
563,3.80666,0.351,-1,5
564,3.80736,0.346,-1,5
565,3.80770,0.343,-1,5
566,3.80804,0.337,-1,5
567,3.80837,0.333,-1,5
568,3.80870,0.327,-1,5
569,3.80902,0.325,-1,5
570,3.80934,0.320,-1,5
571,3.80966,0.315,-1,5
572,3.80997,0.310,-1,5
573,3.81028,0.305,-1,5
574,3.81058,0.301,-1,5
575,3.81087,0.295,-1,5
576,3.81116,0.290,-1,5
577,3.81144,0.282,-1,5
578,3.81172,0.278,-1,5
579,3.81199,0.273,-1,5
580,3.81226,0.267,-1,5
581,3.81252,0.260,-1,5
582,3.81277,0.255,-1,5
583,3.81302,0.250,-1,5
584,3.81327,0.244,-1,5
585,3.81351,0.239,-1,5
586,3.81374,0.233,-1,5
587,3.81397,0.228,-1,5
588,3.81419,0.218,-1,5
589,3.81462,0.210,-1,5
590,3.81483,0.205,-1,5
591,3.81502,0.199,-1,5
592,3.81522,0.193,-1,5
593,3.81540,0.186,-1,5
594,3.81558,0.179,-1,5
595,3.81575,0.172,-1,5
596,3.81592,0.164,-1,5
597,3.81608,0.160,-1,5
598,3.81623,0.150,-1,5
599,3.81637,0.144,-1,5
600,3.81651,0.138,-1,5
601,3.81664,0.131,-1,5
602,3.81677,0.124,-1,5
603,3.81688,0.119,-1,5
604,3.81699,0.109,-1,5
605,3.81710,0.107,-1,5
606,3.81720,0.099,-1,5
607,3.81729,0.091,-1,5
608,3.81738,0.087,-1,5
609,3.81746,0.080,-1,5
610,3.81753,0.074,-1,5
611,3.81760,0.069,-1,5
612,3.81766,0.063,-1,5
613,3.81772,0.057,-1,5
614,3.81777,0.050,-1,5
615,3.81781,0.044,-1,5
616,3.81789,0.033,-1,5
617,3.81791,0.027,-1,5
618,3.81794,0.021,-1,5
619,3.81795,0.015,-1,5
620,3.81796,0.009,-1,5
621,3.81796,0.003,-1,5
622,3.81796,-0.003,-1,5
623,3.81795,-0.007,-1,5
624,3.81794,-0.012,-1,5
625,3.81792,-0.016,-1,5
626,3.81790,-0.020,-1,5
627,3.81788,-0.023,-1,5
628,3.81785,-0.028,-1,5
629,3.81782,-0.031,-1,5
630,3.81779,-0.033,-1,5
631,3.81775,-0.038,-1,5
632,3.81771,-0.040,-1,5
633,3.81766,-0.046,-1,5
634,3.81761,-0.049,-1,5
635,3.81756,-0.054,-1,5
636,3.81750,-0.056,-1,5
637,3.81744,-0.059,-1,5
638,3.81738,-0.065,-1,5
639,3.81724,-0.073,-1,5
640,3.81716,-0.077,-1,5
641,3.81708,-0.083,-1,5
642,3.81699,-0.088,-1,5
643,3.81690,-0.090,-1,5
644,3.81680,-0.097,-1,5
645,3.81670,-0.102,-1,5
646,3.81659,-0.106,-1,5
647,3.81648,-0.113,-1,5
648,3.81636,-0.118,-1,5
649,3.81624,-0.129,-1,5
650,3.81611,-0.135,-1,5
651,3.81584,-0.140,-1,5
652,3.81569,-0.146,-1,5
653,3.81554,-0.151,-1,5
654,3.81538,-0.157,-1,5
655,3.81522,-0.162,-1,5
656,3.81505,-0.169,-1,5
657,3.81488,-0.173,-1,5
658,3.81470,-0.178,-1,5
659,3.81452,-0.183,-1,5
660,3.81433,-0.187,-1,5
661,3.81414,-0.191,-1,5
662,3.81394,-0.197,-1,5
663,3.81374,-0.199,-1,5
664,3.81354,-0.204,-1,5
665,3.81333,-0.208,-1,5
666,3.81312,-0.213,-1,5
667,3.81290,-0.215,-1,5
668,3.81268,-0.220,-1,5
669,3.81246,-0.224,-1,5
670,3.81223,-0.228,-1,5
671,3.81200,-0.233,-1,5
672,3.81176,-0.237,-1,5
673,3.81152,-0.241,-1,5
674,3.81127,-0.246,-1,5
675,3.81102,-0.251,-1,5
676,3.81077,-0.255,-1,5
677,3.81051,-0.259,-1,5
678,3.81025,-0.263,-1,5
679,3.80998,-0.267,-1,5
680,3.80971,-0.270,-1,5
681,3.80944,-0.277,-1,5
682,3.80916,-0.277,-1,5
683,3.80888,-0.285,-1,5
684,3.80859,-0.285,-1,5
685,3.80831,-0.292,-1,5
686,3.80801,-0.292,-1,5
687,3.80742,-0.300,-1,5
688,3.80712,-0.303,-1,5
689,3.80681,-0.309,-1,5
690,3.80650,-0.313,-1,5
691,3.80618,-0.316,-1,5
692,3.80586,-0.322,-1,5
693,3.80553,-0.328,-1,5
694,3.80520,-0.332,-1,5
695,3.80486,-0.337,-1,5
696,3.80452,-0.339,-1,5
697,3.80418,-0.345,-1,5
698,3.80383,-0.351,-1,5
699,3.80347,-0.355,-1,5
700,3.80311,-0.357,-1,5
701,3.80275,-0.362,-1,5
702,3.80238,-0.368,-1,5
703,3.80201,-0.373,-1,5
704,3.80163,-0.377,-1,5
705,3.80125,-0.382,-1,5
706,3.80087,-0.385,-1,5
707,3.80048,-0.391,-1,5
708,3.80008,-0.394,-1,5
709,3.79968,-0.398,-1,5
710,3.79928,-0.405,-1,5
711,3.79888,-0.410,-1,5
712,3.79806,-0.413,-1,5
713,3.79764,-0.417,-1,5
714,3.79722,-0.422,-1,5
715,3.79679,-0.427,-1,5
716,3.79636,-0.432,-1,5
717,3.79592,-0.435,-1,5
718,3.79548,-0.440,-1,5
719,3.79504,-0.442,-1,5
720,3.79459,-0.449,-1,5
721,3.79414,-0.454,-1,5
722,3.79368,-0.456,-1,5
723,3.79322,-0.461,-1,5
724,3.79276,-0.464,-1,5
725,3.79229,-0.467,-1,5
726,3.79182,-0.471,-1,5
727,3.79134,-0.474,-1,5
728,3.79087,-0.477,-1,5
729,3.79039,-0.479,-1,5
730,3.78990,-0.485,-1,5
731,3.78942,-0.487,-1,5
732,3.78893,-0.490,-1,5
733,3.78843,-0.493,-1,5
734,3.78794,-0.496,-1,5
735,3.78693,-0.503,-1,5
736,3.78693,-0.507,-1,5
737,3.78643,-0.510,-1,5
738,3.78592,-0.510,-1,5
739,3.78540,-0.514,-1,5
740,3.78488,-0.518,-1,5
741,3.78384,-0.523,-1,5
742,3.78331,-0.526,-1,5
743,3.78278,-0.530,-1,5
744,3.78225,-0.533,-1,5
745,3.78172,-0.534,-1,5
746,3.78118,-0.536,-1,5
747,3.78064,-0.540,-1,5
748,3.78010,-0.546,-1,5
749,3.77955,-0.549,-1,5
750,3.77900,-0.550,-1,5
751,3.77844,-0.553,-1,5
752,3.77788,-0.558,-1,5
753,3.77732,-0.564,-1,5
754,3.77676,-0.564,-1,5
755,3.77619,-0.565,-1,5
756,3.77562,-0.570,-1,5
757,3.77504,-0.577,-1,5
758,3.77446,-0.581,-1,5
759,3.77388,-0.579,-1,5
760,3.77330,-0.583,-1,5
761,3.77272,-0.587,-1,5
762,3.77212,-0.594,-1,5
763,3.77153,-0.596,-1,5
764,3.77093,-0.596,-1,5
765,3.77033,-0.602,-1,5
766,3.76972,-0.608,-1,5
767,3.76911,-0.612,-1,5
768,3.76849,-0.613,-1,5
769,3.76788,-0.615,-1,5
770,3.76726,-0.619,-1,5
771,3.76664,-0.624,-1,5
772,3.76601,-0.628,-1,5
773,3.76538,-0.631,-1,5
774,3.76474,-0.640,-1,5
775,3.76410,-0.640,-1,5
776,3.76281,-0.644,-1,5
777,3.76217,-0.647,-1,5
778,3.76151,-0.653,-1,5
779,3.76086,-0.657,-1,5
780,3.76020,-0.662,-1,5
781,3.75953,-0.662,-1,5
782,3.75887,-0.663,-1,5
783,3.75820,-0.669,-1,5
784,3.75753,-0.670,-1,5
785,3.75686,-0.676,-1,5
786,3.75618,-0.679,-1,5
787,3.75550,-0.682,-1,5
788,3.75412,-0.689,-1,5
789,3.75412,-0.692,-1,5
790,3.75343,-0.692,-1,5
791,3.75274,-0.691,-1,5
792,3.75204,-0.694,-1,5
793,3.75134,-0.700,-1,5
794,3.75064,-0.705,-1,5
795,3.74923,-0.706,-1,5
796,3.74851,-0.713,-1,5
797,3.74780,-0.713,-1,5
798,3.74708,-0.718,-1,5
799,3.74636,-0.721,-1,5
800,3.74564,-0.724,-1,5
801,3.74491,-0.727,-1,5
802,3.74418,-0.727,-1,5
803,3.74345,-0.729,-1,5
804,3.74272,-0.734,-1,5
805,3.74198,-0.738,-1,5
806,3.74049,-0.746,-1,5
807,3.73975,-0.747,-1,5
808,3.73900,-0.750,-1,5
809,3.73824,-0.753,-1,5
810,3.73748,-0.760,-1,5
811,3.73672,-0.761,-1,5
812,3.73596,-0.761,-1,5
813,3.73520,-0.764,-1,5
814,3.73443,-0.766,-1,5
815,3.73366,-0.769,-1,5
816,3.73289,-0.773,-1,5
817,3.73211,-0.777,-1,5
818,3.73133,-0.783,-1,5
819,3.73055,-0.783,-1,5
820,3.72976,-0.785,-1,5
821,3.72898,-0.783,-1,5
822,3.72819,-0.787,-1,5
823,3.72740,-0.793,-1,5
824,3.72660,-0.795,-1,5
825,3.72581,-0.797,-1,5
826,3.72421,-0.799,-1,5
827,3.72341,-0.802,-1,5
828,3.72260,-0.808,-1,5
829,3.72179,-0.809,-1,5
830,3.72099,-0.807,-1,5
831,3.72018,-0.806,-1,5
832,3.71937,-0.808,-1,5
833,3.71856,-0.814,-1,5
834,3.71774,-0.819,-1,5
835,3.71692,-0.820,-1,5
836,3.71610,-0.818,-1,5
837,3.71528,-0.819,-1,5
838,3.71446,-0.822,-1,5
839,3.71363,-0.829,-1,5
840,3.71280,-0.833,-1,5
841,3.71197,-0.830,-1,5
842,3.71114,-0.827,-1,5
843,3.71031,-0.829,-1,5
844,3.70948,-0.836,-1,5
845,3.70863,-0.843,-1,5
846,3.70779,-0.845,-1,5
847,3.70694,-0.843,-1,5
848,3.70610,-0.843,-1,5
849,3.70526,-0.844,-1,5
850,3.70441,-0.850,-1,5
851,3.70355,-0.854,-1,5
852,3.70270,-0.855,-1,5
853,3.70184,-0.854,-1,5
854,3.70099,-0.853,-1,5
855,3.70013,-0.858,-1,5
856,3.69927,-0.865,-1,5
857,3.69840,-0.867,-1,5
858,3.69753,-0.868,-1,5
859,3.69667,-0.864,-1,5
860,3.69580,-0.866,-1,5
861,3.69493,-0.871,-1,5
862,3.69405,-0.878,-1,5
