cnt,pos,speed,Dir,Force,
1,6.22665,3.475,-1,5
2,6.23013,3.482,-1,5
3,6.23362,3.488,-1,5
4,6.23711,3.490,-1,5
5,6.24061,3.496,-1,5
6,6.24411,3.503,-1,5
7,6.24761,3.511,-1,5
8,6.25463,3.512,-1,5
9,6.25815,3.515,-1,5
10,6.26167,3.519,-1,5
11,6.26519,3.526,-1,5
12,6.26872,3.525,-1,5
13,6.27224,3.524,-1,5
14,6.27577,3.525,-1,5
15,6.27930,3.534,-1,5
16,6.28284,3.533,-1,5
17,6.28637,3.531,-1,5
18,6.28990,3.532,-1,5
19,6.29697,3.538,-1,5
20,6.30051,3.536,-1,5
21,6.30404,3.535,-1,5
22,6.30758,3.533,-1,5
23,6.31111,3.536,-1,5
24,6.31465,3.536,-1,5
25,6.31819,3.537,-1,5
26,6.32172,3.533,-1,5
27,6.32525,3.529,-1,5
28,6.32878,3.531,-1,5
29,6.33231,3.531,-1,5
30,6.33584,3.528,-1,5
31,6.33936,3.523,-1,5
32,6.34288,3.521,-1,5
33,6.34640,3.520,-1,5
34,6.34992,3.517,-1,5
35,6.35343,3.514,-1,5
36,6.35694,3.509,-1,5
37,6.36045,3.506,-1,5
38,6.36395,3.505,-1,5
39,6.36745,3.498,-1,5
40,6.37094,3.496,-1,5
41,6.37444,3.493,-1,5
42,6.37792,3.486,-1,5
43,6.38141,3.484,-1,5
44,6.38488,3.475,-1,5
45,6.38836,3.474,-1,5
46,6.39183,3.470,-1,5
47,6.39529,3.460,-1,5
48,6.39874,3.454,-1,5
49,6.40219,3.448,-1,5
50,6.40563,3.444,-1,5
51,6.40907,3.438,-1,5
52,6.41250,3.430,-1,5
53,6.41592,3.412,-1,5
54,6.41933,3.411,-1,5
55,6.42614,3.398,-1,5
56,6.42954,3.393,-1,5
57,6.43292,3.385,-1,5
58,6.43630,3.377,-1,5
59,6.43966,3.368,-1,5
60,6.44303,3.361,-1,5
61,6.44637,3.349,-1,5
62,6.44972,3.342,-1,5
63,6.45305,3.336,-1,5
64,6.45638,3.329,-1,5
65,6.45970,3.319,-1,5
66,6.46301,3.307,-1,5
67,6.46631,3.301,-1,5
68,6.46960,3.281,-1,5
69,6.47288,3.281,-1,5
70,6.47616,3.275,-1,5
71,6.47942,3.262,-1,5
72,6.48267,3.245,-1,5
73,6.48915,3.235,-1,5
74,6.49237,3.226,-1,5
75,6.49559,3.213,-1,5
76,6.49879,3.205,-1,5
77,6.50199,3.193,-1,5
78,6.50517,3.185,-1,5
79,6.50835,3.180,-1,5
80,6.51152,3.166,-1,5
81,6.51468,3.158,-1,5
82,6.51782,3.146,-1,5
83,6.52096,3.138,-1,5
84,6.52409,3.129,-1,5
85,6.52720,3.117,-1,5
86,6.53031,3.105,-1,5
87,6.53341,3.100,-1,5
88,6.53650,3.087,-1,5
89,6.53957,3.074,-1,5
90,6.54264,3.064,-1,5
91,6.54569,3.057,-1,5
92,6.54873,3.041,-1,5
93,6.55177,3.032,-1,5
94,6.55478,3.019,-1,5
95,6.55779,3.003,-1,5
96,6.56079,2.999,-1,5
97,6.56377,2.988,-1,5
98,6.56675,2.971,-1,5
99,6.56971,2.960,-1,5
100,6.57265,2.948,-1,5
101,6.57559,2.934,-1,5
102,6.57852,2.929,-1,5
103,6.58143,2.910,-1,5
104,6.58433,2.900,-1,5
105,6.58721,2.884,-1,5
106,6.59009,2.878,-1,5
107,6.59295,2.865,-1,5
108,6.59580,2.847,-1,5
109,6.59863,2.833,-1,5
110,6.60146,2.825,-1,5
111,6.60426,2.808,-1,5
112,6.60985,2.785,-1,5
113,6.61262,2.768,-1,5
114,6.61537,2.753,-1,5
115,6.61811,2.744,-1,5
116,6.62085,2.733,-1,5
117,6.62356,2.714,-1,5
118,6.62626,2.702,-1,5
119,6.62895,2.685,-1,5
120,6.63162,2.675,-1,5
121,6.63428,2.646,-1,5
122,6.63693,2.646,-1,5
123,6.63956,2.612,-1,5
124,6.64217,2.612,-1,5
125,6.64478,2.591,-1,5
126,6.64737,2.591,-1,5
127,6.64994,2.574,-1,5
128,6.65250,2.543,-1,5
129,6.65757,2.530,-1,5
130,6.66009,2.515,-1,5
131,6.66259,2.501,-1,5
132,6.66507,2.485,-1,5
133,6.66754,2.467,-1,5
134,6.67000,2.457,-1,5
135,6.67244,2.443,-1,5
136,6.67487,2.427,-1,5
137,6.67727,2.406,-1,5
138,6.67967,2.391,-1,5
139,6.68205,2.381,-1,5
140,6.68441,2.365,-1,5
141,6.68676,2.353,-1,5
142,6.68909,2.327,-1,5
143,6.69141,2.316,-1,5
144,6.69371,2.302,-1,5
145,6.69600,2.289,-1,5
146,6.69827,2.271,-1,5
147,6.70052,2.253,-1,5
148,6.70276,2.238,-1,5
149,6.70498,2.222,-1,5
150,6.70718,2.204,-1,5
151,6.70938,2.193,-1,5
152,6.71156,2.180,-1,5
153,6.71372,2.157,-1,5
154,6.71586,2.140,-1,5
155,6.71798,2.129,-1,5
156,6.72010,2.115,-1,5
157,6.72220,2.097,-1,5
158,6.72428,2.064,-1,5
159,6.72634,2.047,-1,5
160,6.72839,2.047,-1,5
161,6.73042,2.034,-1,5
162,6.73244,2.021,-1,5
163,6.73445,2.005,-1,5
164,6.73643,1.978,-1,5
165,6.73839,1.966,-1,5
166,6.74035,1.942,-1,5
167,6.74421,1.917,-1,5
168,6.74611,1.895,-1,5
169,6.74800,1.893,-1,5
170,6.74988,1.879,-1,5
171,6.75174,1.856,-1,5
172,6.75357,1.833,-1,5
173,6.75538,1.817,-1,5
174,6.75720,1.814,-1,5
175,6.75899,1.796,-1,5
176,6.76076,1.770,-1,5
177,6.76251,1.749,-1,5
178,6.76425,1.730,-1,5
179,6.76598,1.730,-1,5
180,6.76769,1.712,-1,5
181,6.76938,1.686,-1,5
182,6.77105,1.668,-1,5
183,6.77270,1.653,-1,5
184,6.77434,1.642,-1,5
185,6.77597,1.628,-1,5
186,6.77916,1.583,-1,5
187,6.78073,1.569,-1,5
188,6.78228,1.554,-1,5
189,6.78382,1.537,-1,5
190,6.78535,1.527,-1,5
191,6.78685,1.503,-1,5
192,6.78833,1.482,-1,5
193,6.78979,1.462,-1,5
194,6.79124,1.450,-1,5
195,6.79268,1.437,-1,5
196,6.79410,1.424,-1,5
197,6.79550,1.400,-1,5
198,6.79687,1.371,-1,5
199,6.79823,1.354,-1,5
200,6.79958,1.350,-1,5
201,6.80092,1.338,-1,5
202,6.80223,1.313,-1,5
203,6.80352,1.287,-1,5
204,6.80478,1.268,-1,5
205,6.80604,1.256,-1,5
206,6.80728,1.243,-1,5
207,6.80851,1.231,-1,5
208,6.80972,1.205,-1,5
209,6.81089,1.176,-1,5
210,6.81206,1.165,-1,5
211,6.81322,1.160,-1,5
212,6.81436,1.138,-1,5
213,6.81547,1.108,-1,5
214,6.81656,1.091,-1,5
215,6.81871,1.071,-1,5
216,6.81975,1.040,-1,5
217,6.82077,1.012,-1,5
218,6.82177,1.008,-1,5
219,6.82277,1.001,-1,5
220,6.82375,0.979,-1,5
221,6.82470,0.944,-1,5
222,6.82563,0.929,-1,5
223,6.82655,0.928,-1,5
224,6.82747,0.914,-1,5
225,6.82835,0.882,-1,5
226,6.82920,0.845,-1,5
227,6.83005,0.845,-1,5
228,6.83089,0.846,-1,5
229,6.83172,0.830,-1,5
230,6.83251,0.793,-1,5
231,6.83328,0.766,-1,5
232,6.83404,0.760,-1,5
233,6.83480,0.761,-1,5
234,6.83554,0.741,-1,5
235,6.83625,0.705,-1,5
236,6.83693,0.681,-1,5
237,6.83760,0.676,-1,5
238,6.83828,0.673,-1,5
239,6.83893,0.651,-1,5
240,6.83955,0.619,-1,5
241,6.84015,0.601,-1,5
242,6.84133,0.587,-1,5
243,6.84190,0.562,-1,5
244,6.84243,0.533,-1,5
245,6.84295,0.520,-1,5
246,6.84346,0.516,-1,5
247,6.84397,0.503,-1,5
248,6.84444,0.476,-1,5
249,6.84489,0.449,-1,5
250,6.84533,0.440,-1,5
251,6.84577,0.436,-1,5
252,6.84619,0.418,-1,5
253,6.84658,0.391,-1,5
254,6.84694,0.368,-1,5
255,6.84731,0.362,-1,5
256,6.84766,0.354,-1,5
257,6.84799,0.332,-1,5
258,6.84830,0.305,-1,5
259,6.84859,0.288,-1,5
260,6.84887,0.283,-1,5
261,6.84914,0.271,-1,5
262,6.84939,0.246,-1,5
263,6.84961,0.223,-1,5
264,6.84982,0.212,-1,5
265,6.85003,0.206,-1,5
266,6.85022,0.191,-1,5
267,6.85038,0.166,-1,5
268,6.85053,0.148,-1,5
269,6.85067,0.139,-1,5
270,6.85080,0.132,-1,5
271,6.85091,0.111,-1,5
272,6.85100,0.090,-1,5
273,6.85108,0.074,-1,5
274,6.85114,0.066,-1,5
275,6.85120,0.055,-1,5
276,6.85123,0.035,-1,5
277,6.85125,0.013,-1,5
278,6.85125,-0.006,-1,5
279,6.85122,-0.019,-1,5
280,6.85118,-0.040,-1,5
281,6.85113,-0.054,-1,5
282,6.85107,-0.061,-1,5
283,6.85100,-0.070,-1,5
284,6.85091,-0.086,-1,5
285,6.85081,-0.102,-1,5
286,6.85070,-0.112,-1,5
287,6.85058,-0.118,-1,5
288,6.85045,-0.129,-1,5
289,6.85031,-0.144,-1,5
290,6.84999,-0.166,-1,5
291,6.84981,-0.174,-1,5
292,6.84963,-0.185,-1,5
293,6.84963,-0.201,-1,5
294,6.84943,-0.201,-1,5
295,6.84921,-0.216,-1,5
296,6.84899,-0.221,-1,5
297,6.84876,-0.231,-1,5
298,6.84851,-0.246,-1,5
299,6.84798,-0.273,-1,5
300,6.84769,-0.281,-1,5
301,6.84740,-0.294,-1,5
302,6.84709,-0.310,-1,5
303,6.84677,-0.325,-1,5
304,6.84643,-0.333,-1,5
305,6.84609,-0.341,-1,5
306,6.84574,-0.356,-1,5
307,6.84537,-0.371,-1,5
308,6.84498,-0.381,-1,5
309,6.84459,-0.391,-1,5
310,6.84419,-0.399,-1,5
311,6.84378,-0.413,-1,5
312,6.84335,-0.428,-1,5
313,6.84291,-0.439,-1,5
314,6.84247,-0.446,-1,5
315,6.84201,-0.457,-1,5
316,6.84154,-0.471,-1,5
317,6.84106,-0.484,-1,5
318,6.84057,-0.492,-1,5
319,6.84006,-0.502,-1,5
320,6.83955,-0.514,-1,5
321,6.83902,-0.528,-1,5
322,6.83848,-0.538,-1,5
323,6.83794,-0.546,-1,5
324,6.83738,-0.557,-1,5
325,6.83681,-0.570,-1,5
326,6.83623,-0.581,-1,5
327,6.83564,-0.592,-1,5
328,6.83504,-0.601,-1,5
329,6.83442,-0.612,-1,5
330,6.83380,-0.626,-1,5
331,6.83316,-0.637,-1,5
332,6.83251,-0.647,-1,5
333,6.83186,-0.654,-1,5
334,6.83120,-0.664,-1,5
335,6.82983,-0.691,-1,5
336,6.82913,-0.698,-1,5
337,6.82842,-0.705,-1,5
338,6.82770,-0.718,-1,5
339,6.82698,-0.729,-1,5
340,6.82624,-0.739,-1,5
341,6.82548,-0.752,-1,5
342,6.82472,-0.762,-1,5
343,6.82395,-0.774,-1,5
344,6.82316,-0.784,-1,5
345,6.82237,-0.792,-1,5
346,6.82076,-0.812,-1,5
347,6.81993,-0.827,-1,5
348,6.81910,-0.837,-1,5
349,6.81825,-0.846,-1,5
350,6.81740,-0.852,-1,5
351,6.81653,-0.866,-1,5
352,6.81565,-0.882,-1,5
353,6.81476,-0.895,-1,5
354,6.81386,-0.900,-1,5
355,6.81295,-0.904,-1,5
356,6.81204,-0.916,-1,5
357,6.81110,-0.933,-1,5
358,6.81016,-0.946,-1,5
359,6.80921,-0.953,-1,5
360,6.80825,-0.955,-1,5
361,6.80728,-0.968,-1,5
362,6.80630,-0.985,-1,5
363,6.80530,-1.000,-1,5
364,6.80429,-1.004,-1,5
365,6.80329,-0.999,-1,5
366,6.80228,-1.012,-1,5
367,6.80125,-1.034,-1,5
368,6.80019,-1.056,-1,5
369,6.79913,-1.058,-1,5
370,6.79808,-1.054,-1,5
371,6.79702,-1.059,-1,5
372,6.79594,-1.084,-1,5
373,6.79483,-1.103,-1,5
374,6.79373,-1.104,-1,5
375,6.79263,-1.099,-1,5
376,6.79152,-1.112,-1,5
377,6.79038,-1.139,-1,5
378,6.78922,-1.156,-1,5
379,6.78807,-1.148,-1,5
380,6.78693,-1.144,-1,5
381,6.78577,-1.161,-1,5
382,6.78458,-1.187,-1,5
383,6.78338,-1.202,-1,5
384,6.78218,-1.199,-1,5
385,6.78098,-1.206,-1,5
386,6.77978,-1.206,-1,5
387,6.77855,-1.224,-1,5
388,6.77732,-1.237,-1,5
389,6.77606,-1.252,-1,5
390,6.77481,-1.251,-1,5
391,6.77356,-1.260,-1,5
392,6.77230,-1.282,-1,5
393,6.76973,-1.291,-1,5
394,6.76844,-1.290,-1,5
395,6.76715,-1.295,-1,5
396,6.76584,-1.309,-1,5
397,6.76452,-1.319,-1,5
398,6.76319,-1.327,-1,5
399,6.76186,-1.334,-1,5
400,6.76052,-1.340,-1,5
401,6.75917,-1.349,-1,5
402,6.75781,-1.374,-1,5
403,6.75506,-1.371,-1,5
404,6.75369,-1.375,-1,5
405,6.75230,-1.390,-1,5
406,6.75230,-1.407,-1,5
407,6.74948,-1.412,-1,5
408,6.74807,-1.409,-1,5
409,6.74666,-1.412,-1,5
410,6.74524,-1.423,-1,5
411,6.74379,-1.445,-1,5
412,6.74233,-1.459,-1,5
413,6.74088,-1.451,-1,5
414,6.73944,-1.443,-1,5
415,6.73798,-1.454,-1,5
416,6.73651,-1.478,-1,5
417,6.73501,-1.497,-1,5
418,6.73351,-1.499,-1,5
419,6.73203,-1.484,-1,5
420,6.73054,-1.482,-1,5
421,6.72904,-1.505,-1,5
422,6.72750,-1.536,-1,5
423,6.72596,-1.540,-1,5
424,6.72443,-1.530,-1,5
425,6.72292,-1.517,-1,5
426,6.72138,-1.533,-1,5
427,6.71982,-1.562,-1,5
428,6.71824,-1.584,-1,5
429,6.71666,-1.573,-1,5
430,6.71511,-1.553,-1,5
431,6.71355,-1.560,-1,5
432,6.71196,-1.593,-1,5
433,6.71034,-1.619,-1,5
434,6.70872,-1.616,-1,5
435,6.70713,-1.593,-1,5
436,6.70554,-1.592,-1,5
437,6.70391,-1.625,-1,5
438,6.70226,-1.653,-1,5
439,6.70061,-1.636,-1,5
440,6.69734,-1.628,-1,5
441,6.69569,-1.654,-1,5
442,6.69400,-1.686,-1,5
443,6.69231,-1.690,-1,5
444,6.69064,-1.676,-1,5
445,6.68897,-1.667,-1,5
446,6.68728,-1.686,-1,5
447,6.68557,-1.714,-1,5
448,6.68384,-1.724,-1,5
449,6.68213,-1.713,-1,5
450,6.68042,-1.709,-1,5
451,6.67870,-1.718,-1,5
452,6.67696,-1.742,-1,5
453,6.67521,-1.752,-1,5
454,6.67346,-1.749,-1,5
455,6.66996,-1.751,-1,5
456,6.66819,-1.764,-1,5
457,6.66641,-1.786,-1,5
458,6.66461,-1.793,-1,5
459,6.66282,-1.788,-1,5
460,6.66104,-1.781,-1,5
461,6.65925,-1.792,-1,5
462,6.65743,-1.816,-1,5
463,6.65561,-1.829,-1,5
464,6.65378,-1.824,-1,5
465,6.65197,-1.813,-1,5
466,6.65015,-1.824,-1,5
467,6.64830,-1.848,-1,5
468,6.64643,-1.866,-1,5
469,6.64457,-1.858,-1,5
470,6.64272,-1.849,-1,5
471,6.64087,-1.855,-1,5
472,6.63899,-1.882,-1,5
473,6.63709,-1.898,-1,5
474,6.63520,-1.893,-1,5
475,6.63331,-1.888,-1,5
476,6.63142,-1.891,-1,5
477,6.62951,-1.912,-1,5
478,6.62758,-1.928,-1,5
479,6.62565,-1.932,-1,5
480,6.62372,-1.927,-1,5
481,6.62179,-1.927,-1,5
482,6.61985,-1.944,-1,5
483,6.61788,-1.966,-1,5
484,6.61591,-1.976,-1,5
485,6.61394,-1.968,-1,5
486,6.61198,-1.963,-1,5
487,6.60999,-1.983,-1,5
488,6.60799,-2.006,-1,5
489,6.60597,-2.017,-1,5
490,6.60396,-2.008,-1,5
491,6.60195,-2.010,-1,5
492,6.59992,-2.029,-1,5
493,6.59788,-2.045,-1,5
494,6.59582,-2.054,-1,5
495,6.59377,-2.052,-1,5
496,6.58964,-2.071,-1,5
497,6.58755,-2.086,-1,5
498,6.58755,-2.086,-1,5
499,6.58335,-2.105,-1,5
500,6.58335,-2.105,-1,5
501,6.58125,-2.117,-1,5
502,6.57913,-2.117,-1,5
503,6.57485,-2.144,-1,5
504,6.57270,-2.148,-1,5
505,6.57055,-2.154,-1,5
506,6.56838,-2.167,-1,5
507,6.56620,-2.180,-1,5
508,6.56401,-2.188,-1,5
509,6.56182,-2.200,-1,5
510,6.55961,-2.208,-1,5
511,6.55740,-2.211,-1,5
512,6.55517,-2.224,-1,5
513,6.55293,-2.241,-1,5
514,6.55068,-2.250,-1,5
515,6.54617,-2.263,-1,5
516,6.54389,-2.279,-1,5
517,6.54160,-2.289,-1,5
518,6.53930,-2.297,-1,5
519,6.53700,-2.307,-1,5
520,6.53468,-2.313,-1,5
521,6.53236,-2.325,-1,5
522,6.53002,-2.341,-1,5
523,6.52767,-2.348,-1,5
524,6.52531,-2.355,-1,5
525,6.52295,-2.366,-1,5
526,6.52057,-2.379,-1,5
527,6.51818,-2.387,-1,5
528,6.51579,-2.397,-1,5
529,6.51338,-2.408,-1,5
530,6.51096,-2.418,-1,5
531,6.50853,-2.426,-1,5
532,6.50609,-2.441,-1,5
533,6.50364,-2.451,-1,5
534,6.50118,-2.459,-1,5
535,6.49872,-2.467,-1,5
536,6.49623,-2.483,-1,5
537,6.49374,-2.492,-1,5
538,6.49124,-2.505,-1,5
539,6.48873,-2.512,-1,5
540,6.48621,-2.521,-1,5
541,6.48367,-2.536,-1,5
542,6.48112,-2.546,-1,5
543,6.47857,-2.555,-1,5
544,6.47600,-2.566,-1,5
545,6.47342,-2.579,-1,5
546,6.47084,-2.600,-1,5
547,6.46824,-2.600,-1,5
548,6.46301,-2.621,-1,5
549,6.46038,-2.629,-1,5
550,6.45773,-2.643,-1,5
551,6.45508,-2.649,-1,5
552,6.45242,-2.661,-1,5
553,6.44975,-2.672,-1,5
554,6.44707,-2.682,-1,5
555,6.44438,-2.692,-1,5
556,6.44168,-2.702,-1,5
557,6.43896,-2.711,-1,5
558,6.43624,-2.723,-1,5
559,6.43351,-2.733,-1,5
560,6.43077,-2.742,-1,5
561,6.42801,-2.755,-1,5
562,6.42525,-2.765,-1,5
563,6.42247,-2.773,-1,5
564,6.41969,-2.784,-1,5
565,6.41689,-2.796,-1,5
566,6.41409,-2.804,-1,5
567,6.41127,-2.816,-1,5
568,6.40561,-2.836,-1,5
569,6.40277,-2.846,-1,5
570,6.39991,-2.854,-1,5
571,6.39705,-2.869,-1,5
572,6.39417,-2.880,-1,5
573,6.39128,-2.886,-1,5
574,6.38838,-2.896,-1,5
575,6.38548,-2.907,-1,5
576,6.38256,-2.920,-1,5
577,6.37963,-2.931,-1,5
578,6.37669,-2.938,-1,5
579,6.37374,-2.951,-1,5
580,6.37078,-2.959,-1,5
581,6.36781,-2.971,-1,5
582,6.36482,-2.983,-1,5
583,6.36183,-2.996,-1,5
584,6.35883,-3.002,-1,5
585,6.35581,-3.012,-1,5
586,6.35279,-3.022,-1,5
587,6.34975,-3.038,-1,5
588,6.34670,-3.048,-1,5
589,6.34365,-3.056,-1,5
590,6.34058,-3.068,-1,5
591,6.33750,-3.078,-1,5
592,6.33441,-3.089,-1,5
593,6.33131,-3.102,-1,5
594,6.32820,-3.111,-1,5
595,6.32508,-3.119,-1,5
596,6.32195,-3.130,-1,5
597,6.31881,-3.141,-1,5
598,6.31566,-3.153,-1,5
599,6.31249,-3.166,-1,5
600,6.30932,-3.172,-1,5
601,6.30614,-3.184,-1,5
602,6.30294,-3.193,-1,5
603,6.29974,-3.207,-1,5
604,6.29652,-3.225,-1,5
605,6.29329,-3.235,-1,5
606,6.28681,-3.248,-1,5
607,6.28355,-3.260,-1,5
608,6.28028,-3.268,-1,5
609,6.27700,-3.279,-1,5
610,6.27371,-3.290,-1,5
611,6.27041,-3.300,-1,5
612,6.26710,-3.312,-1,5
613,6.26378,-3.323,-1,5
614,6.26044,-3.334,-1,5
615,6.25710,-3.344,-1,5
616,6.25374,-3.367,-1,5
617,6.25038,-3.376,-1,5
618,6.24700,-3.385,-1,5
619,6.24361,-3.385,-1,5
620,6.24022,-3.399,-1,5
621,6.23680,-3.411,-1,5
622,6.23339,-3.432,-1,5
623,6.22995,-3.441,-1,5
