cnt,pos,speed,Dir,Force,
1,6.44635,1.547,-1,5
2,6.44791,1.562,-1,5
3,6.44948,1.574,-1,5
4,6.45106,1.578,-1,5
5,6.45264,1.577,-1,5
6,6.45422,1.583,-1,5
7,6.45583,1.607,-1,5
8,6.45745,1.619,-1,5
9,6.45907,1.620,-1,5
10,6.46069,1.622,-1,5
11,6.46232,1.627,-1,5
12,6.46397,1.649,-1,5
13,6.46564,1.670,-1,5
14,6.46731,1.669,-1,5
15,6.46897,1.664,-1,5
16,6.47064,1.674,-1,5
17,6.47234,1.694,-1,5
18,6.47405,1.718,-1,5
19,6.47578,1.722,-1,5
20,6.47749,1.710,-1,5
21,6.47921,1.721,-1,5
22,6.48095,1.745,-1,5
23,6.48272,1.769,-1,5
24,6.48449,1.770,-1,5
25,6.48625,1.763,-1,5
26,6.48802,1.769,-1,5
27,6.48982,1.800,-1,5
28,6.49164,1.819,-1,5
29,6.49347,1.823,-1,5
30,6.49528,1.813,-1,5
31,6.49711,1.856,-1,5
32,6.49896,1.871,-1,5
33,6.50271,1.873,-1,5
34,6.50271,1.876,-1,5
35,6.50458,1.888,-1,5
36,6.50647,1.907,-1,5
37,6.51030,1.922,-1,5
38,6.51223,1.933,-1,5
39,6.51417,1.936,-1,5
40,6.51611,1.941,-1,5
41,6.51807,1.961,-1,5
42,6.52005,1.979,-1,5
43,6.52204,1.994,-1,5
44,6.52403,1.990,-1,5
45,6.52603,1.994,-1,5
46,6.52805,2.018,-1,5
47,6.53009,2.042,-1,5
48,6.53214,2.048,-1,5
49,6.53417,2.037,-1,5
50,6.53623,2.055,-1,5
51,6.53831,2.078,-1,5
52,6.54040,2.096,-1,5
53,6.54250,2.095,-1,5
54,6.54460,2.100,-1,5
55,6.54671,2.112,-1,5
56,6.54884,2.130,-1,5
57,6.55099,2.149,-1,5
58,6.55314,2.153,-1,5
59,6.55529,2.162,-1,5
60,6.55745,2.190,-1,5
61,6.55964,2.190,-1,5
62,6.56185,2.205,-1,5
63,6.56405,2.200,-1,5
64,6.56625,2.199,-1,5
65,6.56847,2.220,-1,5
66,6.57071,2.244,-1,5
67,6.57296,2.251,-1,5
68,6.57521,2.248,-1,5
69,6.57746,2.255,-1,5
70,6.57974,2.274,-1,5
71,6.58203,2.293,-1,5
72,6.58433,2.299,-1,5
73,6.58663,2.298,-1,5
74,6.58894,2.308,-1,5
75,6.59126,2.327,-1,5
76,6.59360,2.342,-1,5
77,6.59595,2.343,-1,5
78,6.59830,2.348,-1,5
79,6.60066,2.361,-1,5
80,6.60303,2.376,-1,5
81,6.60542,2.384,-1,5
82,6.60781,2.397,-1,5
83,6.61021,2.398,-1,5
84,6.61262,2.406,-1,5
85,6.61504,2.423,-1,5
86,6.61748,2.439,-1,5
87,6.61992,2.441,-1,5
88,6.62236,2.443,-1,5
89,6.62482,2.455,-1,5
90,6.62729,2.473,-1,5
91,6.62977,2.481,-1,5
92,6.63226,2.486,-1,5
93,6.63475,2.492,-1,5
94,6.63726,2.505,-1,5
95,6.63977,2.519,-1,5
96,6.64230,2.526,-1,5
97,6.64483,2.531,-1,5
98,6.64737,2.541,-1,5
99,6.64992,2.551,-1,5
100,6.65248,2.560,-1,5
101,6.65506,2.575,-1,5
102,6.65764,2.581,-1,5
103,6.66022,2.584,-1,5
104,6.66282,2.594,-1,5
105,6.66543,2.610,-1,5
106,6.66805,2.618,-1,5
107,6.67067,2.625,-1,5
108,6.67330,2.632,-1,5
109,6.67594,2.640,-1,5
110,6.67859,2.664,-1,5
111,6.68393,2.670,-1,5
112,6.68393,2.676,-1,5
113,6.68929,2.683,-1,5
114,6.69198,2.696,-1,5
115,6.69469,2.705,-1,5
116,6.69740,2.713,-1,5
117,6.70012,2.716,-1,5
118,6.70284,2.727,-1,5
119,6.70558,2.735,-1,5
120,6.70832,2.745,-1,5
121,6.71108,2.755,-1,5
122,6.71384,2.759,-1,5
123,6.71660,2.767,-1,5
124,6.71938,2.774,-1,5
125,6.72216,2.792,-1,5
126,6.72775,2.799,-1,5
127,6.73056,2.807,-1,5
128,6.73337,2.814,-1,5
129,6.73619,2.821,-1,5
130,6.73902,2.828,-1,5
131,6.74186,2.837,-1,5
132,6.74470,2.843,-1,5
133,6.74755,2.847,-1,5
134,6.75040,2.855,-1,5
135,6.75327,2.863,-1,5
136,6.75613,2.868,-1,5
137,6.75901,2.876,-1,5
138,6.76189,2.881,-1,5
139,6.76478,2.885,-1,5
140,6.76767,2.894,-1,5
141,6.77057,2.898,-1,5
142,6.77347,2.905,-1,5
143,6.77638,2.909,-1,5
144,6.77930,2.915,-1,5
145,6.78222,2.920,-1,5
146,6.78514,2.923,-1,5
147,6.78807,2.931,-1,5
148,6.79101,2.935,-1,5
149,6.79394,2.937,-1,5
150,6.79689,2.947,-1,5
151,6.79984,2.950,-1,5
152,6.80279,2.952,-1,5
153,6.80575,2.955,-1,5
154,6.80871,2.960,-1,5
155,6.81167,2.961,-1,5
156,6.81464,2.970,-1,5
157,6.81761,2.968,-1,5
158,6.82058,2.972,-1,5
159,6.82355,2.972,-1,5
160,6.82653,2.979,-1,5
161,6.82951,2.981,-1,5
162,6.83249,2.980,-1,5
163,6.83547,2.982,-1,5
164,6.83846,2.983,-1,5
165,6.84144,2.985,-1,5
166,6.84443,2.990,-1,5
167,6.84742,2.988,-1,5
168,6.85040,2.986,-1,5
169,6.85339,2.988,-1,5
170,6.85638,2.990,-1,5
171,6.85938,2.992,-1,5
172,6.86237,2.991,-1,5
173,6.86535,2.989,-1,5
174,6.86834,2.989,-1,5
175,6.87133,2.990,-1,5
176,6.87433,2.991,-1,5
177,6.87731,2.989,-1,5
178,6.88030,2.985,-1,5
179,6.88329,2.989,-1,5
180,6.88627,2.985,-1,5
181,6.88926,2.983,-1,5
182,6.89224,2.984,-1,5
183,6.89522,2.978,-1,5
184,6.89820,2.978,-1,5
185,6.90118,2.977,-1,5
186,6.90415,2.976,-1,5
187,6.90713,2.974,-1,5
188,6.91010,2.972,-1,5
189,6.91307,2.968,-1,5
190,6.91603,2.965,-1,5
191,6.92196,2.961,-1,5
192,6.92491,2.955,-1,5
193,6.92787,2.957,-1,5
194,6.93082,2.950,-1,5
195,6.93376,2.945,-1,5
196,6.93671,2.945,-1,5
197,6.93965,2.942,-1,5
198,6.94258,2.935,-1,5
199,6.94552,2.933,-1,5
200,6.94845,2.927,-1,5
201,6.95429,2.921,-1,5
202,6.95721,2.917,-1,5
203,6.96012,2.910,-1,5
204,6.96012,2.899,-1,5
205,6.96301,2.901,-1,5
206,6.96592,2.894,-1,5
207,6.97170,2.891,-1,5
208,6.97458,2.879,-1,5
209,6.97746,2.876,-1,5
210,6.98032,2.867,-1,5
211,6.98319,2.863,-1,5
212,6.98604,2.859,-1,5
213,6.98890,2.850,-1,5
214,6.99173,2.838,-1,5
215,6.99457,2.837,-1,5
216,6.99740,2.831,-1,5
217,7.00022,2.820,-1,5
218,7.00303,2.813,-1,5
219,7.00584,2.806,-1,5
220,7.00864,2.796,-1,5
221,7.01143,2.790,-1,5
222,7.01421,2.787,-1,5
223,7.01699,2.774,-1,5
224,7.01975,2.762,-1,5
225,7.02251,2.757,-1,5
226,7.02526,2.752,-1,5
227,7.02800,2.739,-1,5
228,7.03073,2.729,-1,5
229,7.03345,2.720,-1,5
230,7.03616,2.710,-1,5
231,7.03886,2.702,-1,5
232,7.04155,2.695,-1,5
233,7.04423,2.681,-1,5
234,7.04690,2.670,-1,5
235,7.04957,2.664,-1,5
236,7.05222,2.651,-1,5
237,7.05486,2.642,-1,5
238,7.05749,2.628,-1,5
239,7.06011,2.618,-1,5
240,7.06272,2.608,-1,5
241,7.06532,2.601,-1,5
242,7.06790,2.582,-1,5
243,7.07047,2.574,-1,5
244,7.07304,2.564,-1,5
245,7.07558,2.548,-1,5
246,7.07812,2.539,-1,5
247,7.08065,2.531,-1,5
248,7.08317,2.513,-1,5
249,7.08566,2.498,-1,5
250,7.08816,2.492,-1,5
251,7.09064,2.479,-1,5
252,7.09310,2.464,-1,5
253,7.09555,2.449,-1,5
254,7.09799,2.440,-1,5
255,7.10041,2.424,-1,5
256,7.10283,2.412,-1,5
257,7.10522,2.397,-1,5
258,7.10761,2.388,-1,5
259,7.10998,2.371,-1,5
260,7.11234,2.358,-1,5
261,7.11468,2.341,-1,5
262,7.11701,2.331,-1,5
263,7.11933,2.318,-1,5
264,7.12163,2.302,-1,5
265,7.12391,2.283,-1,5
266,7.12619,2.274,-1,5
267,7.12845,2.262,-1,5
268,7.13069,2.242,-1,5
269,7.13292,2.226,-1,5
270,7.13514,2.218,-1,5
271,7.13734,2.200,-1,5
272,7.13952,2.182,-1,5
273,7.14169,2.169,-1,5
274,7.14598,2.141,-1,5
275,7.14811,2.125,-1,5
276,7.15022,2.109,-1,5
277,7.15231,2.094,-1,5
278,7.15439,2.080,-1,5
279,7.15646,2.065,-1,5
280,7.15850,2.048,-1,5
281,7.16053,2.029,-1,5
282,7.16255,2.017,-1,5
283,7.16455,2.002,-1,5
284,7.16654,1.988,-1,5
285,7.16851,1.967,-1,5
286,7.17046,1.950,-1,5
287,7.17240,1.943,-1,5
288,7.17433,1.926,-1,5
289,7.17623,1.905,-1,5
290,7.17812,1.884,-1,5
291,7.17999,1.873,-1,5
292,7.18186,1.869,-1,5
293,7.18370,1.843,-1,5
294,7.18552,1.819,-1,5
295,7.18733,1.806,-1,5
296,7.18912,1.794,-1,5
297,7.19091,1.787,-1,5
298,7.19267,1.760,-1,5
299,7.19441,1.736,-1,5
300,7.19613,1.726,-1,5
301,7.19785,1.714,-1,5
302,7.19955,1.702,-1,5
303,7.20123,1.683,-1,5
304,7.20289,1.656,-1,5
305,7.20453,1.643,-1,5
306,7.20616,1.634,-1,5
307,7.20778,1.618,-1,5
308,7.20938,1.601,-1,5
309,7.21096,1.579,-1,5
310,7.21252,1.561,-1,5
311,7.21407,1.549,-1,5
312,7.21561,1.536,-1,5
313,7.21712,1.517,-1,5
314,7.21863,1.502,-1,5
315,7.22011,1.485,-1,5
316,7.22157,1.463,-1,5
317,7.22302,1.449,-1,5
318,7.22446,1.438,-1,5
319,7.22588,1.420,-1,5
320,7.22728,1.404,-1,5
321,7.22867,1.389,-1,5
322,7.23004,1.366,-1,5
323,7.23139,1.349,-1,5
324,7.23273,1.341,-1,5
325,7.23406,1.330,-1,5
326,7.23537,1.306,-1,5
327,7.23665,1.285,-1,5
328,7.23792,1.272,-1,5
329,7.23918,1.256,-1,5
330,7.24042,1.241,-1,5
331,7.24165,1.227,-1,5
332,7.24286,1.212,-1,5
333,7.24404,1.185,-1,5
334,7.24521,1.167,-1,5
335,7.24637,1.161,-1,5
336,7.24752,1.149,-1,5
337,7.24865,1.127,-1,5
338,7.24975,1.104,-1,5
339,7.25084,1.089,-1,5
340,7.25192,1.081,-1,5
341,7.25402,1.039,-1,5
342,7.25402,1.026,-1,5
343,7.25606,1.015,-1,5
344,7.25606,1.000,-1,5
345,7.25804,0.980,-1,5
346,7.25900,0.955,-1,5
347,7.25994,0.946,-1,5
348,7.26088,0.934,-1,5
349,7.26179,0.916,-1,5
350,7.26269,0.893,-1,5
351,7.26356,0.875,-1,5
352,7.26443,0.865,-1,5
353,7.26528,0.857,-1,5
354,7.26612,0.838,-1,5
355,7.26693,0.810,-1,5
356,7.26772,0.788,-1,5
357,7.26850,0.776,-1,5
358,7.26927,0.773,-1,5
359,7.27003,0.735,-1,5
360,7.27076,0.735,-1,5
361,7.27146,0.703,-1,5
362,7.27215,0.689,-1,5
363,7.27284,0.685,-1,5
364,7.27352,0.680,-1,5
365,7.27418,0.657,-1,5
366,7.27481,0.630,-1,5
367,7.27541,0.606,-1,5
368,7.27601,0.593,-1,5
369,7.27659,0.586,-1,5
370,7.27717,0.556,-1,5
371,7.27772,0.556,-1,5
372,7.27826,0.515,-1,5
373,7.27877,0.515,-1,5
374,7.27927,0.495,-1,5
375,7.27977,0.478,-1,5
376,7.28070,0.456,-1,5
377,7.28114,0.430,-1,5
378,7.28155,0.418,-1,5
379,7.28196,0.410,-1,5
380,7.28236,0.400,-1,5
381,7.28274,0.376,-1,5
382,7.28310,0.356,-1,5
383,7.28343,0.336,-1,5
384,7.28375,0.324,-1,5
385,7.28407,0.316,-1,5
386,7.28437,0.300,-1,5
387,7.28465,0.279,-1,5
388,7.28491,0.258,-1,5
389,7.28515,0.245,-1,5
390,7.28539,0.234,-1,5
391,7.28561,0.220,-1,5
392,7.28581,0.200,-1,5
393,7.28598,0.178,-1,5
394,7.28614,0.160,-1,5
395,7.28629,0.148,-1,5
396,7.28643,0.136,-1,5
397,7.28655,0.118,-1,5
398,7.28664,0.097,-1,5
399,7.28672,0.077,-1,5
400,7.28678,0.063,-1,5
401,7.28683,0.049,-1,5
402,7.28687,0.034,-1,5
403,7.28688,0.016,-1,5
404,7.28688,-0.004,-1,5
405,7.28686,-0.018,-1,5
406,7.28683,-0.030,-1,5
407,7.28679,-0.044,-1,5
408,7.28672,-0.062,-1,5
409,7.28664,-0.079,-1,5
410,7.28655,-0.095,-1,5
411,7.28644,-0.107,-1,5
412,7.28632,-0.119,-1,5
413,7.28619,-0.131,-1,5
414,7.28604,-0.151,-1,5
415,7.28587,-0.166,-1,5
416,7.28569,-0.194,-1,5
417,7.28550,-0.194,-1,5
418,7.28530,-0.220,-1,5
419,7.28508,-0.220,-1,5
420,7.28484,-0.250,-1,5
421,7.28459,-0.250,-1,5
422,7.28406,-0.273,-1,5
423,7.28377,-0.287,-1,5
424,7.28347,-0.302,-1,5
425,7.28315,-0.318,-1,5
426,7.28282,-0.331,-1,5
427,7.28247,-0.344,-1,5
428,7.28212,-0.355,-1,5
429,7.28175,-0.370,-1,5
430,7.28136,-0.388,-1,5
431,7.28096,-0.402,-1,5
432,7.28054,-0.417,-1,5
433,7.28012,-0.427,-1,5
434,7.27967,-0.441,-1,5
435,7.27922,-0.458,-1,5
436,7.27874,-0.474,-1,5
437,7.27825,-0.489,-1,5
438,7.27775,-0.502,-1,5
439,7.27724,-0.513,-1,5
440,7.27671,-0.528,-1,5
441,7.27617,-0.544,-1,5
442,7.27561,-0.571,-1,5
443,7.27445,-0.582,-1,5
444,7.27386,-0.596,-1,5
445,7.27324,-0.614,-1,5
446,7.27261,-0.635,-1,5
447,7.27196,-0.650,-1,5
448,7.27130,-0.658,-1,5
449,7.27063,-0.670,-1,5
450,7.26995,-0.682,-1,5
451,7.26925,-0.699,-1,5
452,7.26853,-0.717,-1,5
453,7.26780,-0.734,-1,5
454,7.26706,-0.744,-1,5
455,7.26630,-0.758,-1,5
456,7.26553,-0.769,-1,5
457,7.26474,-0.785,-1,5
458,7.26394,-0.803,-1,5
459,7.26312,-0.821,-1,5
460,7.26229,-0.834,-1,5
461,7.26144,-0.844,-1,5
462,7.26059,-0.852,-1,5
463,7.25973,-0.865,-1,5
464,7.25884,-0.884,-1,5
465,7.25794,-0.906,-1,5
466,7.25701,-0.921,-1,5
467,7.25609,-0.929,-1,5
468,7.25515,-0.934,-1,5
469,7.25420,-0.947,-1,5
470,7.25323,-0.972,-1,5
471,7.25224,-0.992,-1,5
472,7.25124,-1.004,-1,5
473,7.25023,-1.003,-1,5
474,7.24922,-1.010,-1,5
475,7.24819,-1.036,-1,5
476,7.24712,-1.064,-1,5
477,7.24605,-1.075,-1,5
478,7.24497,-1.077,-1,5
479,7.24389,-1.082,-1,5
480,7.24279,-1.103,-1,5
481,7.24166,-1.127,-1,5
482,7.24052,-1.143,-1,5
483,7.23937,-1.150,-1,5
484,7.23821,-1.158,-1,5
485,7.23704,-1.173,-1,5
486,7.23585,-1.189,-1,5
487,7.23464,-1.205,-1,5
488,7.23342,-1.222,-1,5
489,7.23218,-1.243,-1,5
490,7.23094,-1.243,-1,5
491,7.22841,-1.273,-1,5
492,7.22841,-1.287,-1,5
493,7.22713,-1.299,-1,5
494,7.22583,-1.299,-1,5
495,7.22452,-1.311,-1,5
496,7.22319,-1.329,-1,5
497,7.22050,-1.351,-1,5
498,7.21913,-1.362,-1,5
499,7.21776,-1.377,-1,5
500,7.21636,-1.393,-1,5
501,7.21495,-1.412,-1,5
502,7.21353,-1.425,-1,5
503,7.21210,-1.431,-1,5
504,7.21066,-1.439,-1,5
505,7.20920,-1.458,-1,5
506,7.20772,-1.477,-1,5
507,7.20623,-1.492,-1,5
508,7.20473,-1.500,-1,5
509,7.20322,-1.517,-1,5
510,7.20170,-1.517,-1,5
511,7.20016,-1.543,-1,5
512,7.19860,-1.558,-1,5
513,7.19703,-1.567,-1,5
514,7.19546,-1.576,-1,5
515,7.19227,-1.602,-1,5
516,7.19065,-1.621,-1,5
517,7.18902,-1.635,-1,5
518,7.18738,-1.640,-1,5
519,7.18573,-1.651,-1,5
520,7.18406,-1.669,-1,5
521,7.18237,-1.689,-1,5
522,7.18067,-1.703,-1,5
523,7.17896,-1.706,-1,5
524,7.17725,-1.712,-1,5
525,7.17551,-1.737,-1,5
526,7.17375,-1.757,-1,5
527,7.17199,-1.767,-1,5
528,7.17022,-1.767,-1,5
529,7.16844,-1.779,-1,5
530,7.16664,-1.802,-1,5
531,7.16481,-1.825,-1,5
532,7.16298,-1.829,-1,5
533,7.16115,-1.830,-1,5
534,7.15931,-1.845,-1,5
535,7.15744,-1.869,-1,5
536,7.15555,-1.888,-1,5
537,7.15366,-1.892,-1,5
538,7.15176,-1.898,-1,5
539,7.14985,-1.910,-1,5
540,7.14792,-1.931,-1,5
541,7.14597,-1.948,-1,5
542,7.14401,-1.959,-1,5
543,7.14205,-1.967,-1,5
544,7.14007,-1.973,-1,5
545,7.13808,-1.991,-1,5
546,7.13607,-2.012,-1,5
547,7.13405,-2.026,-1,5
548,7.13202,-2.029,-1,5
549,7.12998,-2.033,-1,5
550,7.12793,-2.056,-1,5
551,7.12585,-2.079,-1,5
552,7.12376,-2.089,-1,5
553,7.12167,-2.089,-1,5
554,7.11957,-2.104,-1,5
555,7.11744,-2.123,-1,5
556,7.11531,-2.138,-1,5
557,7.11316,-2.149,-1,5
558,7.11100,-2.158,-1,5
559,7.10883,-2.171,-1,5
560,7.10664,-2.184,-1,5
561,7.10444,-2.203,-1,5
562,7.10223,-2.214,-1,5
563,7.10000,-2.223,-1,5
564,7.09777,-2.233,-1,5
565,7.09552,-2.251,-1,5
566,7.09325,-2.265,-1,5
567,7.09098,-2.275,-1,5
568,7.08869,-2.288,-1,5
569,7.08639,-2.302,-1,5
570,7.08407,-2.311,-1,5
571,7.08175,-2.327,-1,5
572,7.07941,-2.339,-1,5
573,7.07705,-2.355,-1,5
574,7.07470,-2.359,-1,5
575,7.07232,-2.378,-1,5
576,7.06992,-2.392,-1,5
577,7.06752,-2.414,-1,5
578,7.06511,-2.414,-1,5
579,7.06024,-2.439,-1,5
580,7.05779,-2.453,-1,5
581,7.05532,-2.465,-1,5
582,7.05285,-2.475,-1,5
583,7.05036,-2.489,-1,5
584,7.04786,-2.504,-1,5
585,7.04534,-2.512,-1,5
586,7.04282,-2.527,-1,5
587,7.04028,-2.540,-1,5
588,7.03773,-2.549,-1,5
589,7.03517,-2.561,-1,5
590,7.03259,-2.578,-1,5
591,7.03000,-2.600,-1,5
592,7.02740,-2.612,-1,5
593,7.02479,-2.627,-1,5
594,7.02216,-2.627,-1,5
595,7.01688,-2.649,-1,5
596,7.01688,-2.660,-1,5
597,7.01422,-2.660,-1,5
598,7.00886,-2.685,-1,5
599,7.00616,-2.695,-1,5
600,7.00345,-2.709,-1,5
601,7.00073,-2.722,-1,5
602,6.99800,-2.733,-1,5
603,6.99525,-2.744,-1,5
604,6.99250,-2.759,-1,5
605,6.98973,-2.770,-1,5
606,6.98694,-2.783,-1,5
607,6.98415,-2.792,-1,5
608,6.98134,-2.806,-1,5
609,6.97853,-2.816,-1,5
610,6.97570,-2.832,-1,5
611,6.97285,-2.842,-1,5
612,6.97000,-2.853,-1,5
613,6.96713,-2.867,-1,5
614,6.96426,-2.877,-1,5
615,6.96137,-2.892,-1,5
616,6.95846,-2.901,-1,5
617,6.95555,-2.916,-1,5
618,6.95262,-2.926,-1,5
619,6.94968,-2.939,-1,5
620,6.94674,-2.949,-1,5
621,6.94377,-2.964,-1,5
622,6.94080,-2.970,-1,5
623,6.93782,-2.985,-1,5
624,6.93482,-2.998,-1,5
625,6.93181,-3.008,-1,5
626,6.92879,-3.021,-1,5
627,6.92576,-3.031,-1,5
628,6.92272,-3.039,-1,5
629,6.91966,-3.055,-1,5
630,6.91660,-3.067,-1,5
631,6.91352,-3.079,-1,5
632,6.91043,-3.086,-1,5
633,6.90733,-3.100,-1,5
634,6.90422,-3.114,-1,5
635,6.90109,-3.127,-1,5
636,6.89795,-3.137,-1,5
637,6.89481,-3.145,-1,5
638,6.89165,-3.158,-1,5
639,6.88848,-3.174,-1,5
640,6.88530,-3.181,-1,5
641,6.88210,-3.198,-1,5
642,6.87890,-3.203,-1,5
643,6.87568,-3.215,-1,5
644,6.87245,-3.230,-1,5
645,6.86921,-3.238,-1,5
646,6.86596,-3.249,-1,5
647,6.86271,-3.258,-1,5
648,6.85943,-3.273,-1,5
649,6.85615,-3.284,-1,5
650,6.85286,-3.304,-1,5
651,6.84955,-3.304,-1,5
652,6.84624,-3.327,-1,5
653,6.83957,-3.338,-1,5
654,6.83623,-3.346,-1,5
655,6.83287,-3.357,-1,5
656,6.82951,-3.367,-1,5
657,6.82613,-3.380,-1,5
658,6.82273,-3.391,-1,5
659,6.81933,-3.401,-1,5
660,6.81592,-3.411,-1,5
661,6.81250,-3.421,-1,5
662,6.80907,-3.430,-1,5
663,6.80563,-3.444,-1,5
664,6.80218,-3.452,-1,5
665,6.79872,-3.461,-1,5
666,6.79525,-3.469,-1,5
667,6.79177,-3.481,-1,5
668,6.78827,-3.492,-1,5
669,6.78477,-3.500,-1,5
670,6.78127,-3.508,-1,5
671,6.77775,-3.525,-1,5
672,6.77068,-3.541,-1,5
673,6.76713,-3.549,-1,5
674,6.76358,-3.557,-1,5
675,6.76001,-3.562,-1,5
676,6.75644,-3.575,-1,5
677,6.75285,-3.584,-1,5
678,6.74926,-3.594,-1,5
679,6.74566,-3.599,-1,5
680,6.74206,-3.607,-1,5
681,6.73844,-3.616,-1,5
682,6.73482,-3.624,-1,5
683,6.73118,-3.634,-1,5
684,6.72754,-3.640,-1,5
685,6.72390,-3.645,-1,5
686,6.72025,-3.648,-1,5
687,6.71659,-3.663,-1,5
688,6.71292,-3.669,-1,5
689,6.70924,-3.679,-1,5
690,6.70556,-3.679,-1,5
691,6.70187,-3.690,-1,5
692,6.69818,-3.695,-1,5
693,6.69447,-3.703,-1,5
694,6.69076,-3.712,-1,5
695,6.68704,-3.716,-1,5
696,6.68332,-3.726,-1,5
697,6.67959,-3.729,-1,5
698,6.67585,-3.738,-1,5
699,6.67211,-3.739,-1,5
700,6.66836,-3.749,-1,5
701,6.66461,-3.753,-1,5
702,6.66085,-3.761,-1,5
703,6.65708,-3.764,-1,5
704,6.65332,-3.770,-1,5
705,6.64954,-3.774,-1,5
706,6.64576,-3.782,-1,5
707,6.64198,-3.782,-1,5
708,6.63819,-3.791,-1,5
709,6.63439,-3.795,-1,5
710,6.63059,-3.800,-1,5
711,6.62679,-3.802,-1,5
712,6.62298,-3.810,-1,5
713,6.61917,-3.814,-1,5
714,6.61535,-3.820,-1,5
715,6.61152,-3.822,-1,5
716,6.60770,-3.824,-1,5
717,6.60387,-3.830,-1,5
718,6.60003,-3.837,-1,5
719,6.59620,-3.838,-1,5
720,6.58851,-3.845,-1,5
721,6.58466,-3.846,-1,5
722,6.58081,-3.853,-1,5
723,6.57696,-3.855,-1,5
724,6.57310,-3.857,-1,5
725,6.56924,-3.856,-1,5
726,6.56538,-3.861,-1,5
727,6.56152,-3.865,-1,5
728,6.55765,-3.870,-1,5
729,6.55378,-3.867,-1,5
730,6.54991,-3.869,-1,5
731,6.54604,-3.870,-1,5
732,6.54217,-3.876,-1,5
733,6.53829,-3.877,-1,5
734,6.53441,-3.879,-1,5
735,6.53053,-3.879,-1,5
736,6.52277,-3.881,-1,5
737,6.51889,-3.882,-1,5
738,6.51500,-3.886,-1,5
739,6.51112,-3.883,-1,5
740,6.50723,-3.884,-1,5
741,6.50335,-3.886,-1,5
742,6.49946,-3.887,-1,5
743,6.49557,-3.886,-1,5
744,6.49169,-3.886,-1,5
745,6.48780,-3.887,-1,5
746,6.48391,-3.889,-1,5
747,6.48002,-3.888,-1,5
748,6.47614,-3.888,-1,5
749,6.47225,-3.884,-1,5
750,6.46837,-3.882,-1,5
751,6.46448,-3.888,-1,5
752,6.46059,-3.890,-1,5
753,6.45670,-3.888,-1,5
754,6.45282,-3.883,-1,5
755,6.44894,-3.882,-1,5
