cnt,pos,speed,Dir,Force,
1,0,1.005,1,6
2,0.000999451,0.992,1,6
3,0.0019989,1.005,1,6
4,0.0030098,1.005,1,6
5,0.00401878,1.014,1,6
6,0.00502968,1.01,1,6
7,0.00603867,1.014,1,6
8,0.00704002,0.997,1,6
9,0.00804901,1.014,1,6
10,0.00905991,1.01,1,6
11,0.0100803,1.022,1,6
12,0.0110989,1.01,1,6
13,0.0121403,1.048,1,6
14,0.0131588,1.022,1,6
15,0.0142002,1.035,1,6
16,0.0152187,1.022,1,6
17,0.0162697,1.048,1,6
18,0.0172997,1.031,1,6
19,0.0183487,1.044,1,6
20,0.0193787,1.031,1,6
21,0.0204391,1.057,1,6
22,0.0214691,1.031,1,6
23,0.0225201,1.053,1,6
24,0.0235786,1.061,1,6
25,0.0246296,1.053,1,6
26,0.0256996,1.066,1,6
27,0.0267601,1.066,1,6
28,0.0278301,1.07,1,6
29,0.0289001,1.07,1,6
30,0.0299587,1.057,1,6
31,0.0310287,1.074,1,6
32,0.0321198,1.083,1,6
33,0.0331802,1.061,1,6
34,0.0342789,1.096,1,6
35,0.0353489,1.074,1,6
36,0.0364399,1.092,1,6
37,0.037529,1.092,1,6
38,0.03862,1.083,1,6
39,0.0397091,1.092,1,6
40,0.0408096,1.104,1,6
41,0.0418987,1.087,1,6
42,0.0430088,1.109,1,6
43,0.0441189,1.109,1,6
44,0.045229,1.109,1,6
45,0.0463295,1.104,1,6
46,0.0474491,1.122,1,6
47,0.0485687,1.117,1,6
48,0.0496998,1.135,1,6
49,0.0508194,1.117,1,6
50,0.05196,1.135,1,6
51,0.0530796,1.122,1,6
52,0.0542088,1.13,1,6
53,0.0553398,1.135,1,6
54,0.0564804,1.139,1,6
55,0.0576286,1.152,1,6
56,0.0587597,1.13,1,6
57,0.0599194,1.152,1,6
58,0.0610504,1.13,1,6
59,0.0621891,1.148,1,6
60,0.0633602,1.165,1,6
61,0.0644989,1.143,1,6
62,0.06567,1.169,1,6
63,0.0668201,1.148,1,6
64,0.0679893,1.173,1,6
65,0.06917,1.161,1,6
66,0.0715103,1.178,1,6
67,0.0726604,1.161,1,6
68,0.0738392,1.173,1,6
69,0.0750198,1.178,1,6
70,0.0761795,1.161,1,6
71,0.0773697,1.191,1,6
72,0.0785389,1.169,1,6
73,0.0797386,1.199,1,6
74,0.0809193,1.186,1,6
75,0.0820999,1.178,1,6
76,0.0832996,1.204,1,6
77,0.0844803,1.178,1,6
78,0.08568,1.195,1,6
79,0.0868702,1.195,1,6
80,0.0880795,1.204,1,6
81,0.0892696,1.191,1,6
82,0.0904789,1.212,1,6
83,0.0916786,1.199,1,6
84,0.0928898,1.208,1,6
85,0.0940895,1.199,1,6
86,0.0965099,1.212,1,6
87,0.0977287,1.221,1,6
88,0.0989304,1.204,1,6
89,0.10017,1.243,1,6
90,0.101389,1.212,1,6
91,0.102629,1.247,1,6
92,0.103849,1.217,1,6
93,0.10507,1.221,1,6
94,0.1063,1.234,1,6
95,0.10754,1.238,1,6
96,0.10877,1.234,1,6
97,0.11002,1.247,1,6
98,0.11125,1.23,1,6
99,0.112509,1.26,1,6
100,0.113789,1.273,1,6
101,0.115019,1.234,1,6
102,0.11628,1.264,1,6
103,0.117529,1.251,1,6
104,0.118809,1.273,1,6
105,0.120079,1.268,1,6
106,0.12133,1.255,1,6
107,0.12262,1.29,1,6
108,0.123899,1.281,1,6
109,0.1252,1.299,1,6
110,0.12649,1.29,1,6
111,0.127769,1.281,1,6
112,0.12907,1.303,1,6
113,0.13039,1.316,1,6
114,0.13168,1.294,1,6
115,0.13299,1.307,1,6
116,0.134319,1.324,1,6
117,0.13562,1.303,1,6
118,0.13694,1.324,1,6
119,0.138279,1.337,1,6
120,0.139599,1.32,1,6
121,0.14094,1.342,1,6
122,0.14229,1.35,1,6
123,0.143629,1.337,1,6
124,0.144989,1.355,1,6
125,0.146339,1.355,1,6
126,0.14769,1.35,1,6
127,0.14904,1.35,1,6
128,0.15041,1.372,1,6
129,0.151789,1.376,1,6
130,0.15316,1.368,1,6
131,0.154539,1.385,1,6
132,0.15591,1.368,1,6
133,0.15729,1.381,1,6
134,0.15867,1.385,1,6
135,0.16007,1.398,1,6
136,0.16147,1.402,1,6
137,0.162859,1.381,1,6
138,0.16427,1.411,1,6
139,0.165659,1.394,1,6
140,0.16707,1.415,1,6
141,0.16848,1.406,1,6
142,0.16991,1.428,1,6
143,0.17132,1.415,1,6
144,0.17276,1.437,1,6
145,0.174179,1.415,1,6
146,0.175579,1.406,1,6
147,0.177029,1.445,1,6
148,0.17845,1.437,1,6
149,0.18132,1.437,1,6
150,0.182749,1.419,1,6
151,0.1842,1.45,1,6
152,0.18565,1.454,1,6
153,0.18708,1.432,1,6
154,0.18853,1.454,1,6
155,0.19001,1.48,1,6
156,0.19145,1.432,1,6
157,0.1929,1.454,1,6
158,0.194359,1.463,1,6
159,0.195799,1.441,1,6
160,0.197269,1.467,1,6
161,0.19874,1.471,1,6
162,0.20022,1.475,1,6
163,0.20166,1.445,1,6
164,0.20315,1.484,1,6
165,0.20463,1.48,1,6
166,0.20612,1.488,1,6
167,0.207579,1.463,1,6
168,0.20904,1.467,1,6
169,0.210529,1.484,1,6
170,0.212019,1.48,1,6
171,0.213499,1.48,1,6
172,0.214989,1.488,1,6
173,0.21648,1.488,1,6
174,0.217979,1.506,1,6
175,0.219469,1.493,1,6
176,0.220959,1.493,1,6
177,0.22397,1.493,1,6
178,0.22546,1.497,1,6
179,0.226969,1.51,1,6
180,0.228489,1.519,1,6
181,0.230009,1.514,1,6
182,0.231499,1.497,1,6
183,0.23304,1.536,1,6
184,0.23455,1.514,1,6
185,0.23608,1.523,1,6
186,0.23761,1.532,1,6
187,0.239159,1.549,1,6
188,0.240679,1.519,1,6
189,0.24221,1.536,1,6
190,0.24375,1.536,1,6
191,0.245289,1.54,1,6
192,0.24684,1.553,1,6
193,0.248369,1.523,1,6
194,0.249929,1.562,1,6
195,0.25148,1.549,1,6
196,0.253029,1.553,1,6
197,0.25458,1.553,1,6
198,0.256159,1.579,1,6
199,0.25773,1.57,1,6
200,0.259289,1.562,1,6
201,0.26087,1.575,1,6
202,0.262449,1.579,1,6
203,0.264019,1.575,1,6
204,0.265589,1.566,1,6
205,0.267179,1.592,1,6
206,0.268789,1.605,1,6
207,0.27039,1.605,1,6
208,0.27198,1.588,1,6
209,0.273569,1.588,1,6
210,0.275169,1.601,1,6
211,0.27677,1.601,1,6
212,0.27837,1.601,1,6
213,0.279989,1.626,1,6
214,0.28159,1.601,1,6
215,0.28322,1.626,1,6
216,0.284849,1.631,1,6
217,0.28647,1.622,1,6
218,0.28812,1.644,1,6
219,0.28973,1.614,1,6
220,0.29137,1.635,1,6
221,0.292999,1.631,1,6
222,0.29464,1.639,1,6
223,0.296289,1.657,1,6
224,0.297909,1.622,1,6
225,0.299559,1.644,1,6
226,0.30122,1.657,1,6
227,0.30286,1.648,1,6
228,0.30451,1.648,1,6
229,0.30617,1.657,1,6
230,0.30784,1.67,1,6
231,0.309509,1.67,1,6
232,0.311169,1.661,1,6
233,0.31282,1.648,1,6
234,0.314489,1.67,1,6
235,0.31616,1.67,1,6
236,0.317829,1.67,1,6
237,0.3195,1.678,1,6
238,0.32118,1.674,1,6
239,0.32284,1.665,1,6
240,0.32453,1.691,1,6
241,0.32622,1.687,1,6
242,0.3279,1.678,1,6
243,0.329569,1.665,1,6
244,0.331259,1.691,1,6
245,0.33296,1.7,1,6
246,0.33465,1.696,1,6
247,0.338039,1.691,1,6
248,0.339729,1.691,1,6
249,0.341429,1.704,1,6
250,0.34313,1.7,1,6
251,0.34483,1.696,1,6
252,0.34654,1.708,1,6
253,0.348249,1.713,1,6
254,0.34997,1.721,1,6
255,0.351669,1.7,1,6
256,0.35338,1.708,1,6
257,0.35511,1.73,1,6
258,0.35681,1.704,1,6
259,0.35853,1.717,1,6
260,0.36027,1.734,1,6
261,0.362,1.734,1,6
262,0.363729,1.734,1,6
263,0.365459,1.721,1,6
264,0.367189,1.73,1,6
265,0.368919,1.734,1,6
266,0.37067,1.752,1,6
267,0.37241,1.739,1,6
268,0.374149,1.743,1,6
269,0.3759,1.743,1,6
270,0.377659,1.76,1,6
271,0.379389,1.739,1,6
272,0.381149,1.773,1,6
273,0.38468,1.756,1,6
274,0.38645,1.773,1,6
275,0.38821,1.756,1,6
276,0.38999,1.778,1,6
277,0.39174,1.756,1,6
278,0.393519,1.778,1,6
279,0.3953,1.778,1,6
280,0.397079,1.786,1,6
281,0.39887,1.782,1,6
282,0.40064,1.769,1,6
283,0.40241,1.778,1,6
284,0.4042,1.786,1,6
285,0.40599,1.79,1,6
286,0.4078,1.808,1,6
287,0.40959,1.795,1,6
288,0.4114,1.808,1,6
289,0.413199,1.799,1,6
290,0.415009,1.808,1,6
291,0.4168,1.79,1,6
292,0.41859,1.79,1,6
293,0.420389,1.803,1,6
294,0.42221,1.816,1,6
295,0.42402,1.812,1,6
296,0.425839,1.825,1,6
297,0.42766,1.821,1,6
298,0.42948,1.812,1,6
299,0.431279,1.808,1,6
300,0.4331,1.812,1,6
301,0.43493,1.829,1,6
302,0.436729,1.803,1,6
303,0.43857,1.838,1,6
304,0.44039,1.821,1,6
305,0.44222,1.829,1,6
306,0.44405,1.834,1,6
307,0.44588,1.829,1,6
308,0.4477,1.825,1,6
309,0.449539,1.838,1,6
310,0.45138,1.838,1,6
311,0.45323,1.847,1,6
312,0.455079,1.855,1,6
313,0.45692,1.834,1,6
314,0.45875,1.834,1,6
315,0.4606,1.855,1,6
316,0.46246,1.855,1,6
317,0.46431,1.855,1,6
318,0.46616,1.847,1,6
319,0.468019,1.859,1,6
320,0.469879,1.855,1,6
321,0.47174,1.868,1,6
322,0.473619,1.877,1,6
323,0.47549,1.868,1,6
324,0.477369,1.885,1,6
325,0.47923,1.855,1,6
326,0.481119,1.894,1,6
327,0.48302,1.898,1,6
328,0.4849,1.877,1,6
329,0.48679,1.894,1,6
330,0.48868,1.89,1,6
331,0.49056,1.881,1,6
332,0.492439,1.877,1,6
333,0.494349,1.907,1,6
334,0.49626,1.911,1,6
335,0.49817,1.911,1,6
336,0.500079,1.907,1,6
337,0.50198,1.907,1,6
338,0.5039,1.92,1,6
339,0.505819,1.92,1,6
340,0.50773,1.924,1,6
341,0.51158,1.929,1,6
342,0.51349,1.916,1,6
343,0.51542,1.924,1,6
344,0.51734,1.924,1,6
345,0.51929,1.946,1,6
346,0.52121,1.92,1,6
347,0.52314,1.929,1,6
348,0.525089,1.95,1,6
349,0.52703,1.941,1,6
350,0.52895,1.924,1,6
351,0.53089,1.941,1,6
352,0.53284,1.946,1,6
353,0.53478,1.941,1,6
354,0.53673,1.946,1,6
355,0.538659,1.933,1,6
356,0.542529,1.937,1,6
357,0.544479,1.95,1,6
358,0.546419,1.933,1,6
359,0.54836,1.941,1,6
360,0.550309,1.95,1,6
361,0.55227,1.959,1,6
362,0.554219,1.95,1,6
363,0.55616,1.941,1,6
364,0.5581,1.946,1,6
365,0.56005,1.95,1,6
366,0.561999,1.946,1,6
367,0.563959,1.959,1,6
368,0.56592,1.959,1,6
369,0.56788,1.963,1,6
370,0.569839,1.959,1,6
371,0.57181,1.972,1,6
372,0.573759,1.946,1,6
373,0.575709,1.959,1,6
374,0.577689,1.976,1,6
375,0.579659,1.967,1,6
376,0.58163,1.976,1,6
377,0.58361,1.972,1,6
378,0.58556,1.954,1,6
379,0.587529,1.972,1,6
380,0.58953,2.002,1,6
381,0.591519,1.989,1,6
382,0.593519,1.993,1,6
383,0.59549,1.972,1,6
384,0.597489,1.998,1,6
385,0.59948,1.998,1,6
386,0.60146,1.976,1,6
387,0.603459,2.006,1,6
388,0.605459,1.998,1,6
389,0.60746,1.998,1,6
390,0.60948,2.019,1,6
391,0.61148,2.006,1,6
392,0.6135,2.015,1,6
393,0.61552,2.023,1,6
394,0.617539,2.019,1,6
395,0.619559,2.015,1,6
396,0.621579,2.023,1,6
397,0.6236,2.023,1,6
398,0.625609,2.006,1,6
399,0.62762,2.01,1,6
400,0.629649,2.032,1,6
401,0.63168,2.032,1,6
402,0.633699,2.019,1,6
403,0.635739,2.041,1,6
404,0.637779,2.032,1,6
405,0.63979,2.019,1,6
406,0.641809,2.019,1,6
407,0.643849,2.041,1,6
408,0.6459,2.041,1,6
409,0.647929,2.036,1,6
410,0.649969,2.041,1,6
411,0.65201,2.036,1,6
412,0.65405,2.041,1,6
413,0.656099,2.054,1,6
414,0.658139,2.036,1,6
415,0.660179,2.045,1,6
416,0.66221,2.023,1,6
417,0.664249,2.058,1,6
418,0.66836,2.054,1,6
419,0.66836,2.054,1,6
420,0.6704,2.045,1,6
421,0.672449,2.045,1,6
422,0.676539,2.058,1,6
423,0.67859,2.058,1,6
424,0.680639,2.049,1,6
425,0.68271,2.062,1,6
426,0.684759,2.058,1,6
427,0.68681,2.049,1,6
428,0.68889,2.08,1,6
429,0.69096,2.067,1,6
430,0.693029,2.075,1,6
431,0.69512,2.084,1,6
432,0.6972,2.084,1,6
433,0.69928,2.075,1,6
434,0.701369,2.092,1,6
435,0.703469,2.097,1,6
436,0.70556,2.092,1,6
437,0.70766,2.097,1,6
438,0.70976,2.105,1,6
439,0.711869,2.114,1,6
440,0.71396,2.084,1,6
441,0.71608,2.118,1,6
442,0.718209,2.131,1,6
443,0.72032,2.114,1,6
444,0.72244,2.114,1,6
445,0.724569,2.131,1,6
446,0.728829,2.136,1,6
447,0.728829,2.118,1,6
448,0.733109,2.153,1,6
449,0.733109,2.157,1,6
450,0.73526,2.157,1,6
451,0.739559,2.131,1,6
452,0.74171,2.149,1,6
453,0.743879,2.166,1,6
454,0.74603,2.153,1,6
455,0.748199,2.17,1,6
456,0.75037,2.17,1,6
457,0.75254,2.17,1,6
458,0.75472,2.183,1,6
459,0.75692,2.196,1,6
460,0.759109,2.187,1,6
461,0.76129,2.187,1,6
462,0.76349,2.196,1,6
463,0.76569,2.196,1,6
464,0.76789,2.205,1,6
465,0.7701,2.209,1,6
466,0.772309,2.213,1,6
467,0.774509,2.196,1,6
468,0.776719,2.213,1,6
469,0.778959,2.235,1,6
470,0.781199,2.239,1,6
471,0.783429,2.235,1,6
472,0.78566,2.231,1,6
473,0.7879,2.235,1,6
474,0.790139,2.239,1,6
475,0.792379,2.248,1,6
476,0.79464,2.256,1,6
477,0.796889,2.252,1,6
478,0.79917,2.274,1,6
479,0.80143,2.261,1,6
480,0.80371,2.282,1,6
481,0.806,2.295,1,6
482,0.80828,2.278,1,6
483,0.81057,2.287,1,6
484,0.81287,2.3,1,6
485,0.815169,2.3,1,6
486,0.81747,2.3,1,6
487,0.819779,2.312,1,6
488,0.822109,2.325,1,6
489,0.82443,2.325,1,6
490,0.826759,2.33,1,6
491,0.82908,2.321,1,6
492,0.831429,2.347,1,6
493,0.83379,2.364,1,6
494,0.83614,2.351,1,6
495,0.83851,2.364,1,6
496,0.840859,2.351,1,6
497,0.84322,2.356,1,6
498,0.845619,2.407,1,6
499,0.848,2.377,1,6
500,0.850389,2.386,1,6
501,0.85279,2.407,1,6
502,0.855189,2.394,1,6
503,0.85761,2.425,1,6
504,0.86002,2.412,1,6
505,0.862439,2.412,1,6
506,0.864869,2.438,1,6
507,0.867299,2.425,1,6
508,0.86975,2.451,1,6
509,0.87221,2.459,1,6
510,0.87465,2.446,1,6
511,0.87713,2.481,1,6
512,0.879589,2.455,1,6
513,0.882079,2.494,1,6
514,0.884549,2.463,1,6
515,0.887039,2.494,1,6
516,0.88954,2.502,1,6
517,0.892039,2.502,1,6
518,0.894549,2.507,1,6
519,0.89707,2.515,1,6
520,0.899599,2.537,1,6
521,0.902149,2.545,1,6
522,0.90469,2.541,1,6
523,0.90724,2.545,1,6
524,0.909789,2.55,1,6
525,0.91235,2.567,1,6
526,0.91752,2.614,1,6
527,0.91752,2.589,1,6
528,0.92268,2.563,1,6
529,0.9253,2.619,1,6
530,0.927899,2.602,1,6
531,0.930519,2.619,1,6
532,0.93314,2.623,1,6
533,0.9358,2.658,1,6
534,0.93843,2.636,1,6
535,0.941079,2.649,1,6
536,0.94374,2.662,1,6
537,0.946409,2.671,1,6
538,0.9491,2.688,1,6
539,0.95181,2.705,1,6
540,0.95449,2.684,1,6
541,0.957199,2.705,1,6
542,0.95992,2.722,1,6
543,0.96264,2.727,1,6
544,0.965369,2.722,1,6
545,0.968089,2.727,1,6
546,0.97086,2.765,1,6
547,0.973619,2.757,1,6
548,0.97639,2.778,1,6
549,0.979179,2.77,1,6
550,0.98195,2.77,1,6
551,0.984759,2.804,1,6
552,0.987559,2.835,1,6
553,0.99039,2.817,1,6
554,0.99321,2.817,1,6
555,0.996019,2.817,1,6
556,1.00171,2.839,1,6
557,1.00456,2.856,1,6
558,1.00742,2.856,1,6
559,1.01028,2.86,1,6
560,1.01316,2.878,1,6
561,1.01605,2.891,1,6
562,1.01895,2.908,1,6
563,1.02185,2.899,1,6
564,1.02474,2.886,1,6
565,1.02769,2.951,1,6
566,1.03059,2.899,1,6
567,1.03353,2.938,1,6
568,1.03648,2.955,1,6
569,1.03942,2.938,1,6
570,1.04239,2.964,1,6
571,1.04533,2.942,1,6
572,1.0483,2.973,1,6
573,1.05126,2.96,1,6
574,1.05428,3.016,1,6
575,1.05724,2.964,1,6
576,1.06026,3.016,1,6
577,1.06325,2.998,1,6
578,1.06629,3.033,1,6
579,1.06931,3.02,1,6
580,1.07234,3.033,1,6
581,1.07537,3.033,1,6
582,1.07842,3.046,1,6
583,1.08149,3.067,1,6
584,1.08455,3.059,1,6
585,1.08761,3.067,1,6
586,1.09069,3.076,1,6
587,1.09377,3.085,1,6
588,1.09685,3.08,1,6
589,1.09996,3.102,1,6
590,1.10305,3.093,1,6
591,1.10614,3.093,1,6
592,1.10925,3.111,1,6
593,1.11234,3.089,1,6
594,1.11546,3.119,1,6
595,1.1186,3.141,1,6
596,1.12171,3.111,1,6
597,1.12485,3.137,1,6
598,1.12797,3.119,1,6
599,1.13111,3.145,1,6
600,1.13428,3.162,1,6
601,1.13743,3.154,1,6
602,1.14058,3.145,1,6
603,1.14373,3.154,1,6
604,1.14692,3.193,1,6
605,1.15008,3.154,1,6
606,1.15324,3.167,1,6
607,1.15645,3.21,1,6
608,1.15966,3.206,1,6
609,1.16285,3.193,1,6
610,1.16605,3.201,1,6
611,1.16926,3.21,1,6
612,1.17247,3.21,1,6
613,1.1757,3.231,1,6
614,1.17894,3.24,1,6
615,1.18217,3.223,1,6
616,1.18541,3.249,1,6
617,1.18868,3.262,1,6
618,1.19189,3.218,1,6
619,1.19515,3.253,1,6
620,1.19843,3.279,1,6
621,1.20167,3.244,1,6
622,1.20493,3.257,1,6
623,1.2082,3.249,1,6
624,1.21145,3.249,1,6
625,1.21473,3.279,1,6
626,1.218,3.266,1,6
627,1.22127,3.266,1,6
628,1.22782,3.275,1,6
629,1.2311,3.288,1,6
630,1.23438,3.279,1,6
631,1.23765,3.27,1,6
632,1.24093,3.279,1,6
633,1.24421,3.283,1,6
634,1.24751,3.296,1,6
635,1.25078,3.27,1,6
636,1.25408,3.3,1,6
637,1.2574,3.318,1,6
638,1.2607,3.305,1,6
639,1.264,3.292,1,6
640,1.2673,3.309,1,6
641,1.27061,3.305,1,6
642,1.27394,3.326,1,6
643,1.27726,3.326,1,6
644,1.28056,3.3,1,6
645,1.28389,3.331,1,6
646,1.28722,3.335,1,6
647,1.29056,3.331,1,6
648,1.29389,3.339,1,6
649,1.29723,3.339,1,6
650,1.30057,3.339,1,6
651,1.30391,3.344,1,6
652,1.30724,3.326,1,6
653,1.31392,3.335,1,6
654,1.31728,3.357,1,6
655,1.32063,3.357,1,6
656,1.32399,3.357,1,6
657,1.32734,3.352,1,6
658,1.33069,3.348,1,6
659,1.33405,3.361,1,6
660,1.33742,3.369,1,6
661,1.34077,3.352,1,6
662,1.34414,3.365,1,6
663,1.34751,3.374,1,6
664,1.35089,3.382,1,6
665,1.35426,3.365,1,6
666,1.35763,3.374,1,6
667,1.36102,3.382,1,6
668,1.36441,3.395,1,6
669,1.36779,3.378,1,6
670,1.3712,3.408,1,6
671,1.37458,3.387,1,6
672,1.37799,3.408,1,6
673,1.38138,3.387,1,6
674,1.38479,3.408,1,6
675,1.38819,3.4,1,6
676,1.39162,3.43,1,6
677,1.39502,3.404,1,6
678,1.39843,3.404,1,6
679,1.40185,3.43,1,6
680,1.40529,3.43,1,6
681,1.40869,3.4,1,6
682,1.41211,3.426,1,6
683,1.41556,3.451,1,6
684,1.419,3.439,1,6
685,1.42241,3.413,1,6
686,1.42585,3.439,1,6
687,1.42928,3.43,1,6
688,1.43274,3.456,1,6
689,1.43618,3.443,1,6
690,1.43965,3.469,1,6
691,1.44311,3.46,1,6
692,1.44654,3.43,1,6
693,1.44999,3.456,1,6
694,1.45345,3.46,1,6
695,1.45693,3.473,1,6
696,1.46037,3.447,1,6
697,1.46386,3.486,1,6
698,1.46733,3.469,1,6
699,1.47079,3.46,1,6
700,1.47426,3.469,1,6
701,1.47773,3.469,1,6
702,1.4812,3.477,1,6
703,1.48467,3.469,1,6
704,1.48812,3.447,1,6
705,1.4916,3.477,1,6
706,1.49507,3.473,1,6
707,1.49851,3.443,1,6
708,1.50199,3.477,1,6
709,1.50545,3.46,1,6
710,1.50892,3.469,1,6
711,1.51237,3.451,1,6
712,1.51585,3.477,1,6
713,1.51931,3.464,1,6
714,1.52276,3.451,1,6
715,1.52623,3.464,1,6
716,1.52969,3.464,1,6
717,1.53313,3.434,1,6
718,1.5366,3.469,1,6
719,1.54006,3.464,1,6
720,1.54695,3.447,1,6
721,1.5504,3.451,1,6
722,1.55385,3.451,1,6
723,1.5573,3.443,1,6
724,1.56074,3.443,1,6
725,1.56417,3.43,1,6
726,1.56759,3.417,1,6
727,1.57103,3.447,1,6
728,1.57445,3.421,1,6
729,1.58129,3.408,1,6
730,1.58471,3.421,1,6
731,1.58814,3.426,1,6
732,1.59153,3.391,1,6
733,1.59153,3.4,1,6
734,1.59493,3.4,1,6
735,1.59832,3.391,1,6
736,1.60172,3.4,1,6
737,1.60513,3.408,1,6
738,1.60853,3.4,1,6
739,1.61191,3.378,1,6
740,1.61528,3.378,1,6
741,1.62207,3.382,1,6
742,1.62207,3.357,1,6
743,1.6288,3.378,1,6
744,1.6288,3.382,1,6
745,1.63554,3.357,1,6
746,1.63889,3.348,1,6
747,1.64225,3.361,1,6
748,1.6456,3.348,1,6
749,1.64896,3.365,1,6
750,1.65231,3.352,1,6
751,1.65566,3.348,1,6
752,1.65901,3.348,1,6
753,1.66235,3.335,1,6
754,1.66568,3.331,1,6
755,1.66899,3.318,1,6
756,1.67234,3.344,1,6
757,1.67565,3.318,1,6
758,1.67895,3.296,1,6
759,1.68228,3.331,1,6
760,1.68888,3.3,1,6
761,1.68888,3.288,1,6
762,1.69545,3.283,1,6
763,1.69545,3.292,1,6
764,1.69874,3.292,1,6
765,1.70205,3.309,1,6
766,1.70527,3.279,1,6
767,1.7118,3.257,1,6
768,1.7118,3.27,1,6
769,1.71831,3.24,1,6
770,1.71831,3.262,1,6
771,1.72158,3.262,1,6
772,1.72484,3.266,1,6
773,1.72808,3.236,1,6
774,1.73133,3.236,1,6
775,1.73456,3.24,1,6
776,1.7378,3.223,1,6
777,1.74427,3.24,1,6
778,1.74427,3.214,1,6
779,1.74748,3.214,1,6
780,1.75071,3.231,1,6
781,1.75394,3.227,1,6
782,1.75713,3.188,1,6
783,1.76034,3.21,1,6
784,1.76355,3.21,1,6
785,1.76674,3.184,1,6
786,1.76993,3.184,1,6
787,1.77308,3.154,1,6
788,1.77628,3.197,1,6
789,1.77945,3.175,1,6
790,1.78261,3.158,1,6
791,1.78577,3.154,1,6
792,1.78893,3.162,1,6
793,1.79206,3.137,1,6
794,1.7952,3.132,1,6
795,1.79835,3.158,1,6
796,1.80149,3.137,1,6
797,1.8046,3.111,1,6
798,1.80772,3.141,1,6
799,1.81086,3.106,1,6
800,1.81397,3.102,1,6
801,1.81707,3.115,1,6
802,1.82019,3.115,1,6
803,1.8233,3.119,1,6
804,1.82642,3.115,1,6
805,1.82952,3.098,1,6
806,1.83262,3.106,1,6
807,1.83571,3.089,1,6
808,1.83884,3.124,1,6
809,1.84192,3.089,1,6
810,1.84502,3.093,1,6
811,1.84811,3.089,1,6
812,1.85121,3.102,1,6
813,1.85429,3.085,1,6
814,1.8574,3.111,1,6
815,1.86049,3.089,1,6
816,1.86357,3.076,1,6
817,1.86667,3.098,1,6
818,1.86974,3.076,1,6
819,1.87282,3.072,1,6
820,1.8759,3.085,1,6
821,1.87897,3.067,1,6
822,1.88205,3.085,1,6
823,1.88512,3.067,1,6
824,1.8882,3.08,1,6
825,1.89126,3.063,1,6
826,1.89433,3.067,1,6
827,1.90047,3.076,1,6
828,1.90353,3.059,1,6
829,1.90659,3.055,1,6
830,1.90659,3.055,1,6
831,1.90964,3.055,1,6
832,1.91576,3.05,1,6
833,1.91883,3.063,1,6
834,1.92187,3.046,1,6
835,1.92493,3.059,1,6
836,1.92797,3.037,1,6
837,1.93103,3.063,1,6
838,1.93409,3.055,1,6
839,1.93715,3.063,1,6
840,1.94021,3.055,1,6
841,1.94326,3.059,1,6
842,1.94631,3.046,1,6
843,1.94935,3.037,1,6
844,1.95241,3.063,1,6
845,1.95547,3.059,1,6
846,1.95852,3.05,1,6
847,1.96157,3.046,1,6
848,1.96462,3.055,1,6
849,1.96769,3.067,1,6
850,1.97075,3.063,1,6
851,1.97378,3.033,1,6
852,1.97685,3.059,1,6
853,1.98298,3.067,1,6
854,1.98604,3.059,1,6
855,1.98909,3.055,1,6
856,1.99213,3.042,1,6
857,1.99524,3.106,1,6
858,1.99828,3.042,1,6
859,2.00135,3.072,1,6
860,2.00442,3.072,1,6
861,2.01059,3.059,1,6
862,2.01366,3.076,1,6
863,2.01676,3.098,1,6
864,2.01984,3.076,1,6
865,2.02293,3.093,1,6
866,2.02602,3.085,1,6
867,2.02913,3.111,1,6
868,2.03223,3.102,1,6
869,2.03535,3.119,1,6
870,2.03845,3.106,1,6
871,2.04154,3.089,1,6
872,2.04468,3.137,1,6
873,2.04779,3.111,1,6
874,2.05093,3.141,1,6
875,2.05403,3.102,1,6
876,2.05718,3.141,1,6
877,2.06031,3.137,1,6
878,2.06346,3.145,1,6
879,2.06661,3.154,1,6
880,2.06976,3.154,1,6
881,2.07291,3.145,1,6
882,2.07608,3.167,1,6
883,2.07926,3.184,1,6
884,2.08244,3.184,1,6
885,2.08561,3.167,1,6
886,2.08881,3.201,1,6
887,2.09199,3.18,1,6
888,2.09521,3.218,1,6
889,2.0984,3.193,1,6
890,2.10162,3.218,1,6
891,2.10483,3.206,1,6
892,2.10806,3.236,1,6
893,2.11131,3.244,1,6
894,2.11455,3.24,1,6
895,2.1178,3.257,1,6
896,2.12105,3.249,1,6
897,2.12434,3.283,1,6
898,2.1276,3.262,1,6
899,2.13087,3.27,1,6
900,2.13416,3.292,1,6
901,2.13744,3.279,1,6
902,2.14076,3.322,1,6
903,2.14404,3.283,1,6
904,2.14735,3.309,1,6
