cnt,pos,speed,Dir,Force,
1,0,1.005,1,6
2,0.00100994,1.014,1,6
3,0.00205994,1.044,1,6
4,0.00310993,1.048,1,6
5,0.00417995,1.074,1,6
6,0.00525951,1.079,1,6
7,0.0063591,1.1,1,6
8,0.00745964,1.1,1,6
9,0.00860977,1.156,1,6
10,0.00974941,1.135,1,6
11,0.0109396,1.195,1,6
12,0.0121298,1.186,1,6
13,0.0133591,1.225,1,6
14,0.0145998,1.247,1,6
15,0.0158491,1.243,1,6
16,0.0171194,1.273,1,6
17,0.0183992,1.281,1,6
18,0.0197296,1.329,1,6
19,0.02104,1.316,1,6
20,0.0224199,1.372,1,6
21,0.0237894,1.376,1,6
22,0.0251894,1.402,1,6
23,0.0266294,1.432,1,6
24,0.02806,1.437,1,6
25,0.0295296,1.463,1,6
26,0.0310192,1.497,1,6
27,0.0325193,1.501,1,6
28,0.0340395,1.519,1,6
29,0.0371695,1.553,1,6
30,0.0371695,1.583,1,6
31,0.0403595,1.614,1,6
32,0.0403595,1.635,1,6
33,0.0419998,1.635,1,6
34,0.0436592,1.661,1,6
35,0.0453396,1.683,1,6
36,0.04706,1.713,1,6
37,0.0487995,1.747,1,6
38,0.0505695,1.765,1,6
39,0.0523491,1.782,1,6
40,0.0541496,1.803,1,6
41,0.0559893,1.834,1,6
42,0.0597095,1.864,1,6
43,0.0615997,1.894,1,6
44,0.06353,1.933,1,6
45,0.0654898,1.954,1,6
46,0.0674696,1.98,1,6
47,0.0694799,2.01,1,6
48,0.0715094,2.028,1,6
49,0.0735397,2.036,1,6
50,0.0756197,2.08,1,6
51,0.0777292,2.114,1,6
52,0.0798597,2.123,1,6
53,0.0819998,2.144,1,6
54,0.0841694,2.17,1,6
55,0.08636,2.192,1,6
56,0.0885696,2.205,1,6
57,0.0908098,2.243,1,6
58,0.0930595,2.248,1,6
59,0.0953398,2.282,1,6
60,0.0976496,2.304,1,6
61,0.0999899,2.347,1,6
62,0.102349,2.36,1,6
63,0.104739,2.39,1,6
64,0.10712,2.373,1,6
65,0.10954,2.42,1,6
66,0.11199,2.451,1,6
67,0.11446,2.476,1,6
68,0.11698,2.52,1,6
69,0.119459,2.481,1,6
70,0.12202,2.563,1,6
71,0.124599,2.571,1,6
72,0.127199,2.606,1,6
73,0.12982,2.619,1,6
74,0.132449,2.632,1,6
75,0.13513,2.679,1,6
76,0.137819,2.684,1,6
77,0.14053,2.718,1,6
78,0.14329,2.757,1,6
79,0.14604,2.753,1,6
80,0.148829,2.791,1,6
81,0.15166,2.822,1,6
82,0.15449,2.83,1,6
83,0.157359,2.869,1,6
84,0.160259,2.904,1,6
85,0.16315,2.895,1,6
86,0.1661,2.942,1,6
87,0.16906,2.964,1,6
88,0.17205,2.986,1,6
89,0.175039,2.994,1,6
90,0.178089,3.046,1,6
91,0.181129,3.042,1,6
92,0.184199,3.067,1,6
93,0.1873,3.111,1,6
94,0.19043,3.124,1,6
95,0.19358,3.149,1,6
96,0.19675,3.171,1,6
97,0.199929,3.184,1,6
98,0.203159,3.231,1,6
99,0.2064,3.236,1,6
100,0.20964,3.244,1,6
101,0.21295,3.305,1,6
102,0.21626,3.313,1,6
103,0.219589,3.331,1,6
104,0.22295,3.357,1,6
105,0.22633,3.378,1,6
106,0.22975,3.417,1,6
107,0.233179,3.43,1,6
108,0.236629,3.451,1,6
109,0.24012,3.495,1,6
110,0.243629,3.508,1,6
111,0.247149,3.516,1,6
112,0.25069,3.542,1,6
113,0.25425,3.568,1,6
114,0.257859,3.607,1,6
115,0.261479,3.62,1,6
116,0.26512,3.637,1,6
117,0.268789,3.671,1,6
118,0.27247,3.68,1,6
119,0.276179,3.723,1,6
120,0.283669,3.771,1,6
121,0.287459,3.792,1,6
122,0.29126,3.797,1,6
123,0.295079,3.822,1,6
124,0.298929,3.844,1,6
125,0.302799,3.874,1,6
126,0.3067,3.904,1,6
127,0.310639,3.93,1,6
128,0.31456,3.926,1,6
129,0.318549,3.986,1,6
130,0.32253,3.982,1,6
131,0.32655,4.017,1,6
132,0.33058,4.03,1,6
133,0.334649,4.073,1,6
134,0.33875,4.103,1,6
135,0.34285,4.099,1,6
136,0.34699,4.142,1,6
137,0.35115,4.163,1,6
138,0.35534,4.181,1,6
139,0.35952,4.189,1,6
140,0.36374,4.215,1,6
141,0.36799,4.254,1,6
142,0.372279,4.284,1,6
143,0.37657,4.297,1,6
144,0.38085,4.275,1,6
145,0.38524,4.392,1,6
146,0.389589,4.349,1,6
147,0.393979,4.414,1,6
148,0.39839,4.414,1,6
149,0.402809,4.474,1,6
150,0.411779,4.5,1,6
151,0.416309,4.521,1,6
152,0.42083,4.521,1,6
153,0.4254,4.577,1,6
154,0.42999,4.586,1,6
155,0.434589,4.603,1,6
156,0.439219,4.625,1,6
157,0.44387,4.655,1,6
158,0.44856,4.69,1,6
159,0.45327,4.703,1,6
160,0.457959,4.69,1,6
161,0.462709,4.759,1,6
162,0.4675,4.789,1,6
163,0.4723,4.798,1,6
164,0.47709,4.785,1,6
165,0.481939,4.858,1,6
166,0.48679,4.849,1,6
167,0.491659,4.871,1,6
168,0.496559,4.901,1,6
169,0.50151,4.949,1,6
170,0.50647,4.953,1,6
171,0.51143,4.966,1,6
172,0.51643,5,1,6
173,0.521449,5.022,1,6
174,0.52654,5.087,1,6
175,0.53159,5.052,1,6
176,0.53667,5.082,1,6
177,0.5418,5.13,1,6
178,0.546929,5.125,1,6
179,0.552099,5.169,1,6
180,0.55724,5.143,1,6
181,0.56244,5.203,1,6
182,0.56769,5.242,1,6
183,0.572909,5.22,1,6
184,0.578179,5.272,1,6
185,0.58346,5.281,1,6
186,0.588779,5.32,1,6
187,0.59413,5.35,1,6
188,0.599489,5.358,1,6
189,0.604859,5.376,1,6
190,0.61029,5.432,1,6
191,0.61574,5.445,1,6
192,0.62122,5.479,1,6
193,0.626699,5.479,1,6
194,0.632239,5.54,1,6
195,0.63779,5.553,1,6
196,0.643319,5.535,1,6
197,0.648899,5.574,1,6
198,0.65451,5.609,1,6
199,0.66012,5.609,1,6
200,0.665759,5.647,1,6
201,0.67143,5.669,1,6
202,0.67711,5.673,1,6
203,0.682839,5.729,1,6
204,0.68856,5.721,1,6
205,0.694309,5.755,1,6
206,0.700089,5.777,1,6
207,0.705899,5.807,1,6
208,0.711749,5.859,1,6
209,0.717629,5.872,1,6
210,0.72351,5.88,1,6
211,0.729409,5.902,1,6
212,0.73537,5.949,1,6
213,0.74132,5.949,1,6
214,0.753309,6.023,1,6
215,0.75933,6.023,1,6
216,0.76538,6.049,1,6
217,0.77144,6.066,1,6
218,0.777499,6.057,1,6
219,0.783629,6.131,1,6
220,0.789769,6.135,1,6
221,0.79593,6.161,1,6
222,0.80213,6.208,1,6
223,0.80835,6.217,1,6
224,0.81459,6.234,1,6
225,0.820849,6.269,1,6
226,0.827129,6.277,1,6
227,0.83344,6.312,1,6
228,0.83974,6.299,1,6
229,0.846069,6.329,1,6
230,0.852449,6.381,1,6
231,0.858829,6.372,1,6
232,0.865239,6.411,1,6
233,0.87165,6.415,1,6
234,0.87811,6.463,1,6
235,0.8846,6.484,1,6
236,0.897599,6.515,1,6
237,0.90416,6.562,1,6
238,0.91072,6.553,1,6
239,0.91072,6.553,1,6
240,0.92392,6.601,1,6
241,0.92392,6.657,1,6
242,0.937209,6.64,1,6
243,0.943879,6.67,1,6
244,0.9506,6.722,1,6
245,0.95733,6.722,1,6
246,0.96406,6.735,1,6
247,0.970819,6.765,1,6
248,0.97765,6.825,1,6
249,0.984469,6.817,1,6
250,0.99134,6.873,1,6
251,0.998199,6.864,1,6
252,1.0051,6.899,1,6
253,1.01202,6.916,1,6
254,1.019,6.985,1,6
255,1.02595,6.95,1,6
256,1.03294,6.989,1,6
257,1.03996,7.015,1,6
258,1.04697,7.011,1,6
259,1.05403,7.058,1,6
260,1.06109,7.063,1,6
261,1.06819,7.106,1,6
262,1.0753,7.11,1,6
263,1.08245,7.145,1,6
264,1.08962,7.17,1,6
265,1.09681,7.192,1,6
266,1.10401,7.196,1,6
267,1.11123,7.226,1,6
268,1.11849,7.257,1,6
269,1.12575,7.257,1,6
270,1.13305,7.3,1,6
271,1.14034,7.291,1,6
272,1.14768,7.343,1,6
273,1.15504,7.356,1,6
274,1.16243,7.39,1,6
275,1.16983,7.403,1,6
276,1.17729,7.455,1,6
277,1.18476,7.472,1,6
278,1.19224,7.477,1,6
279,1.19977,7.533,1,6
280,1.2073,7.528,1,6
281,1.21486,7.559,1,6
282,1.22244,7.58,1,6
283,1.23003,7.598,1,6
284,1.23763,7.593,1,6
285,1.24526,7.636,1,6
286,1.25292,7.658,1,6
287,1.26062,7.701,1,6
288,1.26831,7.688,1,6
289,1.27605,7.744,1,6
290,1.28379,7.74,1,6
291,1.2916,7.809,1,6
292,1.29943,7.822,1,6
293,1.30725,7.826,1,6
294,1.3151,7.848,1,6
295,1.32299,7.891,1,6
296,1.33087,7.882,1,6
297,1.3388,7.93,1,6
298,1.34676,7.956,1,6
299,1.35473,7.973,1,6
300,1.36273,8.042,1,6
301,1.37882,8.042,1,6
302,1.37882,8.063,1,6
303,1.39496,8.081,1,6
304,1.39496,8.111,1,6
305,1.40307,8.111,1,6
306,1.41935,8.154,1,6
307,1.42746,8.115,1,6
308,1.43565,8.193,1,6
309,1.44386,8.202,1,6
310,1.45207,8.219,1,6
311,1.46034,8.262,1,6
312,1.46863,8.292,1,6
313,1.47692,8.288,1,6
314,1.48525,8.331,1,6
315,1.49356,8.309,1,6
316,1.50193,8.37,1,6
317,1.5103,8.378,1,6
318,1.51872,8.417,1,6
319,1.52716,8.434,1,6
320,1.5356,8.447,1,6
321,1.5441,8.495,1,6
322,1.55259,8.491,1,6
323,1.56114,8.547,1,6
324,1.56971,8.534,1,6
325,1.58686,8.62,1,6
326,1.59549,8.629,1,6
327,1.60415,8.659,1,6
328,1.61283,8.676,1,6
329,1.62149,8.659,1,6
330,1.63019,8.702,1,6
331,1.6389,8.711,1,6
332,1.64765,8.754,1,6
333,1.65644,8.784,1,6
334,1.66525,8.81,1,6
335,1.67406,8.814,1,6
336,1.68285,8.849,1,6
337,1.6917,8.888,1,6
338,1.70059,8.888,1,6
339,1.70946,8.875,1,6
340,1.71836,8.896,1,6
341,1.7273,8.939,1,6
342,1.73628,8.982,1,6
343,1.74529,9.039,1,6
344,1.75433,9.064,1,6
345,1.7634,9.06,1,6
346,1.78155,9.099,1,6
347,1.79067,9.112,1,6
348,1.79067,9.112,1,6
349,1.7998,9.133,1,6
350,1.80893,9.133,1,6
351,1.81805,9.12,1,6
352,1.82729,9.233,1,6
353,1.84574,9.263,1,6
354,1.85502,9.284,1,6
355,1.86433,9.306,1,6
356,1.87364,9.31,1,6
357,1.88299,9.349,1,6
358,1.89231,9.319,1,6
359,1.90174,9.435,1,6
360,1.91115,9.405,1,6
361,1.92058,9.435,1,6
362,1.93006,9.479,1,6
363,1.93958,9.513,1,6
364,1.94909,9.513,1,6
365,1.9586,9.513,1,6
366,1.96811,9.513,1,6
367,1.9777,9.586,1,6
368,1.98729,9.586,1,6
369,1.99687,9.578,1,6
370,2.00649,9.63,1,6
371,2.01612,9.625,1,6
372,2.02577,9.647,1,6
373,2.03546,9.694,1,6
374,2.04518,9.72,1,6
375,2.05491,9.724,1,6
376,2.06465,9.742,1,6
377,2.07442,9.776,1,6
378,2.08423,9.806,1,6
379,2.09405,9.815,1,6
380,2.1039,9.858,1,6
381,2.11377,9.863,1,6
382,2.12366,9.897,1,6
383,2.13359,9.932,1,6
384,2.14355,9.957,1,6
385,2.15357,10.022,1,6
386,2.16355,9.97,1,6
387,2.17355,10.005,1,6
388,2.18358,10.035,1,6
389,2.19363,10.048,1,6
390,2.20369,10.052,1,6
391,2.21379,10.108,1,6
392,2.22383,10.039,1,6
393,2.23398,10.147,1,6
394,2.24412,10.139,1,6
395,2.25427,10.152,1,6
396,2.26447,10.199,1,6
397,2.27466,10.186,1,6
398,2.28488,10.229,1,6
399,2.29514,10.255,1,6
400,2.30539,10.247,1,6
401,2.31577,10.38,1,6
402,2.3261,10.363,1,6
403,2.34687,10.41,1,6
404,2.35727,10.393,1,6
405,2.3677,10.432,1,6
406,2.37813,10.428,1,6
407,2.38859,10.462,1,6
408,2.39906,10.475,1,6
409,2.40958,10.514,1,6
410,2.4201,10.523,1,6
411,2.43067,10.57,1,6
412,2.44121,10.626,1,6
413,2.45184,10.618,1,6
414,2.47311,10.648,1,6
415,2.47311,10.682,1,6
416,2.48379,10.682,1,6
417,2.49449,10.704,1,6
418,2.50522,10.73,1,6
419,2.51595,10.73,1,6
420,2.52671,10.76,1,6
421,2.53748,10.769,1,6
422,2.54828,10.799,1,6
423,2.55905,10.794,1,6
424,2.56985,10.812,1,6
425,2.59149,10.833,1,6
426,2.60237,10.881,1,6
427,2.61327,10.898,1,6
428,2.62415,10.876,1,6
429,2.63507,10.92,1,6
430,2.64599,10.928,1,6
431,2.65696,10.963,1,6
432,2.66793,10.976,1,6
433,2.67895,11.014,1,6
434,2.69001,11.062,1,6
435,2.70106,11.049,1,6
436,2.71217,11.109,1,6
437,2.72327,11.105,1,6
438,2.73439,11.122,1,6
439,2.74554,11.144,1,6
440,2.75668,11.14,1,6
441,2.76783,11.157,1,6
442,2.77904,11.209,1,6
443,2.79028,11.234,1,6
444,2.80152,11.234,1,6
445,2.81277,11.256,1,6
446,2.82405,11.273,1,6
447,2.83534,11.291,1,6
448,2.84664,11.299,1,6
449,2.85799,11.355,1,6
450,2.86935,11.36,1,6
451,2.88081,11.455,1,6
452,2.89226,11.45,1,6
453,2.9037,11.442,1,6
454,2.91516,11.463,1,6
455,2.92666,11.502,1,6
456,2.93816,11.493,1,6
457,2.94969,11.532,1,6
458,2.96123,11.545,1,6
459,2.97284,11.606,1,6
460,2.98443,11.588,1,6
461,2.99612,11.696,1,6
462,3.00777,11.644,1,6
463,3.01944,11.675,1,6
464,3.03114,11.7,1,6
465,3.04287,11.731,1,6
466,3.05466,11.787,1,6
467,3.06644,11.778,1,6
468,3.07824,11.804,1,6
469,3.09008,11.843,1,6
470,3.10193,11.843,1,6
471,3.11377,11.838,1,6
472,3.12562,11.851,1,6
473,3.13752,11.899,1,6
474,3.1494,11.886,1,6
475,3.16134,11.938,1,6
476,3.17328,11.938,1,6
477,3.18526,11.985,1,6
478,3.19727,12.007,1,6
479,3.20928,12.007,1,6
480,3.22133,12.05,1,6
481,3.23337,12.041,1,6
482,3.24548,12.11,1,6
483,3.25763,12.149,1,6
484,3.26981,12.179,1,6
485,3.28199,12.184,1,6
486,3.29408,12.089,1,6
487,3.30618,12.097,1,6
488,3.31834,12.166,1,6
489,3.3305,12.162,1,6
490,3.34261,12.106,1,6
491,3.35481,12.205,1,6
492,3.36693,12.115,1,6
493,3.37904,12.11,1,6
494,3.39116,12.119,1,6
495,3.40329,12.128,1,6
496,3.41543,12.14,1,6
497,3.42757,12.14,1,6
498,3.43971,12.145,1,6
499,3.45185,12.136,1,6
500,3.46398,12.128,1,6
501,3.47608,12.102,1,6
502,3.48816,12.084,1,6
503,3.50025,12.089,1,6
504,3.52442,12.102,1,6
505,3.53653,12.11,1,6
506,3.54861,12.084,1,6
507,3.56075,12.132,1,6
508,3.57284,12.089,1,6
509,3.58494,12.102,1,6
510,3.59703,12.089,1,6
511,3.60908,12.05,1,6
512,3.62117,12.093,1,6
513,3.63327,12.097,1,6
514,3.64533,12.067,1,6
515,3.6574,12.063,1,6
516,3.66944,12.041,1,6
517,3.68149,12.054,1,6
518,3.69355,12.063,1,6
519,3.70563,12.071,1,6
520,3.71768,12.05,1,6
521,3.72974,12.067,1,6
522,3.7418,12.059,1,6
523,3.75387,12.067,1,6
524,3.76594,12.067,1,6
525,3.77802,12.08,1,6
526,3.79008,12.063,1,6
527,3.8021,12.02,1,6
528,3.81418,12.084,1,6
529,3.82624,12.059,1,6
530,3.83828,12.037,1,6
531,3.85035,12.067,1,6
532,3.87442,12.041,1,6
533,3.88647,12.054,1,6
534,3.88647,12.063,1,6
535,3.89854,12.063,1,6
536,3.9106,12.063,1,6
537,3.92261,12.011,1,6
538,3.93471,12.102,1,6
539,3.94673,12.041,1,6
540,3.97079,12.02,1,6
541,3.98285,12.059,1,6
542,3.99489,12.041,1,6
543,4.00693,12.037,1,6
544,4.01896,12.028,1,6
545,4.03102,12.059,1,6
546,4.04301,11.994,1,6
547,4.05507,12.059,1,6
548,4.06709,12.02,1,6
549,4.07908,11.994,1,6
550,4.0911,12.02,1,6
551,4.10312,12.02,1,6
552,4.11511,11.989,1,6
553,4.12713,12.024,1,6
554,4.1391,11.968,1,6
555,4.15114,12.037,1,6
556,4.16313,11.994,1,6
557,4.17514,12.007,1,6
558,4.18715,12.011,1,6
559,4.19915,12.002,1,6
560,4.21116,12.007,1,6
561,4.22316,11.998,1,6
562,4.23512,11.964,1,6
563,4.24719,12.063,1,6
564,4.25917,11.981,1,6
565,4.2711,11.933,1,6
566,4.28309,11.989,1,6
567,4.29509,11.998,1,6
568,4.30708,11.994,1,6
569,4.31907,11.989,1,6
570,4.33104,11.968,1,6
571,4.3431,12.063,1,6
572,4.35509,11.994,1,6
573,4.36708,11.981,1,6
574,4.37908,12.002,1,6
575,4.39107,11.989,1,6
576,4.4031,12.028,1,6
577,4.41509,11.998,1,6
578,4.42709,11.998,1,6
579,4.43906,11.972,1,6
580,4.45104,11.972,1,6
581,4.46309,12.054,1,6
582,4.47503,11.942,1,6
583,4.48706,12.024,1,6
584,4.49905,11.994,1,6
585,4.51099,11.938,1,6
586,4.52297,11.981,1,6
587,4.53497,11.998,1,6
588,4.54697,12.015,1,6
589,4.55899,12.015,1,6
590,4.57101,12.011,1,6
591,4.58302,12.011,1,6
592,4.59504,12.011,1,6
593,4.60702,11.981,1,6
594,4.61901,11.998,1,6
595,4.631,11.981,1,6
596,4.64296,11.959,1,6
597,4.65497,12.02,1,6
598,4.67899,11.998,1,6
599,4.69102,12.028,1,6
600,4.70302,12.002,1,6
601,4.71505,12.028,1,6
602,4.72704,11.985,1,6
603,4.73904,12.002,1,6
604,4.75104,11.998,1,6
605,4.76305,12.011,1,6
606,4.77504,11.994,1,6
607,4.78704,11.994,1,6
608,4.79901,12.007,1,6
609,4.81101,11.985,1,6
610,4.823,11.985,1,6
611,4.84698,11.968,1,6
612,4.85898,11.998,1,6
613,4.87098,11.994,1,6
614,4.88299,12.011,1,6
615,4.89498,11.994,1,6
616,4.90699,12.011,1,6
617,4.919,12.007,1,6
618,4.93099,11.994,1,6
619,4.94299,11.994,1,6
620,4.95499,12.002,1,6
621,4.96698,11.994,1,6
622,4.97899,12.011,1,6
623,4.99099,11.994,1,6
624,5.00296,11.977,1,6
625,5.01494,11.977,1,6
626,5.02696,12.015,1,6
627,5.03894,11.981,1,6
628,5.05095,12.011,1,6
629,5.06292,11.977,1,6
630,5.0749,11.981,1,6
631,5.08688,11.977,1,6
632,5.09888,11.994,1,6
