cnt,pos,speed,Dir,Force,
1,0,1.005,1,6
2,0.00100136,1.001,1,6
3,0.00203133,1.031,1,6
4,0.00304985,1.018,1,6
5,0.00411034,1.057,1,6
6,0.00516129,1.048,1,6
7,0.00624084,1.087,1,6
8,0.0073204,1.079,1,6
9,0.00844002,1.122,1,6
10,0.00956154,1.117,1,6
11,0.0107002,1.139,1,6
12,0.0118599,1.161,1,6
13,0.01301,1.148,1,6
14,0.0142002,1.186,1,6
15,0.0153713,1.173,1,6
16,0.0165806,1.212,1,6
17,0.0178108,1.225,1,6
18,0.0190411,1.23,1,6
19,0.0203114,1.277,1,6
20,0.0216007,1.286,1,6
21,0.0228901,1.286,1,6
22,0.02421,1.32,1,6
23,0.0255413,1.333,1,6
24,0.0268803,1.342,1,6
25,0.0282516,1.372,1,6
26,0.0296402,1.385,1,6
27,0.0310307,1.389,1,6
28,0.0324516,1.419,1,6
29,0.0338917,1.441,1,6
30,0.0353317,1.45,1,6
31,0.0368099,1.48,1,6
32,0.038311,1.497,1,6
33,0.0398312,1.514,1,6
34,0.0413609,1.532,1,6
35,0.0429211,1.566,1,6
36,0.0444908,1.562,1,6
37,0.0461006,1.614,1,6
38,0.04772,1.622,1,6
39,0.0493603,1.678,1,6
40,0.0527115,1.67,1,6
41,0.0544205,1.713,1,6
42,0.05616,1.734,1,6
43,0.0578899,1.739,1,6
44,0.0596905,1.79,1,6
45,0.0614815,1.795,1,6
46,0.0633011,1.821,1,6
47,0.0651417,1.838,1,6
48,0.0670109,1.868,1,6
49,0.0689106,1.898,1,6
50,0.0708199,1.916,1,6
51,0.0727806,1.963,1,6
52,0.0747604,1.972,1,6
53,0.0767517,1.989,1,6
54,0.0787601,2.019,1,6
55,0.0808105,2.045,1,6
56,0.08288,2.067,1,6
57,0.0849514,2.071,1,6
58,0.08708,2.131,1,6
59,0.0892105,2.136,1,6
60,0.0914001,2.183,1,6
61,0.0936108,2.213,1,6
62,0.0958004,2.192,1,6
63,0.0980206,2.222,1,6
64,0.10029,2.265,1,6
65,0.102581,2.295,1,6
66,0.1049,2.321,1,6
67,0.107231,2.33,1,6
68,0.11199,2.386,1,6
69,0.11199,2.416,1,6
70,0.114401,2.442,1,6
71,0.11685,2.463,1,6
72,0.11931,2.472,1,6
73,0.1243,2.524,1,6
74,0.12685,2.541,1,6
75,0.129412,2.558,1,6
76,0.132011,2.602,1,6
77,0.134602,2.597,1,6
78,0.13723,2.627,1,6
79,0.139881,2.653,1,6
80,0.14257,2.684,1,6
81,0.145271,2.705,1,6
82,0.148001,2.731,1,6
83,0.15077,2.77,1,6
84,0.153551,2.774,1,6
85,0.156342,2.796,1,6
86,0.15917,2.826,1,6
87,0.162022,2.908,1,6
88,0.16493,2.899,1,6
89,0.16782,2.916,1,6
90,0.17074,2.916,1,6
91,0.173681,2.938,1,6
92,0.176641,2.96,1,6
93,0.179651,3.016,1,6
94,0.182671,3.037,1,6
95,0.185701,3.059,1,6
96,0.188761,3.059,1,6
97,0.19186,3.102,1,6
98,0.194971,3.102,1,6
99,0.19808,3.115,1,6
100,0.201231,3.149,1,6
101,0.204411,3.184,1,6
102,0.207602,3.184,1,6
103,0.210821,3.227,1,6
104,0.214071,3.249,1,6
105,0.21735,3.275,1,6
106,0.220652,3.296,1,6
107,0.223951,3.352,1,6
108,0.22731,3.352,1,6
109,0.23068,3.369,1,6
110,0.234041,3.369,1,6
111,0.237471,3.43,1,6
112,0.240921,3.447,1,6
113,0.2444,3.464,1,6
114,0.25139,3.525,1,6
115,0.254921,3.529,1,6
116,0.258492,3.577,1,6
117,0.26206,3.568,1,6
118,0.26569,3.628,1,6
119,0.269321,3.633,1,6
120,0.272982,3.654,1,6
121,0.27664,3.663,1,6
122,0.280321,3.728,1,6
123,0.28404,3.732,1,6
124,0.287781,3.775,1,6
125,0.291552,3.792,1,6
126,0.295341,3.792,1,6
127,0.29915,3.805,1,6
128,0.302971,3.822,1,6
129,0.306831,3.861,1,6
130,0.31072,3.887,1,6
131,0.3146,3.879,1,6
132,0.318521,3.922,1,6
133,0.32246,3.943,1,6
134,0.326431,3.965,1,6
135,0.330431,3.999,1,6
136,0.334461,4.034,1,6
137,0.338491,4.034,1,6
138,0.342581,4.086,1,6
139,0.346651,4.073,1,6
140,0.35078,4.124,1,6
141,0.35491,4.133,1,6
142,0.359091,4.181,1,6
143,0.363281,4.185,1,6
144,0.367472,4.198,1,6
145,0.371721,4.275,1,6
146,0.38027,4.271,1,6
147,0.384581,4.31,1,6
148,0.388891,4.319,1,6
149,0.393251,4.353,1,6
150,0.39764,4.388,1,6
151,0.40201,4.37,1,6
152,0.406422,4.409,1,6
153,0.41086,4.448,1,6
154,0.415321,4.457,1,6
155,0.419802,4.483,1,6
156,0.424301,4.496,1,6
157,0.428831,4.53,1,6
158,0.433401,4.573,1,6
159,0.43799,4.586,1,6
160,0.442581,4.595,1,6
161,0.447241,4.659,1,6
162,0.451881,4.638,1,6
163,0.456551,4.672,1,6
164,0.46126,4.711,1,6
165,0.466002,4.741,1,6
166,0.470741,4.737,1,6
167,0.47554,4.798,1,6
168,0.480341,4.802,1,6
169,0.485161,4.815,1,6
170,0.48999,4.836,1,6
171,0.494871,4.879,1,6
172,0.499771,4.901,1,6
173,0.504671,4.897,1,6
174,0.509621,4.953,1,6
175,0.51457,4.944,1,6
176,0.519571,5.005,1,6
177,0.52458,5.005,1,6
178,0.529612,5.03,1,6
179,0.53467,5.061,1,6
180,0.539742,5.078,1,6
181,0.54487,5.121,1,6
182,0.549992,5.125,1,6
183,0.55513,5.138,1,6
184,0.560291,5.164,1,6
185,0.565512,5.216,1,6
186,0.570702,5.194,1,6
187,0.57596,5.255,1,6
188,0.581211,5.255,1,6
189,0.586481,5.268,1,6
190,0.591791,5.307,1,6
191,0.597111,5.341,1,6
192,0.607821,5.371,1,6
193,0.613232,5.406,1,6
194,0.618641,5.419,1,6
195,0.624062,5.419,1,6
196,0.629551,5.484,1,6
197,0.635021,5.475,1,6
198,0.640551,5.531,1,6
199,0.646101,5.544,1,6
200,0.651651,5.557,1,6
201,0.657251,5.596,1,6
202,0.66284,5.587,1,6
203,0.668451,5.617,1,6
204,0.67411,5.652,1,6
205,0.679781,5.678,1,6
206,0.68548,5.699,1,6
207,0.6912,5.721,1,6
208,0.69693,5.729,1,6
209,0.70269,5.76,1,6
210,0.708481,5.786,1,6
211,0.7143,5.824,1,6
212,0.72015,5.846,1,6
213,0.726011,5.863,1,6
214,0.73192,5.911,1,6
215,0.737791,5.867,1,6
216,0.743752,5.962,1,6
217,0.749722,5.967,1,6
218,0.755692,5.971,1,6
219,0.76169,5.997,1,6
220,0.767731,6.04,1,6
221,0.773771,6.049,1,6
222,0.77985,6.079,1,6
223,0.785921,6.07,1,6
224,0.792051,6.131,1,6
225,0.79817,6.118,1,6
226,0.804361,6.191,1,6
227,0.810551,6.182,1,6
228,0.822971,6.239,1,6
229,0.822971,6.264,1,6
230,0.83551,6.277,1,6
231,0.84181,6.295,1,6
232,0.848122,6.316,1,6
233,0.85445,6.329,1,6
234,0.86083,6.377,1,6
235,0.867191,6.359,1,6
236,0.87359,6.402,1,6
237,0.880001,6.407,1,6
238,0.886452,6.45,1,6
239,0.89291,6.459,1,6
240,0.899441,6.536,1,6
241,0.905951,6.506,1,6
242,0.912481,6.536,1,6
243,0.91909,6.605,1,6
244,0.92568,6.592,1,6
245,0.932322,6.64,1,6
246,0.938971,6.648,1,6
247,0.945641,6.674,1,6
248,0.952341,6.7,1,6
249,0.95907,6.722,1,6
250,0.965801,6.735,1,6
251,0.97254,6.739,1,6
252,0.979301,6.756,1,6
253,0.98612,6.825,1,6
254,0.99291,6.786,1,6
255,0.999771,6.864,1,6
256,1.00662,6.847,1,6
257,1.01353,6.916,1,6
258,1.02045,6.912,1,6
259,1.02741,6.968,1,6
260,1.03437,6.959,1,6
261,1.04137,6.998,1,6
262,1.04838,7.011,1,6
263,1.05543,7.054,1,6
264,1.06248,7.05,1,6
265,1.06957,7.106,1,6
266,1.07667,7.123,1,6
267,1.0838,7.157,1,6
268,1.09095,7.17,1,6
269,1.09812,7.17,1,6
270,1.10534,7.252,1,6
271,1.11984,7.244,1,6
272,1.12714,7.3,1,6
273,1.1344,7.27,1,6
274,1.14174,7.334,1,6
275,1.14903,7.291,1,6
276,1.15641,7.382,1,6
277,1.16378,7.39,1,6
278,1.17117,7.39,1,6
279,1.17858,7.408,1,6
280,1.18602,7.442,1,6
281,1.19347,7.447,1,6
282,1.20096,7.494,1,6
283,1.20848,7.52,1,6
284,1.21601,7.528,1,6
285,1.22359,7.58,1,6
286,1.23117,7.576,1,6
287,1.23875,7.58,1,6
288,1.24638,7.636,1,6
289,1.25403,7.649,1,6
290,1.26169,7.654,1,6
291,1.26939,7.701,1,6
292,1.2771,7.71,1,6
293,1.2848,7.701,1,6
294,1.29256,7.766,1,6
295,1.30036,7.8,1,6
296,1.30816,7.8,1,6
297,1.31599,7.83,1,6
298,1.32388,7.882,1,6
299,1.33176,7.887,1,6
300,1.33967,7.904,1,6
301,1.34759,7.921,1,6
302,1.35553,7.938,1,6
303,1.37147,7.999,1,6
304,1.37947,7.999,1,6
305,1.38752,8.051,1,6
306,1.39559,8.068,1,6
307,1.40368,8.089,1,6
308,1.41176,8.085,1,6
309,1.41988,8.12,1,6
310,1.42802,8.137,1,6
311,1.43617,8.15,1,6
312,1.44434,8.167,1,6
313,1.45253,8.197,1,6
314,1.46072,8.184,1,6
315,1.46897,8.249,1,6
316,1.47724,8.271,1,6
317,1.48556,8.322,1,6
318,1.49389,8.327,1,6
319,1.50226,8.374,1,6
320,1.51063,8.365,1,6
321,1.51903,8.409,1,6
322,1.52745,8.417,1,6
323,1.53589,8.434,1,6
324,1.54433,8.439,1,6
325,1.55281,8.486,1,6
326,1.56131,8.495,1,6
327,1.56982,8.516,1,6
328,1.57837,8.547,1,6
329,1.58695,8.577,1,6
330,1.59555,8.603,1,6
331,1.60418,8.629,1,6
332,1.61281,8.633,1,6
333,1.62148,8.672,1,6
334,1.63019,8.702,1,6
335,1.6389,8.715,1,6
336,1.64764,8.741,1,6
337,1.65641,8.771,1,6
338,1.66519,8.775,1,6
339,1.674,8.814,1,6
340,1.68285,8.853,1,6
341,1.6917,8.844,1,6
342,1.70057,8.875,1,6
343,1.70947,8.9,1,6
344,1.71837,8.9,1,6
345,1.7273,8.931,1,6
346,1.73623,8.987,1,6
347,1.74521,8.987,1,6
348,1.76322,9.021,1,6
349,1.76322,9.043,1,6
350,1.78131,9.047,1,6
351,1.79042,9.116,1,6
352,1.7995,9.082,1,6
353,1.80862,9.112,1,6
354,1.81771,9.095,1,6
355,1.82681,9.103,1,6
356,1.83597,9.151,1,6
357,1.84511,9.142,1,6
358,1.85425,9.142,1,6
359,1.86341,9.159,1,6
360,1.8725,9.095,1,6
361,1.88164,9.133,1,6
362,1.89079,9.099,1,6
363,1.89989,9.138,1,6
364,1.90903,9.138,1,6
365,1.91814,9.116,1,6
366,1.92727,9.129,1,6
367,1.93639,9.116,1,6
368,1.9455,9.108,1,6
369,1.9546,9.108,1,6
370,1.96372,9.112,1,6
371,1.97279,9.077,1,6
372,1.9819,9.103,1,6
373,1.99096,9.064,1,6
374,2.00005,9.09,1,6
375,2.00915,9.095,1,6
376,2.01826,9.112,1,6
377,2.02734,9.082,1,6
378,2.03644,9.103,1,6
379,2.04552,9.082,1,6
380,2.05461,9.09,1,6
381,2.06367,9.051,1,6
382,2.07276,9.095,1,6
383,2.0818,9.043,1,6
384,2.09086,9.06,1,6
385,2.09991,9.047,1,6
386,2.10899,9.077,1,6
387,2.11802,9.034,1,6
388,2.12707,9.051,1,6
389,2.13612,9.051,1,6
390,2.1452,9.051,1,6
391,2.16331,9.06,1,6
392,2.17239,9.073,1,6
393,2.1814,9.017,1,6
394,2.19046,9.06,1,6
395,2.19948,9.017,1,6
396,2.20853,9.051,1,6
397,2.21757,9.039,1,6
398,2.22658,9.013,1,6
399,2.23564,9.056,1,6
400,2.24468,9.039,1,6
401,2.2537,9.026,1,6
402,2.26276,9.051,1,6
403,2.27177,9.017,1,6
404,2.28079,9.021,1,6
405,2.28985,9.06,1,6
406,2.29893,9.077,1,6
407,2.30802,9.095,1,6
408,2.31708,9.051,1,6
409,2.32613,9.051,1,6
410,2.33517,9.043,1,6
411,2.34421,9.043,1,6
412,2.35326,9.047,1,6
413,2.36225,8.987,1,6
414,2.37129,9.039,1,6
415,2.38031,9.026,1,6
416,2.38934,9.03,1,6
417,2.39836,9.017,1,6
418,2.40734,8.978,1,6
419,2.41635,9.013,1,6
420,2.42536,9.008,1,6
421,2.43433,8.969,1,6
422,2.44332,8.991,1,6
423,2.45232,9.004,1,6
424,2.4613,8.982,1,6
425,2.47031,9.004,1,6
426,2.47931,9,1,6
427,2.48829,8.982,1,6
428,2.49728,8.987,1,6
429,2.50628,9,1,6
430,2.51523,8.957,1,6
431,2.52423,8.995,1,6
432,2.53321,8.982,1,6
433,2.54219,8.982,1,6
434,2.55116,8.965,1,6
435,2.56014,8.978,1,6
436,2.56914,9.008,1,6
437,2.57812,8.974,1,6
438,2.5871,8.978,1,6
439,2.59613,9.03,1,6
440,2.60513,9,1,6
441,2.6141,8.978,1,6
442,2.62313,9.026,1,6
443,2.6321,8.974,1,6
444,2.64112,9.013,1,6
445,2.65009,8.969,1,6
446,2.65908,8.995,1,6
447,2.66808,8.995,1,6
448,2.67705,8.974,1,6
449,2.68606,9.004,1,6
450,2.69502,8.969,1,6
451,2.70403,9.004,1,6
452,2.71305,9.026,1,6
453,2.72203,8.974,1,6
454,2.73105,9.026,1,6
455,2.74007,9.013,1,6
456,2.74903,9.004,1,6
457,2.75804,9.004,1,6
458,2.76701,9.004,1,6
459,2.77602,9.017,1,6
460,2.78503,9.017,1,6
461,2.79401,8.978,1,6
462,2.81202,9.013,1,6
463,2.82101,8.982,1,6
464,2.83002,9.013,1,6
465,2.83899,8.974,1,6
466,2.84799,8.995,1,6
467,2.85694,8.952,1,6
468,2.86591,8.969,1,6
469,2.87491,8.995,1,6
470,2.8839,8.991,1,6
471,2.89287,8.974,1,6
472,2.90187,9,1,6
473,2.91086,8.987,1,6
474,2.91987,9.013,1,6
475,2.92885,8.978,1,6
476,2.93785,9,1,6
477,2.94684,8.991,1,6
478,2.95585,9.008,1,6
479,2.96485,9.008,1,6
480,2.97383,8.978,1,6
481,2.98283,9,1,6
482,2.99183,9,1,6
483,3.00081,8.974,1,6
484,3.00981,9.004,1,6
485,3.01881,9.004,1,6
486,3.0278,8.991,1,6
487,3.03676,8.957,1,6
488,3.04572,8.957,1,6
489,3.05473,8.982,1,6
490,3.06372,8.995,1,6
491,3.08168,8.965,1,6
492,3.09067,8.995,1,6
493,3.09967,8.995,1,6
494,3.10866,8.991,1,6
495,3.11762,8.957,1,6
496,3.12661,8.995,1,6
497,3.13559,8.982,1,6
498,3.14459,9,1,6
499,3.15359,8.995,1,6
500,3.1626,9.008,1,6
501,3.1716,9.004,1,6
502,3.18061,9.008,1,6
503,3.18962,9.008,1,6
504,3.19861,8.991,1,6
505,3.20759,8.982,1,6
506,3.2166,9.004,1,6
507,3.22559,8.991,1,6
508,3.23458,8.969,1,6
509,3.25254,8.987,1,6
510,3.25254,8.995,1,6
511,3.26153,8.995,1,6
512,3.27054,9.004,1,6
513,3.28853,8.974,1,6
514,3.29753,8.995,1,6
515,3.30655,9.026,1,6
516,3.31552,8.969,1,6
517,3.32454,9.017,1,6
518,3.33352,8.982,1,6
519,3.3425,8.978,1,6
520,3.35151,9.008,1,6
521,3.36049,8.982,1,6
522,3.3695,9.008,1,6
523,3.37849,8.991,1,6
524,3.38748,8.991,1,6
525,3.39648,9,1,6
526,3.40547,8.991,1,6
527,3.41445,8.974,1,6
528,3.42345,9.004,1,6
529,3.43242,8.974,1,6
530,3.44143,9.004,1,6
531,3.45041,8.978,1,6
532,3.45939,8.982,1,6
533,3.46838,8.991,1,6
534,3.47736,8.982,1,6
535,3.48637,9.013,1,6
536,3.49536,8.982,1,6
537,3.50434,8.982,1,6
538,3.51334,9,1,6
539,3.52232,8.978,1,6
540,3.53128,8.965,1,6
541,3.54922,8.987,1,6
542,3.55823,9.004,1,6
543,3.56722,8.987,1,6
544,3.57619,8.978,1,6
545,3.5852,9.004,1,6
546,3.59418,8.982,1,6
547,3.60317,8.991,1,6
548,3.61217,9,1,6
549,3.62117,9,1,6
550,3.63015,8.974,1,6
551,3.63913,8.987,1,6
552,3.64812,8.987,1,6
553,3.65712,9.004,1,6
554,3.66609,8.969,1,6
555,3.67507,8.982,1,6
556,3.68404,8.965,1,6
557,3.69302,8.982,1,6
558,3.70204,9.017,1,6
559,3.71099,8.957,1,6
560,3.72,9.008,1,6
561,3.729,8.995,1,6
562,3.73798,8.987,1,6
563,3.74701,9.021,1,6
564,3.75601,9.004,1,6
565,3.76499,8.982,1,6
566,3.77399,8.995,1,6
567,3.78298,8.987,1,6
568,3.79199,9.013,1,6
569,3.801,9.013,1,6
570,3.80996,8.965,1,6
571,3.81896,8.991,1,6
572,3.82797,9.013,1,6
573,3.83698,9.008,1,6
574,3.84598,9.008,1,6
575,3.85498,8.991,1,6
576,3.86399,9.013,1,6
577,3.87302,9.03,1,6
578,3.88199,8.974,1,6
579,3.89101,9.017,1,6
580,3.89997,8.965,1,6
581,3.90897,8.995,1,6
582,3.91797,9.004,1,6
583,3.92697,8.995,1,6
584,3.93596,8.991,1,6
585,3.95395,8.995,1,6
586,3.96294,8.991,1,6
587,3.97192,8.982,1,6
588,3.98092,9,1,6
589,3.9899,8.982,1,6
590,3.9989,9,1,6
591,4.0079,9,1,6
592,4.01687,8.965,1,6
593,4.02585,8.982,1,6
594,4.03486,9.008,1,6
595,4.04384,8.982,1,6
596,4.05287,9.034,1,6
597,4.07084,8.995,1,6
598,4.07084,8.995,1,6
599,4.07983,8.995,1,6
600,4.08886,9.026,1,6
601,4.09785,8.995,1,6
602,4.10683,8.982,1,6
603,4.11582,8.991,1,6
604,4.12484,9.013,1,6
605,4.13382,9,1,6
606,4.14281,8.995,1,6
607,4.15181,8.978,1,6
608,4.16079,8.978,1,6
609,4.16978,8.982,1,6
610,4.17877,8.982,1,6
611,4.18779,9.021,1,6
612,4.19677,8.978,1,6
613,4.21472,8.969,1,6
614,4.22373,9.013,1,6
615,4.2327,8.965,1,6
616,4.2417,9,1,6
617,4.25066,8.957,1,6
618,4.25964,8.982,1,6
619,4.26865,9.017,1,6
620,4.27762,8.969,1,6
621,4.28661,8.987,1,6
622,4.29562,9.004,1,6
623,4.30459,8.978,1,6
624,4.31361,9.013,1,6
625,4.32261,9.008,1,6
626,4.33161,8.991,1,6
627,4.34058,8.974,1,6
628,4.34957,8.995,1,6
629,4.35858,9.004,1,6
630,4.36757,8.991,1,6
631,4.37653,8.957,1,6
632,4.38551,8.982,1,6
633,4.39452,9.013,1,6
634,4.40352,8.995,1,6
635,4.41252,9.004,1,6
636,4.42151,8.991,1,6
637,4.43054,9.026,1,6
638,4.43952,8.987,1,6
639,4.44847,8.948,1,6
640,4.45746,8.991,1,6
641,4.46644,8.978,1,6
642,4.47543,8.987,1,6
643,4.48442,8.991,1,6
644,4.49341,8.995,1,6
645,4.50242,9.004,1,6
646,4.5204,8.991,1,6
647,4.52937,8.974,1,6
648,4.53837,9,1,6
649,4.54735,8.978,1,6
650,4.55637,9.021,1,6
651,4.56533,8.961,1,6
652,4.57434,9.013,1,6
653,4.5833,8.961,1,6
654,4.59229,8.991,1,6
655,4.60129,9,1,6
656,4.61028,9,1,6
657,4.61928,9,1,6
658,4.62824,8.957,1,6
659,4.63718,8.944,1,6
660,4.64615,8.974,1,6
661,4.65514,8.987,1,6
662,4.66412,8.982,1,6
663,4.6731,8.974,1,6
664,4.68209,8.991,1,6
665,4.70008,8.969,1,6
666,4.70008,8.991,1,6
667,4.70907,8.991,1,6
668,4.7181,9.034,1,6
669,4.72709,8.982,1,6
670,4.73611,9.021,1,6
671,4.74509,8.982,1,6
672,4.76308,8.995,1,6
673,4.77207,8.982,1,6
674,4.78105,8.987,1,6
675,4.79007,9.013,1,6
676,4.79007,8.965,1,6
677,4.79903,8.965,1,6
678,4.80802,8.991,1,6
679,4.81699,8.965,1,6
680,4.82596,8.974,1,6
681,4.84394,8.961,1,6
682,4.85293,8.991,1,6
683,4.86193,9.004,1,6
684,4.87092,8.991,1,6
685,4.87994,9.021,1,6
686,4.88893,8.991,1,6
687,4.89793,8.995,1,6
688,4.90692,8.987,1,6
689,4.91591,8.995,1,6
690,4.92489,8.982,1,6
691,4.9339,9.004,1,6
692,4.94289,8.995,1,6
693,4.95188,9.004,1,6
694,4.9699,9.013,1,6
695,4.97888,8.987,1,6
696,4.9879,9.017,1,6
697,4.9879,9.008,1,6
698,4.99691,9.008,1,6
699,5.0149,8.982,1,6
700,5.02391,9.008,1,6
701,5.03288,8.974,1,6
702,5.04187,8.991,1,6
703,5.05088,9.004,1,6
704,5.05987,8.991,1,6
705,5.06888,9.008,1,6
706,5.07785,8.978,1,6
707,5.08685,9,1,6
708,5.09584,8.982,1,6
