cnt,pos,speed,Dir,Force,
1,0,1.014,1,9
2,0.00105095,1.044,1,9
3,0.00212097,1.079,1,9
4,0.00320053,1.074,1,9
5,0.00433159,1.126,1,9
6,0.0054512,1.126,1,9
7,0.00662041,1.169,1,9
8,0.00781059,1.186,1,9
9,0.00901985,1.217,1,9
10,0.0102615,1.238,1,9
11,0.0115299,1.264,1,9
12,0.0128307,1.303,1,9
13,0.0141506,1.32,1,9
14,0.015501,1.355,1,9
15,0.0168705,1.368,1,9
16,0.018301,1.428,1,9
17,0.0197411,1.441,1,9
18,0.0212212,1.48,1,9
19,0.0227413,1.519,1,9
20,0.0242805,1.54,1,9
21,0.0258713,1.592,1,9
22,0.0274811,1.614,1,9
23,0.0291405,1.657,1,9
24,0.0308399,1.7,1,9
25,0.0325413,1.696,1,9
26,0.0342903,1.752,1,9
27,0.0360909,1.838,1,9
28,0.03792,1.838,1,9
29,0.0416908,1.898,1,9
30,0.0436115,1.924,1,9
31,0.0455799,1.967,1,9
32,0.0475616,1.98,1,9
33,0.0496006,2.036,1,9
34,0.0516701,2.075,1,9
35,0.0537815,2.11,1,9
36,0.0559101,2.127,1,9
37,0.0580902,2.179,1,9
38,0.0602703,2.183,1,9
39,0.0625114,2.243,1,9
40,0.0648003,2.282,1,9
41,0.0671005,2.304,1,9
42,0.0694504,2.351,1,9
43,0.0718307,2.382,1,9
44,0.0742512,2.416,1,9
45,0.0767002,2.451,1,9
46,0.0791817,2.481,1,9
47,0.0817013,2.524,1,9
48,0.0842514,2.55,1,9
49,0.0868511,2.602,1,9
50,0.0894909,2.632,1,9
51,0.0921612,2.671,1,9
52,0.0948715,2.709,1,9
53,0.0975914,2.727,1,9
54,0.10038,2.783,1,9
55,0.10322,2.852,1,9
56,0.10898,2.908,1,9
57,0.111891,2.916,1,9
58,0.114882,2.981,1,9
59,0.11787,2.99,1,9
60,0.12092,3.059,1,9
61,0.124001,3.072,1,9
62,0.1271,3.102,1,9
63,0.13026,3.162,1,9
64,0.133451,3.184,1,9
65,0.136681,3.231,1,9
66,0.13994,3.266,1,9
67,0.14323,3.292,1,9
68,0.146582,3.357,1,9
69,0.14994,3.357,1,9
70,0.15336,3.447,1,9
71,0.156811,3.486,1,9
72,0.160292,3.486,1,9
73,0.163811,3.52,1,9
74,0.16737,3.577,1,9
75,0.17095,3.633,1,9
76,0.174582,3.68,1,9
77,0.18198,3.719,1,9
78,0.18198,3.728,1,9
79,0.185711,3.728,1,9
80,0.18948,3.771,1,9
81,0.193291,3.814,1,9
82,0.197161,3.848,1,9
83,0.204941,3.93,1,9
84,0.20891,3.969,1,9
85,0.212912,3.999,1,9
86,0.216921,4.012,1,9
87,0.221022,4.099,1,9
88,0.225101,4.077,1,9
89,0.229231,4.129,1,9
90,0.23341,4.181,1,9
91,0.23761,4.202,1,9
92,0.24185,4.245,1,9
93,0.24613,4.275,1,9
94,0.250431,4.301,1,9
95,0.25478,4.353,1,9
96,0.259192,4.422,1,9
97,0.263611,4.422,1,9
98,0.268082,4.521,1,9
99,0.2726,4.521,1,9
100,0.277142,4.534,1,9
101,0.281712,4.625,1,9
102,0.290991,4.651,1,9
103,0.290991,4.724,1,9
104,0.30043,4.72,1,9
105,0.30043,4.72,1,9
106,0.305201,4.767,1,9
107,0.310001,4.802,1,9
108,0.31481,4.815,1,9
109,0.319681,4.862,1,9
110,0.324581,4.905,1,9
111,0.329512,4.923,1,9
112,0.334461,4.957,1,9
113,0.339481,5.022,1,9
114,0.349571,5.074,1,9
115,0.354681,5.112,1,9
116,0.359831,5.151,1,9
117,0.365021,5.194,1,9
118,0.37026,5.233,1,9
119,0.375521,5.263,1,9
120,0.38081,5.289,1,9
121,0.38619,5.376,1,9
122,0.391571,5.38,1,9
123,0.402431,5.466,1,9
124,0.40793,5.505,1,9
125,0.40793,5.505,1,9
126,0.413462,5.535,1,9
127,0.419001,5.613,1,9
128,0.43021,5.596,1,9
129,0.43021,5.66,1,9
130,0.441551,5.686,1,9
131,0.44726,5.712,1,9
132,0.453041,5.773,1,9
133,0.458841,5.807,1,9
134,0.464682,5.842,1,9
135,0.470551,5.863,1,9
136,0.476471,5.919,1,9
137,0.48242,5.949,1,9
138,0.488411,5.997,1,9
139,0.494452,6.031,1,9
140,0.500521,6.07,1,9
141,0.50663,6.118,1,9
142,0.51276,6.122,1,9
143,0.518921,6.161,1,9
144,0.525141,6.221,1,9
145,0.531361,6.226,1,9
146,0.537642,6.277,1,9
147,0.543982,6.338,1,9
148,0.556702,6.364,1,9
149,0.556702,6.428,1,9
150,0.56312,6.45,1,9
151,0.56958,6.45,1,9
152,0.57609,6.523,1,9
153,0.582621,6.523,1,9
154,0.5958,6.618,1,9
155,0.602421,6.627,1,9
156,0.60907,6.644,1,9
157,0.615751,6.687,1,9
158,0.622501,6.748,1,9
159,0.629251,6.743,1,9
160,0.63603,6.782,1,9
161,0.64287,6.843,1,9
162,0.64974,6.868,1,9
163,0.656641,6.899,1,9
164,0.663591,6.95,1,9
165,0.670591,7.002,1,9
166,0.67761,7.015,1,9
167,0.684681,7.075,1,9
168,0.691751,7.071,1,9
169,0.698891,7.136,1,9
170,0.70603,7.145,1,9
171,0.71323,7.196,1,9
172,0.72047,7.244,1,9
173,0.72773,7.252,1,9
174,0.735022,7.291,1,9
175,0.749722,7.373,1,9
176,0.757151,7.429,1,9
177,0.76462,7.468,1,9
178,0.77211,7.485,1,9
179,0.77964,7.537,1,9
180,0.78722,7.58,1,9
181,0.794821,7.598,1,9
182,0.80245,7.632,1,9
183,0.810122,7.671,1,9
184,0.817822,7.692,1,9
185,0.82551,7.692,1,9
186,0.83329,7.809,1,9
187,0.841101,7.809,1,9
188,0.84893,7.895,1,9
189,0.856831,7.895,1,9
190,0.864761,7.93,1,9
191,0.87269,7.934,1,9
192,0.880661,7.973,1,9
193,0.88867,8.012,1,9
194,0.8967,8.02,1,9
195,0.9048,8.102,1,9
196,0.912891,8.089,1,9
197,0.921021,8.132,1,9
198,0.92922,8.202,1,9
199,0.93745,8.227,1,9
200,0.945711,8.266,1,9
201,0.95405,8.331,1,9
202,0.9708,8.417,1,9
203,0.9708,8.4,1,9
204,0.987671,8.469,1,9
205,0.99612,8.456,1,9
206,1.00464,8.512,1,9
207,1.01317,8.538,1,9
208,1.02172,8.551,1,9
209,1.03037,8.642,1,9
210,1.03901,8.642,1,9
211,1.04771,8.736,1,9
212,1.05645,8.736,1,9
213,1.07403,8.814,1,9
214,1.08285,8.823,1,9
215,1.09175,8.9,1,9
216,1.10066,8.905,1,9
217,1.1096,8.939,1,9
218,1.1186,9,1,9
219,1.12762,9.021,1,9
220,1.13669,9.073,1,9
221,1.14582,9.125,1,9
222,1.15495,9.138,1,9
223,1.16415,9.198,1,9
224,1.17335,9.202,1,9
225,1.18257,9.215,1,9
226,1.19181,9.241,1,9
227,1.20109,9.276,1,9
228,1.21042,9.328,1,9
229,1.21978,9.362,1,9
230,1.22917,9.388,1,9
231,1.23863,9.466,1,9
232,1.24809,9.466,1,9
233,1.25758,9.483,1,9
234,1.26713,9.552,1,9
235,1.2767,9.573,1,9
236,1.29593,9.621,1,9
237,1.3056,9.668,1,9
238,1.31532,9.72,1,9
239,1.32509,9.772,1,9
240,1.3349,9.802,1,9
241,1.34474,9.841,1,9
242,1.3546,9.867,1,9
243,1.3645,9.897,1,9
244,1.37447,9.966,1,9
245,1.38443,9.962,1,9
246,1.39442,9.992,1,9
247,1.40446,10.039,1,9
248,1.4145,10.044,1,9
249,1.42463,10.13,1,9
250,1.43479,10.152,1,9
251,1.44497,10.186,1,9
252,1.45518,10.212,1,9
253,1.46541,10.229,1,9
254,1.47566,10.247,1,9
255,1.48595,10.285,1,9
256,1.4963,10.354,1,9
257,1.5067,10.398,1,9
258,1.51714,10.445,1,9
259,1.52763,10.484,1,9
260,1.53817,10.549,1,9
261,1.5487,10.523,1,9
262,1.55921,10.518,1,9
263,1.56981,10.596,1,9
264,1.59105,10.652,1,9
265,1.60174,10.682,1,9
266,1.61248,10.743,1,9
267,1.62326,10.777,1,9
268,1.63409,10.833,1,9
269,1.64493,10.838,1,9
270,1.65582,10.894,1,9
271,1.66671,10.894,1,9
272,1.67769,10.971,1,9
273,1.6887,11.01,1,9
274,1.69975,11.058,1,9
275,1.71085,11.101,1,9
276,1.72198,11.127,1,9
277,1.73315,11.165,1,9
278,1.74429,11.148,1,9
279,1.75551,11.213,1,9
280,1.76671,11.204,1,9
281,1.77795,11.234,1,9
282,1.78923,11.329,1,9
283,1.80056,11.329,1,9
284,1.81193,11.39,1,9
285,1.82333,11.437,1,9
286,1.83476,11.437,1,9
287,1.84623,11.463,1,9
288,1.85773,11.502,1,9
289,1.86923,11.502,1,9
290,1.89243,11.618,1,9
291,1.90408,11.653,1,9
292,1.91578,11.692,1,9
293,1.92751,11.735,1,9
294,1.93926,11.744,1,9
295,1.95102,11.761,1,9
296,1.96282,11.804,1,9
297,1.97464,11.826,1,9
298,1.98654,11.89,1,9
299,1.99845,11.912,1,9
300,2.01036,11.916,1,9
301,2.02234,11.981,1,9
302,2.03437,12.028,1,9
303,2.0464,12.067,1,9
304,2.07059,12.123,1,9
305,2.07059,12.192,1,9
306,2.095,12.222,1,9
307,2.095,12.27,1,9
308,2.11956,12.292,1,9
309,2.13188,12.322,1,9
310,2.1442,12.313,1,9
311,2.15653,12.335,1,9
312,2.16892,12.391,1,9
313,2.18136,12.434,1,9
314,2.19386,12.503,1,9
315,2.20638,12.52,1,9
316,2.21893,12.546,1,9
317,2.2315,12.572,1,9
318,2.24414,12.641,1,9
319,2.25684,12.706,1,9
320,2.26957,12.723,1,9
321,2.28228,12.714,1,9
322,2.29507,12.792,1,9
323,2.30788,12.801,1,9
324,2.3207,12.822,1,9
325,2.33351,12.814,1,9
326,2.34639,12.878,1,9
327,2.35929,12.9,1,9
328,2.37227,12.982,1,9
329,2.38526,12.986,1,9
330,2.39827,13.012,1,9
331,2.41131,13.042,1,9
332,2.42441,13.094,1,9
333,2.43751,13.103,1,9
334,2.45069,13.18,1,9
335,2.4639,13.21,1,9
336,2.47718,13.279,1,9
337,2.49046,13.279,1,9
338,2.50378,13.288,1,9
339,2.51706,13.288,1,9
340,2.53045,13.418,1,9
341,2.54386,13.456,1,9
342,2.55732,13.461,1,9
343,2.57078,13.461,1,9
344,2.58429,13.504,1,9
345,2.61136,13.564,1,9
346,2.62494,13.586,1,9
347,2.6386,13.659,1,9
348,2.65234,13.737,1,9
349,2.66608,13.745,1,9
350,2.67974,13.659,1,9
351,2.69341,13.663,1,9
352,2.70709,13.685,1,9
353,2.72079,13.702,1,9
354,2.73452,13.728,1,9
355,2.76199,13.724,1,9
356,2.77571,13.724,1,9
357,2.78945,13.737,1,9
358,2.78945,13.694,1,9
359,2.80314,13.694,1,9
360,2.81681,13.668,1,9
361,2.83049,13.681,1,9
362,2.84416,13.672,1,9
363,2.85786,13.698,1,9
364,2.87148,13.625,1,9
365,2.88516,13.672,1,9
366,2.89876,13.603,1,9
367,2.91242,13.642,1,9
368,2.92606,13.642,1,9
369,2.93974,13.681,1,9
370,2.9534,13.659,1,9
371,2.96706,13.663,1,9
372,2.9807,13.642,1,9
373,2.99436,13.663,1,9
374,3.00798,13.612,1,9
375,3.02163,13.612,1,9
376,3.03524,13.612,1,9
377,3.04887,13.625,1,9
378,3.06246,13.59,1,9
379,3.07607,13.607,1,9
380,3.1033,13.612,1,9
381,3.11691,13.612,1,9
382,3.13055,13.633,1,9
383,3.1442,13.651,1,9
384,3.15787,13.676,1,9
385,3.17154,13.668,1,9
386,3.18518,13.638,1,9
387,3.19883,13.651,1,9
388,3.21247,13.607,1,9
389,3.23972,13.642,1,9
390,3.25332,13.603,1,9
391,3.26693,13.603,1,9
392,3.2805,13.573,1,9
393,3.29405,13.551,1,9
394,3.3076,13.551,1,9
395,3.32111,13.508,1,9
396,3.33469,13.581,1,9
397,3.34819,13.495,1,9
398,3.36172,13.534,1,9
399,3.37527,13.551,1,9
400,3.38882,13.547,1,9
401,3.4024,13.581,1,9
402,3.41594,13.543,1,9
403,3.42948,13.534,1,9
404,3.44302,13.538,1,9
405,3.45654,13.525,1,9
406,3.47006,13.521,1,9
407,3.48355,13.491,1,9
408,3.49705,13.5,1,9
409,3.51055,13.5,1,9
410,3.52406,13.508,1,9
411,3.53757,13.508,1,9
412,3.55109,13.521,1,9
413,3.56461,13.521,1,9
414,3.57811,13.504,1,9
415,3.59164,13.525,1,9
416,3.60513,13.487,1,9
417,3.61864,13.491,1,9
418,3.63213,13.495,1,9
419,3.65913,13.5,1,9
420,3.67261,13.482,1,9
421,3.68612,13.508,1,9
422,3.69963,13.512,1,9
423,3.71312,13.491,1,9
424,3.72663,13.512,1,9
425,3.74015,13.517,1,9
426,3.75368,13.53,1,9
427,3.76718,13.504,1,9
428,3.79427,13.525,1,9
429,3.79427,13.525,1,9
430,3.80777,13.5,1,9
431,3.82127,13.491,1,9
432,3.83467,13.4,1,9
433,3.84812,13.452,1,9
434,3.86162,13.508,1,9
435,3.87515,13.525,1,9
436,3.88868,13.53,1,9
437,3.90221,13.525,1,9
438,3.91572,13.517,1,9
439,3.92924,13.517,1,9
440,3.94275,13.512,1,9
441,3.95624,13.487,1,9
442,3.96975,13.512,1,9
443,3.98325,13.495,1,9
444,3.99675,13.504,1,9
445,4.01024,13.474,1,9
446,4.03722,13.508,1,9
447,4.0507,13.478,1,9
448,4.06423,13.53,1,9
449,4.07773,13.495,1,9
450,4.09122,13.495,1,9
451,4.10471,13.487,1,9
452,4.11822,13.508,1,9
453,4.13173,13.517,1,9
454,4.14522,13.491,1,9
455,4.15871,13.491,1,9
456,4.17223,13.5,1,9
457,4.19922,13.487,1,9
458,4.19922,13.5,1,9
459,4.2262,13.482,1,9
460,4.2262,13.474,1,9
461,4.23967,13.512,1,9
462,4.26668,13.5,1,9
463,4.28017,13.482,1,9
464,4.29366,13.491,1,9
465,4.30715,13.495,1,9
466,4.32067,13.521,1,9
467,4.33418,13.504,1,9
468,4.34772,13.543,1,9
469,4.36122,13.504,1,9
470,4.37473,13.504,1,9
471,4.3882,13.474,1,9
472,4.40169,13.487,1,9
473,4.41512,13.435,1,9
474,4.42863,13.508,1,9
475,4.44213,13.495,1,9
476,4.45567,13.543,1,9
477,4.46918,13.508,1,9
478,4.48267,13.491,1,9
479,4.49616,13.491,1,9
480,4.50966,13.504,1,9
481,4.52315,13.491,1,9
482,4.53669,13.534,1,9
483,4.55019,13.5,1,9
484,4.56368,13.491,1,9
485,4.59063,13.469,1,9
486,4.59063,13.469,1,9
487,4.61757,13.452,1,9
488,4.61757,13.452,1,9
489,4.63105,13.474,1,9
490,4.64452,13.478,1,9
491,4.67147,13.491,1,9
492,4.68497,13.504,1,9
493,4.69848,13.5,1,9
494,4.71197,13.5,1,9
495,4.7255,13.521,1,9
496,4.739,13.508,1,9
497,4.75251,13.508,1,9
498,4.76602,13.504,1,9
499,4.77952,13.504,1,9
500,4.79302,13.504,1,9
501,4.80652,13.5,1,9
502,4.82004,13.521,1,9
503,4.83354,13.5,1,9
504,4.84703,13.482,1,9
505,4.86053,13.504,1,9
506,4.87402,13.487,1,9
507,4.88753,13.517,1,9
508,4.90103,13.5,1,9
509,4.91457,13.538,1,9
510,4.92808,13.508,1,9
511,4.94157,13.491,1,9
512,4.95504,13.474,1,9
513,4.96854,13.5,1,9
514,4.98202,13.474,1,9
515,4.99552,13.504,1,9
516,5.00903,13.512,1,9
517,5.02257,13.534,1,9
518,5.03609,13.525,1,9
519,5.04963,13.534,1,9
520,5.06313,13.5,1,9
521,5.07663,13.5,1,9
522,5.09011,13.482,1,9
