cnt,pos,speed,Dir,Force,
1,0,1.014,1,9
2,0.00103951,1.035,1,9
3,0.00207901,1.04,1,9
4,0.0031395,1.057,1,9
5,0.0042305,1.092,1,9
6,0.0053196,1.096,1,9
7,0.00643921,1.122,1,9
8,0.00758934,1.139,1,9
9,0.00876045,1.178,1,9
10,0.00993919,1.182,1,9
11,0.0111809,1.234,1,9
12,0.0124207,1.243,1,9
13,0.0137196,1.294,1,9
14,0.0150394,1.324,1,9
15,0.0163803,1.337,1,9
16,0.0177593,1.385,1,9
17,0.0191898,1.428,1,9
18,0.0206394,1.445,1,9
19,0.0221195,1.48,1,9
20,0.0236397,1.527,1,9
21,0.0251999,1.553,1,9
22,0.0268002,1.601,1,9
23,0.028429,1.635,1,9
24,0.0300903,1.657,1,9
25,0.0317898,1.704,1,9
26,0.0335293,1.739,1,9
27,0.0353107,1.782,1,9
28,0.0370998,1.825,1,9
29,0.0408096,1.877,1,9
30,0.0408096,1.903,1,9
31,0.0446396,1.929,1,9
32,0.0446396,1.967,1,9
33,0.0485706,1.963,1,9
34,0.0485706,2.032,1,9
35,0.052639,2.045,1,9
36,0.054739,2.092,1,9
37,0.05686,2.123,1,9
38,0.0590096,2.153,1,9
39,0.0611897,2.179,1,9
40,0.0634193,2.231,1,9
41,0.0656891,2.265,1,9
42,0.0679798,2.291,1,9
43,0.0702991,2.321,1,9
44,0.07267,2.369,1,9
45,0.0750599,2.394,1,9
46,0.0775108,2.446,1,9
47,0.0799809,2.468,1,9
48,0.0824699,2.494,1,9
49,0.0849991,2.537,1,9
50,0.0876198,2.61,1,9
51,0.0902405,2.627,1,9
52,0.0928898,2.649,1,9
53,0.09832,2.714,1,9
54,0.09832,2.761,1,9
55,0.10108,2.835,1,9
56,0.106779,2.86,1,9
57,0.10968,2.904,1,9
58,0.11257,2.891,1,9
59,0.115549,2.981,1,9
60,0.118549,2.994,1,9
61,0.12159,3.037,1,9
62,0.12467,3.085,1,9
63,0.127779,3.106,1,9
64,0.13092,3.145,1,9
65,0.134119,3.197,1,9
66,0.137341,3.218,1,9
67,0.1406,3.262,1,9
68,0.143881,3.283,1,9
69,0.14723,3.361,1,9
70,0.150591,3.421,1,9
71,0.154011,3.439,1,9
72,0.16091,3.456,1,9
73,0.16091,3.525,1,9
74,0.164431,3.525,1,9
75,0.16799,3.555,1,9
76,0.171591,3.598,1,9
77,0.175209,3.62,1,9
78,0.17886,3.71,1,9
79,0.18257,3.741,1,9
80,0.18631,3.771,1,9
81,0.190081,3.771,1,9
82,0.19389,3.805,1,9
83,0.197741,3.848,1,9
84,0.20163,3.892,1,9
85,0.209511,3.952,1,9
86,0.213499,3.986,1,9
87,0.217541,4.038,1,9
88,0.22159,4.051,1,9
89,0.225691,4.107,1,9
90,0.229811,4.116,1,9
91,0.23398,4.172,1,9
92,0.238171,4.189,1,9
93,0.24238,4.206,1,9
94,0.246651,4.275,1,9
95,0.250971,4.319,1,9
96,0.25531,4.34,1,9
97,0.259701,4.388,1,9
98,0.264111,4.444,1,9
99,0.268551,4.517,1,9
100,0.277611,4.543,1,9
101,0.277611,4.56,1,9
102,0.282169,4.56,1,9
103,0.29146,4.664,1,9
104,0.29615,4.69,1,9
105,0.300859,4.711,1,9
106,0.305639,4.776,1,9
107,0.310419,4.785,1,9
108,0.31529,4.862,1,9
109,0.320141,4.858,1,9
110,0.32506,4.914,1,9
111,0.33,4.94,1,9
112,0.33497,4.974,1,9
113,0.339991,5.022,1,9
114,0.345011,5.018,1,9
115,0.3501,5.091,1,9
116,0.355209,5.104,1,9
117,0.360371,5.164,1,9
118,0.36553,5.16,1,9
119,0.37077,5.238,1,9
120,0.37604,5.268,1,9
121,0.38133,5.298,1,9
122,0.386681,5.35,1,9
123,0.392071,5.384,1,9
124,0.39747,5.406,1,9
125,0.40291,5.44,1,9
126,0.4084,5.488,1,9
127,0.413931,5.527,1,9
128,0.419491,5.557,1,9
129,0.425079,5.591,1,9
130,0.430691,5.617,1,9
131,0.43638,5.691,1,9
132,0.44208,5.695,1,9
133,0.447821,5.738,1,9
134,0.453569,5.751,1,9
135,0.45936,5.794,1,9
136,0.465219,5.855,1,9
137,0.47109,5.876,1,9
138,0.47702,5.924,1,9
139,0.482981,5.967,1,9
140,0.488991,6.006,1,9
141,0.49502,6.027,1,9
142,0.50107,6.109,1,9
143,0.513309,6.131,1,9
144,0.51948,6.169,1,9
145,0.525669,6.182,1,9
146,0.531919,6.251,1,9
147,0.538179,6.26,1,9
148,0.54447,6.295,1,9
149,0.55081,6.333,1,9
150,0.557199,6.398,1,9
151,0.56361,6.411,1,9
152,0.57007,6.454,1,9
153,0.57654,6.467,1,9
154,0.58308,6.545,1,9
155,0.58963,6.553,1,9
156,0.596239,6.605,1,9
157,0.602859,6.622,1,9
158,0.60952,6.661,1,9
159,0.61622,6.7,1,9
160,0.62295,6.726,1,9
161,0.629709,6.756,1,9
162,0.636511,6.804,1,9
163,0.643351,6.838,1,9
164,0.650181,6.838,1,9
165,0.65711,6.929,1,9
166,0.664061,6.946,1,9
167,0.67107,7.006,1,9
168,0.67807,7.006,1,9
169,0.68516,7.084,1,9
170,0.692261,7.097,1,9
171,0.699381,7.123,1,9
172,0.706539,7.162,1,9
173,0.713751,7.214,1,9
174,0.720989,7.239,1,9
175,0.728239,7.248,1,9
176,0.735559,7.317,1,9
177,0.750271,7.377,1,9
178,0.75766,7.395,1,9
179,0.76512,7.464,1,9
180,0.772619,7.498,1,9
181,0.78013,7.511,1,9
182,0.78768,7.55,1,9
183,0.79525,7.572,1,9
184,0.80286,7.61,1,9
185,0.810499,7.636,1,9
186,0.81819,7.688,1,9
187,0.82589,7.697,1,9
188,0.83362,7.731,1,9
189,0.841419,7.805,1,9
190,0.849251,7.83,1,9
191,0.857121,7.865,1,9
192,0.865061,7.938,1,9
193,0.87299,7.934,1,9
194,0.88101,8.016,1,9
195,0.88903,8.02,1,9
196,0.897079,8.051,1,9
197,0.90514,8.068,1,9
198,0.91325,8.102,1,9
199,0.92136,8.111,1,9
200,0.92947,8.115,1,9
201,0.93762,8.145,1,9
202,0.94577,8.15,1,9
203,0.95393,8.163,1,9
204,0.96209,8.163,1,9
205,0.97028,8.189,1,9
206,0.978491,8.21,1,9
207,0.986691,8.202,1,9
208,0.99486,8.223,1,9
209,1.00308,8.214,1,9
210,1.01955,8.249,1,9
211,1.01955,8.232,1,9
212,1.02778,8.232,1,9
213,1.03605,8.266,1,9
214,1.04436,8.309,1,9
215,1.0611,8.374,1,9
216,1.06952,8.417,1,9
217,1.07794,8.426,1,9
218,1.08644,8.495,1,9
219,1.09491,8.478,1,9
220,1.10344,8.525,1,9
221,1.11202,8.577,1,9
222,1.12063,8.611,1,9
223,1.12928,8.65,1,9
224,1.13795,8.667,1,9
225,1.14668,8.736,1,9
226,1.15545,8.762,1,9
227,1.16426,8.814,1,9
228,1.17308,8.823,1,9
229,1.18195,8.87,1,9
230,1.19084,8.888,1,9
231,1.1998,8.965,1,9
232,1.20877,8.961,1,9
233,1.21777,9.008,1,9
234,1.22684,9.064,1,9
235,1.23593,9.095,1,9
236,1.24508,9.146,1,9
237,1.25427,9.194,1,9
238,1.2635,9.224,1,9
239,1.27277,9.271,1,9
240,1.28204,9.276,1,9
241,1.29135,9.31,1,9
242,1.30072,9.366,1,9
243,1.31011,9.414,1,9
244,1.329,9.479,1,9
245,1.33852,9.522,1,9
246,1.34806,9.535,1,9
247,1.35764,9.578,1,9
248,1.36721,9.578,1,9
249,1.37684,9.625,1,9
250,1.38652,9.681,1,9
251,1.39622,9.703,1,9
252,1.40598,9.763,1,9
253,1.41576,9.776,1,9
254,1.4256,9.841,1,9
255,1.4355,9.893,1,9
256,1.44541,9.919,1,9
257,1.45536,9.945,1,9
258,1.46534,9.983,1,9
259,1.47534,9.996,1,9
260,1.48536,10.022,1,9
261,1.49543,10.065,1,9
262,1.50553,10.1,1,9
263,1.51566,10.13,1,9
264,1.52584,10.186,1,9
265,1.53605,10.212,1,9
266,1.54634,10.29,1,9
267,1.55664,10.298,1,9
268,1.56701,10.367,1,9
269,1.57738,10.367,1,9
270,1.58776,10.38,1,9
271,1.59822,10.458,1,9
272,1.6087,10.488,1,9
273,1.61927,10.566,1,9
274,1.62984,10.57,1,9
275,1.64046,10.618,1,9
276,1.66174,10.652,1,9
277,1.66174,10.596,1,9
278,1.68304,10.704,1,9
279,1.68304,10.704,1,9
280,1.69382,10.781,1,9
281,1.7046,10.781,1,9
282,1.71545,10.872,1,9
283,1.73721,10.889,1,9
284,1.74817,10.954,1,9
285,1.75911,10.945,1,9
286,1.77013,11.019,1,9
287,1.78113,10.997,1,9
288,1.79222,11.096,1,9
289,1.80339,11.17,1,9
290,1.81455,11.153,1,9
291,1.82577,11.226,1,9
292,1.83702,11.247,1,9
293,1.84829,11.304,1,9
294,1.8596,11.304,1,9
295,1.88228,11.373,1,9
296,1.88228,11.394,1,9
297,1.90509,11.411,1,9
298,1.91653,11.446,1,9
299,1.92801,11.48,1,9
300,1.93952,11.506,1,9
301,1.95107,11.554,1,9
302,1.96264,11.562,1,9
303,1.97427,11.631,1,9
304,1.98594,11.675,1,9
305,1.99769,11.744,1,9
306,2.00946,11.778,1,9
307,2.02126,11.791,1,9
308,2.03309,11.834,1,9
309,2.04493,11.843,1,9
310,2.0568,11.864,1,9
311,2.06869,11.89,1,9
312,2.08062,11.938,1,9
313,2.0926,11.977,1,9
314,2.10465,12.05,1,9
315,2.11673,12.076,1,9
316,2.1288,12.071,1,9
317,2.14093,12.136,1,9
318,2.15311,12.175,1,9
319,2.16533,12.222,1,9
320,2.1776,12.266,1,9
321,2.18992,12.322,1,9
322,2.20228,12.356,1,9
323,2.21462,12.348,1,9
324,2.22701,12.386,1,9
325,2.2394,12.391,1,9
326,2.25185,12.451,1,9
327,2.26431,12.464,1,9
328,2.28938,12.546,1,9
329,2.30198,12.594,1,9
330,2.3146,12.624,1,9
331,2.32725,12.654,1,9
332,2.33993,12.68,1,9
333,2.35265,12.719,1,9
334,2.36543,12.775,1,9
335,2.37825,12.822,1,9
336,2.39111,12.865,1,9
337,2.40401,12.9,1,9
338,2.41692,12.908,1,9
339,2.42984,12.921,1,9
340,2.44281,12.965,1,9
341,2.45581,12.999,1,9
342,2.46886,13.051,1,9
343,2.48192,13.064,1,9
344,2.49501,13.09,1,9
345,2.5081,13.094,1,9
346,2.52126,13.154,1,9
347,2.53447,13.21,1,9
348,2.5477,13.228,1,9
349,2.56102,13.323,1,9
350,2.57438,13.357,1,9
351,2.58775,13.374,1,9
352,2.60117,13.418,1,9
353,2.61458,13.409,1,9
354,2.62801,13.43,1,9
355,2.64148,13.474,1,9
356,2.65502,13.534,1,9
357,2.66857,13.556,1,9
358,2.68218,13.612,1,9
359,2.6958,13.612,1,9
360,2.70947,13.676,1,9
361,2.72319,13.715,1,9
362,2.73689,13.698,1,9
363,2.75059,13.707,1,9
364,2.76431,13.715,1,9
365,2.77805,13.741,1,9
366,2.79175,13.707,1,9
367,2.80542,13.694,1,9
368,2.81911,13.668,1,9
369,2.84648,13.702,1,9
370,2.86018,13.702,1,9
371,2.87387,13.685,1,9
372,2.88753,13.659,1,9
373,2.90123,13.702,1,9
374,2.91491,13.676,1,9
375,2.92858,13.676,1,9
376,2.94226,13.676,1,9
377,2.95593,13.672,1,9
378,2.96958,13.646,1,9
379,2.98322,13.633,1,9
380,3.01048,13.625,1,9
381,3.01048,13.638,1,9
382,3.02412,13.638,1,9
383,3.03778,13.659,1,9
384,3.05142,13.642,1,9
385,3.06504,13.616,1,9
386,3.0787,13.668,1,9
387,3.09229,13.586,1,9
388,3.10596,13.616,1,9
389,3.13322,13.642,1,9
390,3.14687,13.651,1,9
391,3.16045,13.581,1,9
392,3.17402,13.569,1,9
393,3.18759,13.573,1,9
394,3.20117,13.581,1,9
395,3.21475,13.577,1,9
396,3.22835,13.594,1,9
397,3.24197,13.625,1,9
398,3.25557,13.599,1,9
399,3.26918,13.612,1,9
400,3.28276,13.577,1,9
401,3.29635,13.59,1,9
402,3.30992,13.569,1,9
403,3.32348,13.56,1,9
404,3.35058,13.521,1,9
405,3.36416,13.577,1,9
406,3.37773,13.573,1,9
407,3.39136,13.629,1,9
408,3.40498,13.625,1,9
409,3.41857,13.59,1,9
410,3.43215,13.573,1,9
411,3.44574,13.59,1,9
412,3.45935,13.612,1,9
413,3.47293,13.577,1,9
414,3.48648,13.56,1,9
415,3.50004,13.551,1,9
416,3.51358,13.547,1,9
417,3.52715,13.569,1,9
418,3.54067,13.521,1,9
419,3.5542,13.525,1,9
420,3.56772,13.521,1,9
421,3.58123,13.508,1,9
422,3.59475,13.525,1,9
423,3.60824,13.487,1,9
424,3.62174,13.504,1,9
425,3.63523,13.482,1,9
426,3.64875,13.525,1,9
427,3.66227,13.517,1,9
428,3.6758,13.534,1,9
429,3.68934,13.538,1,9
430,3.70284,13.5,1,9
431,3.71637,13.53,1,9
432,3.72988,13.512,1,9
433,3.74339,13.512,1,9
434,3.77036,13.491,1,9
435,3.78386,13.5,1,9
436,3.78386,13.508,1,9
437,3.79737,13.564,1,9
438,3.81093,13.564,1,9
439,3.83794,13.521,1,9
440,3.85146,13.521,1,9
441,3.86498,13.512,1,9
442,3.8785,13.525,1,9
443,3.89199,13.487,1,9
444,3.90548,13.495,1,9
445,3.91897,13.487,1,9
446,3.93248,13.508,1,9
447,3.94597,13.495,1,9
448,3.95947,13.495,1,9
449,3.9729,13.435,1,9
450,3.98639,13.487,1,9
451,3.9999,13.512,1,9
452,4.0134,13.504,1,9
453,4.02694,13.53,1,9
454,4.04045,13.517,1,9
455,4.05396,13.504,1,9
456,4.06747,13.517,1,9
457,4.08093,13.456,1,9
458,4.09446,13.53,1,9
459,4.10794,13.478,1,9
460,4.12143,13.491,1,9
461,4.13492,13.491,1,9
462,4.14839,13.474,1,9
463,4.1619,13.512,1,9
464,4.17543,13.53,1,9
465,4.18891,13.474,1,9
466,4.20241,13.504,1,9
467,4.21592,13.508,1,9
468,4.22942,13.5,1,9
469,4.2429,13.482,1,9
470,4.25644,13.534,1,9
471,4.26994,13.504,1,9
472,4.28344,13.5,1,9
473,4.29693,13.487,1,9
474,4.3104,13.469,1,9
475,4.32387,13.478,1,9
476,4.33736,13.482,1,9
477,4.35086,13.508,1,9
478,4.36437,13.543,1,9
479,4.37791,13.504,1,9
480,4.40491,13.495,1,9
481,4.41843,13.521,1,9
482,4.4319,13.465,1,9
483,4.44543,13.53,1,9
484,4.45891,13.487,1,9
485,4.47239,13.482,1,9
486,4.48587,13.478,1,9
487,4.49935,13.478,1,9
488,4.51283,13.482,1,9
489,4.52631,13.482,1,9
490,4.53983,13.512,1,9
491,4.55332,13.495,1,9
492,4.56683,13.508,1,9
493,4.58034,13.512,1,9
494,4.59386,13.517,1,9
495,4.60737,13.508,1,9
496,4.62085,13.482,1,9
497,4.63436,13.508,1,9
498,4.64784,13.478,1,9
499,4.66132,13.482,1,9
500,4.67479,13.469,1,9
501,4.68825,13.465,1,9
502,4.70175,13.495,1,9
503,4.71522,13.469,1,9
504,4.72869,13.469,1,9
505,4.74216,13.474,1,9
506,4.75562,13.456,1,9
507,4.76908,13.465,1,9
508,4.78257,13.474,1,9
509,4.79604,13.491,1,9
510,4.82304,13.508,1,9
511,4.83654,13.504,1,9
512,4.85004,13.5,1,9
513,4.86355,13.504,1,9
514,4.87704,13.495,1,9
515,4.89052,13.474,1,9
516,4.90404,13.525,1,9
517,4.91757,13.534,1,9
518,4.9311,13.53,1,9
519,4.94465,13.543,1,9
520,4.95816,13.508,1,9
521,4.97167,13.517,1,9
522,4.9852,13.525,1,9
523,4.9987,13.5,1,9
524,5.01222,13.521,1,9
525,5.02572,13.5,1,9
526,5.03921,13.495,1,9
527,5.0527,13.487,1,9
528,5.06618,13.478,1,9
529,5.07967,13.491,1,9
530,5.09315,13.521,1,9
