cnt,pos,speed,Dir,Force,
1,3.21944,2.718,-1,5
2,3.22215,2.714,-1,5
3,3.22484,2.688,-1,5
4,3.22752,2.679,-1,5
5,3.23023,2.709,-1,5
6,3.23290,2.671,-1,5
7,3.23557,2.671,-1,5
8,3.23825,2.684,-1,5
9,3.24094,2.684,-1,5
10,3.24358,2.649,-1,5
11,3.24624,2.658,-1,5
12,3.24888,2.636,-1,5
13,3.25152,2.645,-1,5
14,3.25418,2.658,-1,5
15,3.25681,2.632,-1,5
16,3.25944,2.627,-1,5
17,3.26204,2.597,-1,5
18,3.26467,2.636,-1,5
19,3.26728,2.610,-1,5
20,3.26988,2.597,-1,5
21,3.27248,2.597,-1,5
22,3.27507,2.589,-1,5
23,3.27766,2.593,-1,5
24,3.28024,2.580,-1,5
25,3.28284,2.602,-1,5
26,3.28541,2.571,-1,5
27,3.28800,2.584,-1,5
28,3.29059,2.593,-1,5
29,3.29315,2.563,-1,5
30,3.29572,2.567,-1,5
31,3.29829,2.567,-1,5
32,3.30084,2.550,-1,5
33,3.30342,2.589,-1,5
34,3.30597,2.545,-1,5
35,3.30851,2.541,-1,5
36,3.31107,2.558,-1,5
37,3.31364,2.567,-1,5
38,3.31619,2.554,-1,5
39,3.31873,2.541,-1,5
40,3.32127,2.541,-1,5
41,3.32381,2.537,-1,5
42,3.32634,2.533,-1,5
43,3.32889,2.550,-1,5
44,3.33144,2.545,-1,5
45,3.33397,2.533,-1,5
46,3.33649,2.520,-1,5
47,3.33900,2.515,-1,5
48,3.34152,2.520,-1,5
49,3.34404,2.515,-1,5
50,3.34653,2.494,-1,5
51,3.34905,2.515,-1,5
52,3.35155,2.502,-1,5
53,3.35407,2.520,-1,5
54,3.35657,2.502,-1,5
55,3.35907,2.502,-1,5
56,3.36157,2.498,-1,5
57,3.36405,2.476,-1,5
58,3.36653,2.481,-1,5
59,3.36905,2.520,-1,5
60,3.37153,2.476,-1,5
61,3.37399,2.463,-1,5
62,3.37647,2.485,-1,5
63,3.37897,2.494,-1,5
64,3.38145,2.481,-1,5
65,3.38392,2.468,-1,5
66,3.38637,2.451,-1,5
67,3.38883,2.459,-1,5
68,3.39130,2.476,-1,5
69,3.39375,2.451,-1,5
70,3.39622,2.463,-1,5
71,3.39867,2.455,-1,5
72,3.40114,2.468,-1,5
73,3.40358,2.438,-1,5
74,3.40602,2.446,-1,5
75,3.40846,2.438,-1,5
76,3.41092,2.455,-1,5
77,3.41334,2.420,-1,5
78,3.41577,2.438,-1,5
79,3.41820,2.425,-1,5
80,3.42064,2.446,-1,5
81,3.42307,2.429,-1,5
82,3.42550,2.425,-1,5
83,3.42792,2.420,-1,5
84,3.43033,2.416,-1,5
85,3.43273,2.394,-1,5
86,3.43515,2.420,-1,5
87,3.43754,2.390,-1,5
88,3.43992,2.382,-1,5
89,3.44230,2.377,-1,5
90,3.44469,2.390,-1,5
91,3.44707,2.382,-1,5
92,3.44946,2.394,-1,5
93,3.45183,2.364,-1,5
94,3.45418,2.356,-1,5
95,3.45652,2.338,-1,5
96,3.45888,2.356,-1,5
97,3.46125,2.369,-1,5
98,3.46358,2.334,-1,5
99,3.46591,2.334,-1,5
100,3.46823,2.317,-1,5
101,3.47055,2.321,-1,5
102,3.47288,2.325,-1,5
103,3.47521,2.330,-1,5
104,3.47752,2.317,-1,5
105,3.47982,2.300,-1,5
106,3.48211,2.287,-1,5
107,3.48439,2.278,-1,5
108,3.48669,2.304,-1,5
109,3.48896,2.269,-1,5
110,3.49122,2.256,-1,5
111,3.49349,2.274,-1,5
112,3.49578,2.287,-1,5
113,3.49805,2.274,-1,5
114,3.50031,2.256,-1,5
115,3.50255,2.239,-1,5
116,3.50480,2.256,-1,5
117,3.50704,2.239,-1,5
118,3.50928,2.239,-1,5
119,3.51150,2.222,-1,5
120,3.51374,2.235,-1,5
121,3.51594,2.200,-1,5
122,3.51816,2.218,-1,5
123,3.52038,2.222,-1,5
124,3.52257,2.192,-1,5
125,3.52478,2.213,-1,5
126,3.52698,2.196,-1,5
127,3.52917,2.187,-1,5
128,3.53134,2.170,-1,5
129,3.53351,2.174,-1,5
130,3.53569,2.179,-1,5
131,3.53784,2.153,-1,5
132,3.54001,2.166,-1,5
133,3.54217,2.157,-1,5
134,3.54430,2.131,-1,5
135,3.54644,2.140,-1,5
136,3.54857,2.136,-1,5
137,3.55069,2.118,-1,5
138,3.55280,2.114,-1,5
139,3.55492,2.118,-1,5
140,3.55703,2.105,-1,5
141,3.55912,2.092,-1,5
142,3.56123,2.114,-1,5
143,3.56331,2.080,-1,5
144,3.56539,2.080,-1,5
145,3.56746,2.071,-1,5
146,3.56955,2.084,-1,5
147,3.57159,2.041,-1,5
148,3.57366,2.067,-1,5
149,3.57569,2.032,-1,5
150,3.57773,2.045,-1,5
151,3.57974,2.010,-1,5
152,3.58178,2.036,-1,5
153,3.58380,2.019,-1,5
154,3.58582,2.019,-1,5
155,3.58783,2.010,-1,5
156,3.58981,1.985,-1,5
157,3.59181,2.002,-1,5
158,3.59381,1.998,-1,5
159,3.59581,1.993,-1,5
160,3.59778,1.976,-1,5
161,3.59977,1.985,-1,5
162,3.60173,1.967,-1,5
163,3.60368,1.950,-1,5
164,3.60564,1.959,-1,5
165,3.60759,1.950,-1,5
166,3.60954,1.950,-1,5
167,3.61149,1.946,-1,5
168,3.61343,1.946,-1,5
169,3.61536,1.929,-1,5
170,3.61728,1.916,-1,5
171,3.61920,1.920,-1,5
172,3.62110,1.907,-1,5
173,3.62302,1.920,-1,5
174,3.62493,1.903,-1,5
175,3.62683,1.898,-1,5
176,3.62871,1.881,-1,5
177,3.63059,1.885,-1,5
178,3.63249,1.894,-1,5
179,3.63435,1.864,-1,5
180,3.63623,1.885,-1,5
181,3.63811,1.877,-1,5
182,3.63997,1.855,-1,5
183,3.64183,1.859,-1,5
184,3.64369,1.859,-1,5
185,3.64553,1.842,-1,5
186,3.64737,1.842,-1,5
187,3.64919,1.821,-1,5
188,3.65103,1.838,-1,5
189,3.65284,1.816,-1,5
190,3.65467,1.825,-1,5
191,3.65648,1.808,-1,5
192,3.65829,1.816,-1,5
193,3.66010,1.808,-1,5
194,3.66190,1.799,-1,5
195,3.66369,1.786,-1,5
196,3.66547,1.782,-1,5
197,3.66726,1.790,-1,5
198,3.66902,1.765,-1,5
199,3.67078,1.760,-1,5
200,3.67255,1.765,-1,5
201,3.67431,1.765,-1,5
202,3.67606,1.752,-1,5
203,3.67782,1.760,-1,5
204,3.67956,1.734,-1,5
205,3.68129,1.730,-1,5
206,3.68302,1.730,-1,5
207,3.68475,1.730,-1,5
208,3.68648,1.726,-1,5
209,3.68820,1.726,-1,5
210,3.68991,1.708,-1,5
211,3.69161,1.700,-1,5
212,3.69332,1.713,-1,5
213,3.69501,1.691,-1,5
214,3.69669,1.678,-1,5
215,3.69837,1.678,-1,5
216,3.70006,1.687,-1,5
217,3.70173,1.670,-1,5
218,3.70340,1.674,-1,5
219,3.70507,1.665,-1,5
220,3.70673,1.665,-1,5
221,3.70839,1.661,-1,5
222,3.71004,1.644,-1,5
223,3.71167,1.635,-1,5
224,3.71333,1.657,-1,5
225,3.71494,1.614,-1,5
226,3.71656,1.622,-1,5
227,3.71819,1.622,-1,5
228,3.71980,1.614,-1,5
229,3.72142,1.618,-1,5
230,3.72301,1.592,-1,5
231,3.72462,1.609,-1,5
232,3.72621,1.588,-1,5
233,3.72779,1.588,-1,5
234,3.72938,1.588,-1,5
235,3.73095,1.570,-1,5
236,3.73255,1.601,-1,5
237,3.73568,1.570,-1,5
238,3.73723,1.545,-1,5
239,3.73877,1.540,-1,5
240,3.74032,1.553,-1,5
241,3.74186,1.540,-1,5
242,3.74339,1.527,-1,5
243,3.74492,1.532,-1,5
244,3.74646,1.536,-1,5
245,3.74799,1.536,-1,5
246,3.74949,1.497,-1,5
247,3.75099,1.497,-1,5
248,3.75249,1.506,-1,5
249,3.75400,1.510,-1,5
250,3.75547,1.467,-1,5
251,3.75698,1.510,-1,5
252,3.75846,1.480,-1,5
253,3.75992,1.458,-1,5
254,3.76139,1.475,-1,5
255,3.76285,1.454,-1,5
256,3.76429,1.441,-1,5
257,3.76573,1.445,-1,5
258,3.76717,1.441,-1,5
259,3.76860,1.428,-1,5
260,3.77002,1.419,-1,5
261,3.77143,1.406,-1,5
262,3.77284,1.415,-1,5
263,3.77426,1.415,-1,5
264,3.77564,1.385,-1,5
265,3.77705,1.402,-1,5
266,3.77842,1.376,-1,5
267,3.77980,1.376,-1,5
268,3.78117,1.368,-1,5
269,3.78251,1.346,-1,5
270,3.78385,1.337,-1,5
271,3.78519,1.342,-1,5
272,3.78651,1.316,-1,5
273,3.78784,1.329,-1,5
274,3.78913,1.299,-1,5
275,3.79043,1.299,-1,5
276,3.79172,1.290,-1,5
277,3.79298,1.260,-1,5
278,3.79426,1.277,-1,5
279,3.79553,1.268,-1,5
280,3.79677,1.238,-1,5
281,3.79800,1.234,-1,5
282,3.79921,1.212,-1,5
283,3.80042,1.212,-1,5
284,3.80163,1.208,-1,5
285,3.80283,1.195,-1,5
286,3.80401,1.186,-1,5
287,3.80517,1.156,-1,5
288,3.80633,1.161,-1,5
289,3.80747,1.135,-1,5
290,3.80860,1.139,-1,5
291,3.80972,1.117,-1,5
292,3.81082,1.096,-1,5
293,3.81193,1.109,-1,5
294,3.81299,1.061,-1,5
295,3.81406,1.070,-1,5
296,3.81510,1.044,-1,5
297,3.81616,1.057,-1,5
298,3.81718,1.018,-1,5
299,3.81820,1.027,-1,5
300,3.81920,0.997,-1,5
301,3.82020,1.001,-1,5
302,3.82117,0.971,-1,5
303,3.82215,0.975,-1,5
304,3.82308,0.936,-1,5
305,3.82404,0.953,-1,5
306,3.82495,0.915,-1,5
307,3.82587,0.915,-1,5
308,3.82673,0.867,-1,5
309,3.82761,0.880,-1,5
310,3.82850,0.884,-1,5
311,3.82934,0.837,-1,5
312,3.83019,0.859,-1,5
313,3.83100,0.811,-1,5
314,3.83181,0.802,-1,5
315,3.83262,0.815,-1,5
316,3.83341,0.790,-1,5
317,3.83418,0.772,-1,5
318,3.83494,0.751,-1,5
319,3.83566,0.729,-1,5
320,3.83640,0.733,-1,5
321,3.83712,0.725,-1,5
322,3.83782,0.695,-1,5
323,3.83849,0.677,-1,5
324,3.83917,0.677,-1,5
325,3.83983,0.656,-1,5
326,3.84047,0.639,-1,5
327,3.84109,0.626,-1,5
328,3.84171,0.617,-1,5
329,3.84230,0.595,-1,5
330,3.84289,0.587,-1,5
331,3.84346,0.569,-1,5
332,3.84403,0.569,-1,5
333,3.84457,0.544,-1,5
334,3.84510,0.522,-1,5
335,3.84560,0.509,-1,5
336,3.84612,0.513,-1,5
337,3.84661,0.496,-1,5
338,3.84708,0.462,-1,5
339,3.84752,0.440,-1,5
340,3.84795,0.436,-1,5
341,3.84837,0.418,-1,5
342,3.84879,0.423,-1,5
343,3.84919,0.397,-1,5
344,3.84957,0.375,-1,5
345,3.84992,0.358,-1,5
346,3.85026,0.332,-1,5
347,3.85058,0.328,-1,5
348,3.85089,0.306,-1,5
349,3.85120,0.311,-1,5
350,3.85148,0.280,-1,5
351,3.85175,0.267,-1,5
352,3.85199,0.242,-1,5
353,3.85224,0.250,-1,5
354,3.85246,0.216,-1,5
355,3.85265,0.194,-1,5
356,3.85284,0.186,-1,5
357,3.85300,0.168,-1,5
358,3.85315,0.151,-1,5
359,3.85329,0.138,-1,5
360,3.85341,0.121,-1,5
361,3.85353,0.116,-1,5
362,3.85362,0.091,-1,5
363,3.85369,0.073,-1,5
364,3.85375,0.060,-1,5
365,3.85379,0.039,-1,5
366,3.85381,0.017,-1,5
367,3.85382,0.013,-1,5
368,3.85381,-0.013,-1,5
369,3.85378,-0.030,-1,5
370,3.85374,-0.043,-1,5
371,3.85368,-0.056,-1,5
372,3.85361,-0.069,-1,5
373,3.85351,-0.099,-1,5
374,3.85340,-0.112,-1,5
375,3.85328,-0.116,-1,5
376,3.85315,-0.134,-1,5
377,3.85300,-0.151,-1,5
378,3.85284,-0.160,-1,5
379,3.85266,-0.181,-1,5
380,3.85247,-0.190,-1,5
381,3.85226,-0.211,-1,5
382,3.85202,-0.233,-1,5
383,3.85178,-0.242,-1,5
384,3.85153,-0.255,-1,5
385,3.85126,-0.267,-1,5
386,3.85096,-0.298,-1,5
387,3.85066,-0.302,-1,5
388,3.85035,-0.315,-1,5
389,3.85001,-0.332,-1,5
390,3.84967,-0.345,-1,5
391,3.84931,-0.358,-1,5
392,3.84892,-0.388,-1,5
393,3.84852,-0.406,-1,5
394,3.84810,-0.418,-1,5
395,3.84768,-0.418,-1,5
396,3.84724,-0.440,-1,5
397,3.84677,-0.466,-1,5
398,3.84629,-0.483,-1,5
399,3.84578,-0.509,-1,5
400,3.84528,-0.505,-1,5
401,3.84475,-0.531,-1,5
402,3.84421,-0.539,-1,5
403,3.84364,-0.569,-1,5
404,3.84306,-0.574,-1,5
405,3.84247,-0.595,-1,5
406,3.84186,-0.608,-1,5
407,3.84123,-0.626,-1,5
408,3.84059,-0.647,-1,5
409,3.83993,-0.660,-1,5
410,3.83926,-0.669,-1,5
411,3.83855,-0.712,-1,5
412,3.83785,-0.695,-1,5
413,3.83712,-0.733,-1,5
414,3.83637,-0.746,-1,5
415,3.83560,-0.768,-1,5
416,3.83483,-0.772,-1,5
417,3.83402,-0.807,-1,5
418,3.83322,-0.807,-1,5
419,3.83239,-0.833,-1,5
420,3.83151,-0.871,-1,5
421,3.83065,-0.863,-1,5
422,3.82977,-0.884,-1,5
423,3.82887,-0.897,-1,5
424,3.82795,-0.919,-1,5
425,3.82700,-0.953,-1,5
426,3.82606,-0.941,-1,5
427,3.82509,-0.971,-1,5
428,3.82409,-0.992,-1,5
429,3.82308,-1.018,-1,5
430,3.82205,-1.027,-1,5
431,3.82097,-1.074,-1,5
432,3.81992,-1.053,-1,5
433,3.81882,-1.104,-1,5
434,3.81773,-1.092,-1,5
435,3.81663,-1.100,-1,5
436,3.81554,-1.083,-1,5
437,3.81446,-1.087,-1,5
438,3.81332,-1.135,-1,5
439,3.81222,-1.096,-1,5
440,3.81109,-1.135,-1,5
441,3.80998,-1.109,-1,5
442,3.80886,-1.126,-1,5
443,3.80772,-1.130,-1,5
444,3.80661,-1.117,-1,5
445,3.80548,-1.126,-1,5
446,3.80438,-1.104,-1,5
447,3.80325,-1.126,-1,5
448,3.80214,-1.109,-1,5
449,3.80103,-1.113,-1,5
450,3.79994,-1.087,-1,5
451,3.79885,-1.092,-1,5
452,3.79776,-1.087,-1,5
453,3.79667,-1.092,-1,5
454,3.79557,-1.100,-1,5
455,3.79446,-1.109,-1,5
456,3.79338,-1.087,-1,5
457,3.79229,-1.087,-1,5
458,3.79121,-1.079,-1,5
459,3.79015,-1.061,-1,5
460,3.78908,-1.070,-1,5
461,3.78802,-1.061,-1,5
462,3.78694,-1.079,-1,5
463,3.78585,-1.087,-1,5
464,3.78478,-1.070,-1,5
465,3.78371,-1.074,-1,5
466,3.78266,-1.048,-1,5
467,3.78159,-1.066,-1,5
468,3.78056,-1.035,-1,5
469,3.77949,-1.070,-1,5
470,3.77843,-1.057,-1,5
471,3.77737,-1.057,-1,5
472,3.77630,-1.074,-1,5
473,3.77526,-1.035,-1,5
474,3.77423,-1.035,-1,5
475,3.77318,-1.048,-1,5
476,3.77216,-1.022,-1,5
477,3.77111,-1.044,-1,5
478,3.77007,-1.040,-1,5
479,3.76903,-1.040,-1,5
480,3.76799,-1.048,-1,5
481,3.76695,-1.031,-1,5
482,3.76591,-1.044,-1,5
483,3.76384,-1.044,-1,5
484,3.76384,-1.014,-1,5
485,3.76283,-1.014,-1,5
486,3.76179,-1.040,-1,5
487,3.76077,-1.018,-1,5
488,3.75972,-1.048,-1,5
489,3.75871,-1.018,-1,5
490,3.75767,-1.031,-1,5
491,3.75667,-1.005,-1,5
492,3.75562,-1.053,-1,5
493,3.75461,-1.005,-1,5
494,3.75357,-1.040,-1,5
495,3.75255,-1.018,-1,5
496,3.75151,-1.044,-1,5
497,3.75050,-1.010,-1,5
498,3.74946,-1.044,-1,5
499,3.74842,-1.040,-1,5
500,3.74735,-1.070,-1,5
501,3.74631,-1.035,-1,5
502,3.74527,-1.044,-1,5
503,3.74423,-1.035,-1,5
504,3.74318,-1.048,-1,5
505,3.74217,-1.010,-1,5
506,3.74115,-1.027,-1,5
507,3.74014,-1.010,-1,5
508,3.73911,-1.031,-1,5
509,3.73812,-0.984,-1,5
510,3.73712,-1.001,-1,5
511,3.73612,-0.997,-1,5
512,3.73511,-1.010,-1,5
513,3.73412,-0.992,-1,5
514,3.73313,-0.988,-1,5
515,3.73214,-0.997,-1,5
516,3.73115,-0.988,-1,5
517,3.73017,-0.979,-1,5
518,3.72917,-1.001,-1,5
519,3.72818,-0.988,-1,5
520,3.72718,-1.001,-1,5
521,3.72620,-0.979,-1,5
522,3.72519,-1.014,-1,5
523,3.72421,-0.979,-1,5
524,3.72321,-0.997,-1,5
525,3.72223,-0.984,-1,5
526,3.72122,-1.010,-1,5
527,3.72023,-0.992,-1,5
528,3.71921,-1.014,-1,5
529,3.71823,-0.984,-1,5
530,3.71722,-1.005,-1,5
531,3.71622,-1.005,-1,5
532,3.71523,-0.984,-1,5
533,3.71424,-0.997,-1,5
534,3.71325,-0.988,-1,5
535,3.71223,-1.022,-1,5
536,3.71124,-0.988,-1,5
537,3.71024,-1.001,-1,5
538,3.70924,-1.001,-1,5
539,3.70825,-0.992,-1,5
540,3.70724,-1.001,-1,5
541,3.70625,-0.992,-1,5
542,3.70525,-1.001,-1,5
543,3.70425,-1.001,-1,5
544,3.70326,-0.992,-1,5
545,3.70226,-0.997,-1,5
546,3.70126,-1.005,-1,5
547,3.70025,-1.001,-1,5
548,3.69925,-1.001,-1,5
549,3.69825,-1.001,-1,5
550,3.69727,-0.984,-1,5
551,3.69626,-1.014,-1,5
552,3.69526,-0.992,-1,5
553,3.69427,-0.997,-1,5
554,3.69326,-1.005,-1,5
555,3.69226,-1.001,-1,5
556,3.69126,-1.005,-1,5
557,3.69027,-0.988,-1,5
558,3.68926,-1.010,-1,5
559,3.68828,-0.979,-1,5
560,3.68726,-1.014,-1,5
561,3.68628,-0.984,-1,5
562,3.68526,-1.018,-1,5
563,3.68427,-0.988,-1,5
564,3.68327,-1.010,-1,5
565,3.68229,-0.979,-1,5
566,3.68127,-1.014,-1,5
567,3.68028,-0.992,-1,5
568,3.67927,-1.014,-1,5
569,3.67828,-0.988,-1,5
570,3.67726,-1.018,-1,5
571,3.67527,-1.010,-1,5
572,3.67429,-0.979,-1,5
573,3.67429,-1.010,-1,5
574,3.67328,-1.010,-1,5
575,3.67229,-0.992,-1,5
576,3.67128,-1.010,-1,5
577,3.67030,-0.979,-1,5
578,3.66927,-1.022,-1,5
579,3.66830,-0.971,-1,5
580,3.66729,-1.010,-1,5
581,3.66630,-0.992,-1,5
582,3.66528,-1.022,-1,5
583,3.66428,-0.997,-1,5
584,3.66328,-1.005,-1,5
585,3.66229,-0.984,-1,5
586,3.66129,-1.005,-1,5
587,3.66031,-0.979,-1,5
588,3.65930,-1.010,-1,5
589,3.65831,-0.988,-1,5
590,3.65729,-1.022,-1,5
591,3.65630,-0.988,-1,5
592,3.65530,-0.997,-1,5
593,3.65432,-0.988,-1,5
594,3.65330,-1.014,-1,5
595,3.65231,-0.988,-1,5
596,3.65130,-1.014,-1,5
597,3.65032,-0.979,-1,5
598,3.64932,-1.005,-1,5
599,3.64832,-0.992,-1,5
600,3.64733,-0.992,-1,5
601,3.64632,-1.010,-1,5
602,3.64533,-0.988,-1,5
603,3.64433,-1.005,-1,5
604,3.64334,-0.988,-1,5
605,3.64234,-1.005,-1,5
606,3.64134,-0.992,-1,5
607,3.64036,-0.984,-1,5
608,3.63934,-1.018,-1,5
609,3.63835,-0.992,-1,5
610,3.63735,-1.001,-1,5
611,3.63636,-0.992,-1,5
612,3.63536,-0.992,-1,5
613,3.63435,-0.997,-1,5
614,3.63335,-0.966,-1,5
615,3.63239,-0.966,-1,5
616,3.63138,-1.010,-1,5
617,3.63038,-0.988,-1,5
618,3.62837,-1.022,-1,5
619,3.62738,-0.988,-1,5
620,3.62639,-0.992,-1,5
621,3.62537,-1.018,-1,5
622,3.62438,-0.992,-1,5
623,3.62339,-0.992,-1,5
624,3.62241,-0.975,-1,5
625,3.62138,-1.027,-1,5
626,3.62039,-0.997,-1,5
627,3.61939,-1.001,-1,5
628,3.61841,-0.979,-1,5
629,3.61741,-0.997,-1,5
630,3.61641,-0.997,-1,5
631,3.61542,-0.997,-1,5
632,3.61442,-1.001,-1,5
633,3.61343,-0.984,-1,5
634,3.61242,-1.010,-1,5
635,3.61142,-1.001,-1,5
636,3.61043,-0.997,-1,5
637,3.60943,-1.001,-1,5
638,3.60842,-1.005,-1,5
639,3.60742,-1.001,-1,5
640,3.60641,-1.005,-1,5
641,3.60541,-1.001,-1,5
642,3.60441,-1.005,-1,5
643,3.60341,-0.997,-1,5
644,3.60241,-1.005,-1,5
645,3.60140,-1.005,-1,5
646,3.60040,-0.997,-1,5
647,3.59938,-1.022,-1,5
648,3.59839,-0.988,-1,5
649,3.59738,-1.014,-1,5
650,3.59639,-0.988,-1,5
651,3.59536,-1.031,-1,5
652,3.59436,-0.997,-1,5
653,3.59336,-1.005,-1,5
654,3.59236,-0.997,-1,5
655,3.59134,-1.018,-1,5
656,3.59035,-0.992,-1,5
657,3.58935,-1.001,-1,5
658,3.58837,-0.984,-1,5
659,3.58734,-1.022,-1,5
660,3.58636,-0.988,-1,5
661,3.58533,-1.027,-1,5
662,3.58435,-0.984,-1,5
663,3.58333,-1.018,-1,5
664,3.58234,-0.988,-1,5
665,3.58133,-1.010,-1,5
666,3.58033,-1.005,-1,5
667,3.57931,-1.014,-1,5
668,3.57833,-0.984,-1,5
669,3.57732,-1.005,-1,5
670,3.57633,-0.992,-1,5
671,3.57531,-1.022,-1,5
672,3.57431,-0.997,-1,5
673,3.57333,-0.984,-1,5
674,3.57231,-1.022,-1,5
675,3.57131,-0.992,-1,5
676,3.57031,-1.001,-1,5
677,3.56932,-0.992,-1,5
678,3.56831,-1.005,-1,5
679,3.56732,-0.997,-1,5
680,3.56632,-0.997,-1,5
681,3.56531,-1.014,-1,5
682,3.56433,-0.975,-1,5
683,3.56332,-1.010,-1,5
684,3.56231,-1.010,-1,5
685,3.56133,-0.988,-1,5
686,3.56032,-1.005,-1,5
687,3.55932,-1.001,-1,5
688,3.55832,-0.997,-1,5
689,3.55734,-0.984,-1,5
690,3.55634,-1.001,-1,5
691,3.55533,-1.010,-1,5
692,3.55434,-0.984,-1,5
693,3.55333,-1.014,-1,5
694,3.55234,-0.992,-1,5
695,3.55135,-0.988,-1,5
696,3.55035,-1.001,-1,5
697,3.54935,-0.997,-1,5
698,3.54835,-1.005,-1,5
699,3.54737,-0.979,-1,5
700,3.54636,-1.010,-1,5
701,3.54538,-0.984,-1,5
702,3.54437,-1.010,-1,5
703,3.54338,-0.984,-1,5
704,3.54238,-1.001,-1,5
705,3.54139,-0.988,-1,5
706,3.54039,-1.005,-1,5
707,3.53939,-0.997,-1,5
708,3.53838,-1.010,-1,5
709,3.53739,-0.992,-1,5
710,3.53639,-1.001,-1,5
711,3.53540,-0.984,-1,5
712,3.53440,-1.010,-1,5
713,3.53340,-0.992,-1,5
714,3.53240,-1.005,-1,5
715,3.53141,-0.992,-1,5
716,3.53040,-1.001,-1,5
717,3.52943,-0.975,-1,5
718,3.52842,-1.005,-1,5
719,3.52743,-0.992,-1,5
720,3.52643,-1.005,-1,5
721,3.52544,-0.988,-1,5
722,3.52443,-1.010,-1,5
723,3.52345,-0.984,-1,5
724,3.52244,-1.010,-1,5
725,3.52145,-0.988,-1,5
726,3.52044,-1.010,-1,5
727,3.51945,-0.984,-1,5
728,3.51845,-1.010,-1,5
729,3.51746,-0.988,-1,5
730,3.51645,-1.005,-1,5
731,3.51547,-0.984,-1,5
732,3.51447,-1.001,-1,5
733,3.51349,-0.979,-1,5
734,3.51247,-1.018,-1,5
735,3.51147,-0.997,-1,5
736,3.51048,-0.997,-1,5
737,3.50948,-0.992,-1,5
738,3.50848,-1.001,-1,5
739,3.50748,-1.005,-1,5
740,3.50647,-1.005,-1,5
741,3.50548,-0.997,-1,5
742,3.50448,-0.992,-1,5
743,3.50347,-1.018,-1,5
744,3.50247,-0.997,-1,5
745,3.50147,-0.997,-1,5
746,3.49948,-1.014,-1,5
747,3.49847,-1.001,-1,5
748,3.49749,-0.988,-1,5
749,3.49648,-1.010,-1,5
750,3.49548,-1.001,-1,5
751,3.49448,-0.992,-1,5
752,3.49345,-1.031,-1,5
753,3.49246,-0.992,-1,5
754,3.49046,-1.014,-1,5
755,3.49046,-0.988,-1,5
756,3.48947,-0.988,-1,5
757,3.48846,-1.014,-1,5
758,3.48747,-0.984,-1,5
759,3.48649,-0.979,-1,5
760,3.48547,-1.022,-1,5
761,3.48446,-1.010,-1,5
762,3.48346,-1.001,-1,5
763,3.48247,-0.988,-1,5
764,3.48146,-1.010,-1,5
765,3.48047,-0.997,-1,5
766,3.47948,-0.984,-1,5
767,3.47846,-1.018,-1,5
768,3.47748,-0.988,-1,5
769,3.47646,-1.018,-1,5
770,3.47546,-0.997,-1,5
771,3.47445,-1.010,-1,5
772,3.47346,-0.997,-1,5
773,3.47245,-1.010,-1,5
774,3.47145,-0.992,-1,5
775,3.47044,-1.014,-1,5
776,3.46946,-0.979,-1,5
777,3.46844,-0.971,-1,5
778,3.46646,-1.010,-1,5
779,3.46646,-1.001,-1,5
780,3.46444,-1.014,-1,5
781,3.46346,-0.984,-1,5
782,3.46244,-1.018,-1,5
783,3.46145,-0.988,-1,5
784,3.46045,-1.005,-1,5
785,3.45946,-0.988,-1,5
786,3.45844,-1.018,-1,5
787,3.45745,-0.992,-1,5
788,3.45644,-1.005,-1,5
789,3.45547,-0.975,-1,5
790,3.45446,-1.014,-1,5
791,3.45348,-0.979,-1,5
792,3.45247,-1.010,-1,5
793,3.45148,-0.984,-1,5
794,3.45047,-1.014,-1,5
795,3.44948,-0.992,-1,5
796,3.44846,-1.014,-1,5
797,3.44747,-0.988,-1,5
798,3.44647,-1.010,-1,5
799,3.44548,-0.988,-1,5
800,3.44447,-1.010,-1,5
801,3.44348,-0.992,-1,5
802,3.44246,-1.014,-1,5
803,3.44148,-0.979,-1,5
804,3.44046,-1.018,-1,5
805,3.43948,-0.979,-1,5
806,3.43848,-1.005,-1,5
807,3.43750,-0.984,-1,5
808,3.43649,-1.005,-1,5
809,3.43550,-0.992,-1,5
810,3.43450,-1.001,-1,5
811,3.43350,-1.001,-1,5
812,3.43250,-0.992,-1,5
813,3.43150,-1.001,-1,5
814,3.43051,-0.992,-1,5
815,3.42949,-1.018,-1,5
816,3.42752,-0.988,-1,5
817,3.42650,-1.018,-1,5
818,3.42552,-0.979,-1,5
819,3.42451,-1.010,-1,5
820,3.42352,-0.988,-1,5
821,3.42252,-0.997,-1,5
822,3.42152,-1.010,-1,5
823,3.42052,-0.992,-1,5
824,3.41953,-0.992,-1,5
825,3.41853,-1.001,-1,5
826,3.41754,-0.992,-1,5
827,3.41655,-0.984,-1,5
828,3.41554,-1.018,-1,5
829,3.41455,-0.984,-1,5
830,3.41355,-1.001,-1,5
831,3.41256,-0.992,-1,5
832,3.41157,-0.992,-1,5
833,3.41057,-1.001,-1,5
834,3.40957,-0.992,-1,5
835,3.40856,-1.014,-1,5
836,3.40758,-0.975,-1,5
837,3.40658,-1.005,-1,5
838,3.40558,-0.997,-1,5
839,3.40458,-1.005,-1,5
840,3.40359,-0.988,-1,5
841,3.40258,-1.010,-1,5
842,3.40159,-0.992,-1,5
843,3.40059,-0.997,-1,5
844,3.39959,-1.001,-1,5
845,3.39860,-0.992,-1,5
846,3.39760,-1.001,-1,5
847,3.39660,-1.001,-1,5
848,3.39559,-1.001,-1,5
849,3.39459,-1.001,-1,5
850,3.39360,-0.997,-1,5
851,3.39259,-1.005,-1,5
852,3.39159,-1.001,-1,5
