cnt,pos,speed,Dir,Force,
1,3.22857,4.120,-1,5
2,3.23272,4.142,-1,5
3,3.23686,4.142,-1,5
4,3.24101,4.150,-1,5
5,3.24516,4.155,-1,5
6,3.24930,4.137,-1,5
7,3.25346,4.163,-1,5
8,3.26179,4.155,-1,5
9,3.26597,4.176,-1,5
10,3.27016,4.189,-1,5
11,3.27433,4.176,-1,5
12,3.27852,4.189,-1,5
13,3.28272,4.198,-1,5
14,3.28693,4.211,-1,5
15,3.29114,4.206,-1,5
16,3.29535,4.211,-1,5
17,3.29956,4.215,-1,5
18,3.30379,4.232,-1,5
19,3.30800,4.206,-1,5
20,3.31225,4.245,-1,5
21,3.31648,4.237,-1,5
22,3.32072,4.232,-1,5
23,3.32496,4.245,-1,5
24,3.32921,4.254,-1,5
25,3.33348,4.267,-1,5
26,3.33773,4.250,-1,5
27,3.34196,4.232,-1,5
28,3.34620,4.241,-1,5
29,3.35045,4.241,-1,5
30,3.35471,4.263,-1,5
31,3.35896,4.250,-1,5
32,3.36744,4.245,-1,5
33,3.36744,4.232,-1,5
34,3.37167,4.224,-1,5
35,3.37590,4.254,-1,5
36,3.38438,4.232,-1,5
37,3.38861,4.224,-1,5
38,3.39283,4.228,-1,5
39,3.39707,4.241,-1,5
40,3.40129,4.219,-1,5
41,3.40553,4.232,-1,5
42,3.40975,4.224,-1,5
43,3.41396,4.211,-1,5
44,3.41816,4.198,-1,5
45,3.42240,4.245,-1,5
46,3.43083,4.224,-1,5
47,3.43501,4.189,-1,5
48,3.43920,4.185,-1,5
49,3.44338,4.181,-1,5
50,3.44758,4.198,-1,5
51,3.45176,4.185,-1,5
52,3.45592,4.159,-1,5
53,3.46008,4.159,-1,5
54,3.46424,4.159,-1,5
55,3.46837,4.133,-1,5
56,3.47253,4.155,-1,5
57,3.47667,4.142,-1,5
58,3.48081,4.137,-1,5
59,3.48494,4.129,-1,5
60,3.48906,4.120,-1,5
61,3.49316,4.103,-1,5
62,3.49730,4.094,-1,5
63,3.50140,4.094,-1,5
64,3.50551,4.107,-1,5
65,3.50960,4.094,-1,5
66,3.51370,4.094,-1,5
67,3.51776,4.064,-1,5
68,3.52186,4.099,-1,5
69,3.52593,4.068,-1,5
70,3.52998,4.055,-1,5
71,3.53403,4.051,-1,5
72,3.53808,4.047,-1,5
73,3.54215,4.073,-1,5
74,3.54618,4.030,-1,5
75,3.55022,4.043,-1,5
76,3.55425,4.025,-1,5
77,3.55823,3.982,-1,5
78,3.56225,4.021,-1,5
79,3.56627,4.021,-1,5
80,3.57027,3.995,-1,5
81,3.57427,3.999,-1,5
82,3.57827,3.999,-1,5
83,3.58224,3.973,-1,5
84,3.58622,3.982,-1,5
85,3.59017,3.943,-1,5
86,3.59415,3.982,-1,5
87,3.59812,3.969,-1,5
88,3.60207,3.952,-1,5
89,3.60602,3.948,-1,5
90,3.60997,3.952,-1,5
91,3.61393,3.965,-1,5
92,3.61785,3.913,-1,5
93,3.62569,3.917,-1,5
94,3.62569,3.930,-1,5
95,3.63352,3.892,-1,5
96,3.63352,3.922,-1,5
97,3.64136,3.926,-1,5
98,3.64526,3.900,-1,5
99,3.64915,3.883,-1,5
100,3.65303,3.883,-1,5
101,3.65690,3.870,-1,5
102,3.66080,3.896,-1,5
103,3.66468,3.887,-1,5
104,3.66854,3.857,-1,5
105,3.67239,3.848,-1,5
106,3.67625,3.861,-1,5
107,3.68011,3.861,-1,5
108,3.68394,3.827,-1,5
109,3.68777,3.835,-1,5
110,3.69162,3.844,-1,5
111,3.69544,3.827,-1,5
112,3.69925,3.810,-1,5
113,3.70307,3.814,-1,5
114,3.70688,3.814,-1,5
115,3.71070,3.814,-1,5
116,3.71448,3.788,-1,5
117,3.71827,3.788,-1,5
118,3.72203,3.753,-1,5
119,3.72578,3.758,-1,5
120,3.72954,3.758,-1,5
121,3.73329,3.753,-1,5
122,3.73704,3.745,-1,5
123,3.74076,3.723,-1,5
124,3.74449,3.728,-1,5
125,3.74820,3.710,-1,5
126,3.75187,3.671,-1,5
127,3.75557,3.697,-1,5
128,3.75926,3.693,-1,5
129,3.76294,3.680,-1,5
130,3.76657,3.633,-1,5
131,3.77022,3.650,-1,5
132,3.77384,3.671,-1,5
133,3.78113,3.615,-1,5
134,3.78474,3.615,-1,5
135,3.78834,3.598,-1,5
136,3.79193,3.590,-1,5
137,3.79550,3.568,-1,5
138,3.79904,3.546,-1,5
139,3.80261,3.568,-1,5
140,3.80616,3.525,-1,5
141,3.80968,3.525,-1,5
142,3.81318,3.495,-1,5
143,3.81669,3.508,-1,5
144,3.82019,3.508,-1,5
145,3.82365,3.456,-1,5
146,3.82710,3.447,-1,5
147,3.83058,3.482,-1,5
148,3.83400,3.421,-1,5
149,3.83743,3.434,-1,5
150,3.84082,3.391,-1,5
151,3.84424,3.413,-1,5
152,3.84764,3.400,-1,5
153,3.85100,3.365,-1,5
154,3.85438,3.374,-1,5
155,3.85773,3.357,-1,5
156,3.86109,3.357,-1,5
157,3.86441,3.318,-1,5
158,3.86774,3.331,-1,5
159,3.87106,3.322,-1,5
160,3.87434,3.279,-1,5
161,3.87765,3.309,-1,5
162,3.88094,3.296,-1,5
163,3.88743,3.236,-1,5
164,3.89068,3.249,-1,5
165,3.89390,3.218,-1,5
166,3.89714,3.240,-1,5
167,3.90035,3.210,-1,5
168,3.90355,3.197,-1,5
169,3.90672,3.171,-1,5
170,3.90989,3.171,-1,5
171,3.91303,3.145,-1,5
172,3.91617,3.132,-1,5
173,3.91931,3.141,-1,5
174,3.92243,3.119,-1,5
175,3.92554,3.115,-1,5
176,3.92861,3.067,-1,5
177,3.93167,3.059,-1,5
178,3.93474,3.076,-1,5
179,3.93775,3.007,-1,5
180,3.94080,3.046,-1,5
181,3.94380,3.007,-1,5
182,3.94682,3.020,-1,5
183,3.94981,2.986,-1,5
184,3.95278,2.973,-1,5
185,3.95571,2.934,-1,5
186,3.95867,2.960,-1,5
187,3.96160,2.925,-1,5
188,3.96453,2.929,-1,5
189,3.96742,2.891,-1,5
190,3.97031,2.895,-1,5
191,3.97319,2.873,-1,5
192,3.97605,2.860,-1,5
193,3.97888,2.835,-1,5
194,3.98452,2.800,-1,5
195,3.98734,2.817,-1,5
196,3.99011,2.774,-1,5
197,3.99288,2.770,-1,5
198,3.99564,2.757,-1,5
199,3.99837,2.727,-1,5
200,4.00107,2.705,-1,5
201,4.00376,2.671,-1,5
202,4.00910,2.675,-1,5
203,4.01174,2.636,-1,5
204,4.01174,2.623,-1,5
205,4.01436,2.623,-1,5
206,4.01699,2.632,-1,5
207,4.01957,2.571,-1,5
208,4.02212,2.554,-1,5
209,4.02469,2.571,-1,5
210,4.02721,2.520,-1,5
211,4.02973,2.515,-1,5
212,4.03222,2.498,-1,5
213,4.03470,2.472,-1,5
214,4.03715,2.455,-1,5
215,4.03959,2.438,-1,5
216,4.04200,2.412,-1,5
217,4.04440,2.403,-1,5
218,4.04679,2.382,-1,5
219,4.04913,2.343,-1,5
220,4.05148,2.351,-1,5
221,4.05378,2.304,-1,5
222,4.05607,2.291,-1,5
223,4.05837,2.295,-1,5
224,4.06066,2.287,-1,5
225,4.06512,2.205,-1,5
226,4.06732,2.200,-1,5
227,4.06952,2.200,-1,5
228,4.07167,2.149,-1,5
229,4.07381,2.149,-1,5
230,4.07592,2.110,-1,5
231,4.07804,2.118,-1,5
232,4.08012,2.080,-1,5
233,4.08423,2.049,-1,5
234,4.08626,2.036,-1,5
235,4.08827,2.010,-1,5
236,4.09026,1.989,-1,5
237,4.09223,1.972,-1,5
238,4.09415,1.920,-1,5
239,4.09608,1.924,-1,5
240,4.09797,1.898,-1,5
241,4.09986,1.890,-1,5
242,4.10173,1.868,-1,5
243,4.10359,1.855,-1,5
244,4.10540,1.816,-1,5
245,4.10721,1.803,-1,5
246,4.10898,1.778,-1,5
247,4.11075,1.760,-1,5
248,4.11418,1.713,-1,5
249,4.11588,1.708,-1,5
250,4.11754,1.657,-1,5
251,4.11919,1.652,-1,5
252,4.12081,1.622,-1,5
253,4.12242,1.605,-1,5
254,4.12401,1.588,-1,5
255,4.12556,1.553,-1,5
256,4.12711,1.549,-1,5
257,4.12863,1.523,-1,5
258,4.13014,1.506,-1,5
259,4.13162,1.480,-1,5
260,4.13306,1.441,-1,5
261,4.13449,1.432,-1,5
262,4.13589,1.398,-1,5
263,4.13728,1.394,-1,5
264,4.13865,1.372,-1,5
265,4.13999,1.337,-1,5
266,4.14131,1.316,-1,5
267,4.14261,1.303,-1,5
268,4.14388,1.268,-1,5
269,4.14512,1.238,-1,5
270,4.14637,1.251,-1,5
271,4.14759,1.221,-1,5
272,4.14876,1.173,-1,5
273,4.14995,1.182,-1,5
274,4.15107,1.126,-1,5
275,4.15221,1.139,-1,5
276,4.15329,1.079,-1,5
277,4.15437,1.079,-1,5
278,4.15540,1.035,-1,5
279,4.15643,1.018,-1,5
280,4.15745,1.018,-1,5
281,4.15844,0.988,-1,5
282,4.15941,0.966,-1,5
283,4.16035,0.945,-1,5
284,4.16127,0.902,-1,5
285,4.16217,0.863,-1,5
286,4.16390,0.867,-1,5
287,4.16473,0.824,-1,5
288,4.16555,0.820,-1,5
289,4.16633,0.781,-1,5
290,4.16709,0.764,-1,5
291,4.16783,0.738,-1,5
292,4.16853,0.703,-1,5
293,4.16924,0.712,-1,5
294,4.16991,0.669,-1,5
295,4.17056,0.651,-1,5
296,4.17121,0.643,-1,5
297,4.17181,0.604,-1,5
298,4.17240,0.587,-1,5
299,4.17296,0.565,-1,5
300,4.17352,0.557,-1,5
301,4.17404,0.518,-1,5
302,4.17453,0.492,-1,5
303,4.17501,0.483,-1,5
304,4.17547,0.462,-1,5
305,4.17590,0.423,-1,5
306,4.17632,0.423,-1,5
307,4.17670,0.384,-1,5
308,4.17708,0.375,-1,5
309,4.17743,0.349,-1,5
310,4.17775,0.319,-1,5
311,4.17806,0.315,-1,5
312,4.17834,0.276,-1,5
313,4.17859,0.255,-1,5
314,4.17883,0.242,-1,5
315,4.17905,0.211,-1,5
316,4.17924,0.198,-1,5
317,4.17941,0.164,-1,5
318,4.17956,0.151,-1,5
319,4.17968,0.121,-1,5
320,4.17978,0.104,-1,5
321,4.17986,0.078,-1,5
322,4.17992,0.056,-1,5
323,4.17997,0.017,-1,5
324,4.17997,-0.004,-1,5
325,4.17994,-0.030,-1,5
326,4.17990,-0.043,-1,5
327,4.17983,-0.069,-1,5
328,4.17974,-0.086,-1,5
329,4.17963,-0.112,-1,5
330,4.17949,-0.138,-1,5
331,4.17934,-0.151,-1,5
332,4.17917,-0.173,-1,5
333,4.17897,-0.194,-1,5
334,4.17852,-0.229,-1,5
335,4.17826,-0.259,-1,5
336,4.17798,-0.280,-1,5
337,4.17769,-0.289,-1,5
338,4.17738,-0.315,-1,5
339,4.17703,-0.349,-1,5
340,4.17666,-0.362,-1,5
341,4.17630,-0.367,-1,5
342,4.17590,-0.401,-1,5
343,4.17549,-0.406,-1,5
344,4.17504,-0.449,-1,5
345,4.17458,-0.462,-1,5
346,4.17411,-0.470,-1,5
347,4.17362,-0.492,-1,5
348,4.17309,-0.531,-1,5
349,4.17255,-0.535,-1,5
350,4.17200,-0.548,-1,5
351,4.17143,-0.578,-1,5
352,4.17082,-0.608,-1,5
353,4.17021,-0.608,-1,5
354,4.16958,-0.626,-1,5
355,4.16825,-0.669,-1,5
356,4.16756,-0.686,-1,5
357,4.16684,-0.716,-1,5
358,4.16612,-0.725,-1,5
359,4.16537,-0.746,-1,5
360,4.16458,-0.790,-1,5
361,4.16380,-0.785,-1,5
362,4.16297,-0.828,-1,5
363,4.16215,-0.850,-1,5
364,4.16130,-0.876,-1,5
365,4.16042,-0.876,-1,5
366,4.15954,-0.884,-1,5
367,4.15862,-0.919,-1,5
368,4.15769,-0.923,-1,5
369,4.15672,-0.971,-1,5
370,4.15577,-0.958,-1,5
371,4.15478,-0.988,-1,5
372,4.15379,-0.988,-1,5
373,4.15275,-1.040,-1,5
374,4.15172,-1.031,-1,5
375,4.15063,-1.087,-1,5
376,4.14956,-1.074,-1,5
377,4.14844,-1.122,-1,5
378,4.14731,-1.122,-1,5
379,4.14617,-1.139,-1,5
380,4.14498,-1.191,-1,5
381,4.14382,-1.165,-1,5
382,4.14262,-1.204,-1,5
383,4.14139,-1.225,-1,5
384,4.13890,-1.247,-1,5
385,4.13760,-1.299,-1,5
386,4.13631,-1.286,-1,5
387,4.13499,-1.320,-1,5
388,4.13364,-1.350,-1,5
389,4.13230,-1.342,-1,5
390,4.13091,-1.389,-1,5
391,4.12954,-1.372,-1,5
392,4.12810,-1.437,-1,5
393,4.12668,-1.424,-1,5
394,4.12520,-1.475,-1,5
395,4.12374,-1.463,-1,5
396,4.12225,-1.488,-1,5
397,4.12075,-1.506,-1,5
398,4.11922,-1.523,-1,5
399,4.11767,-1.549,-1,5
400,4.11611,-1.562,-1,5
401,4.11452,-1.592,-1,5
402,4.11293,-1.588,-1,5
403,4.11131,-1.622,-1,5
404,4.10966,-1.648,-1,5
405,4.10802,-1.644,-1,5
406,4.10635,-1.665,-1,5
407,4.10466,-1.696,-1,5
408,4.10294,-1.721,-1,5
409,4.10121,-1.730,-1,5
410,4.09768,-1.778,-1,5
411,4.09589,-1.790,-1,5
412,4.09410,-1.786,-1,5
413,4.09229,-1.812,-1,5
414,4.09046,-1.834,-1,5
415,4.08860,-1.851,-1,5
416,4.08672,-1.881,-1,5
417,4.08483,-1.894,-1,5
418,4.08290,-1.929,-1,5
419,4.08099,-1.911,-1,5
420,4.07905,-1.937,-1,5
421,4.07709,-1.989,-1,5
422,4.07510,-1.989,-1,5
423,4.07110,-2.015,-1,5
424,4.06906,-2.032,-1,5
425,4.06701,-2.058,-1,5
426,4.06494,-2.067,-1,5
427,4.06287,-2.071,-1,5
428,4.06076,-2.110,-1,5
429,4.05862,-2.144,-1,5
430,4.05647,-2.149,-1,5
431,4.05434,-2.127,-1,5
432,4.05217,-2.170,-1,5
433,4.04996,-2.209,-1,5
434,4.04776,-2.196,-1,5
435,4.04553,-2.231,-1,5
436,4.04329,-2.265,-1,5
437,4.04102,-2.265,-1,5
438,4.03644,-2.308,-1,5
439,4.03409,-2.343,-1,5
440,4.03178,-2.317,-1,5
441,4.02942,-2.356,-1,5
442,4.02704,-2.382,-1,5
443,4.02466,-2.382,-1,5
444,4.02222,-2.438,-1,5
445,4.01980,-2.416,-1,5
446,4.01737,-2.429,-1,5
447,4.01491,-2.468,-1,5
448,4.01240,-2.507,-1,5
449,4.00990,-2.502,-1,5
450,4.00737,-2.528,-1,5
451,4.00484,-2.533,-1,5
452,4.00229,-2.576,-1,5
453,3.99971,-2.597,-1,5
454,3.99450,-2.610,-1,5
455,3.99186,-2.649,-1,5
456,3.98922,-2.632,-1,5
457,3.98656,-2.662,-1,5
458,3.98385,-2.709,-1,5
459,3.98116,-2.692,-1,5
460,3.97844,-2.718,-1,5
461,3.97572,-2.727,-1,5
462,3.97296,-2.757,-1,5
463,3.97019,-2.770,-1,5
464,3.96739,-2.796,-1,5
465,3.96461,-2.783,-1,5
466,3.96177,-2.839,-1,5
467,3.95894,-2.830,-1,5
468,3.95607,-2.869,-1,5
469,3.95321,-2.860,-1,5
470,3.95033,-2.882,-1,5
471,3.94741,-2.921,-1,5
472,3.94153,-2.960,-1,5
473,3.93857,-2.955,-1,5
474,3.93559,-2.981,-1,5
475,3.93259,-2.998,-1,5
476,3.92957,-3.024,-1,5
477,3.92655,-3.020,-1,5
478,3.92350,-3.046,-1,5
479,3.92042,-3.080,-1,5
480,3.91731,-3.115,-1,5
481,3.91420,-3.106,-1,5
482,3.91107,-3.128,-1,5
483,3.90792,-3.154,-1,5
484,3.90478,-3.180,-1,5
485,3.90160,-3.206,-1,5
486,3.89840,-3.206,-1,5
487,3.89516,-3.240,-1,5
488,3.89191,-3.244,-1,5
489,3.88866,-3.253,-1,5
490,3.88538,-3.279,-1,5
491,3.88209,-3.292,-1,5
492,3.87878,-3.309,-1,5
493,3.87544,-3.339,-1,5
494,3.87208,-3.361,-1,5
495,3.86874,-3.344,-1,5
496,3.86535,-3.391,-1,5
497,3.86194,-3.408,-1,5
498,3.85852,-3.417,-1,5
499,3.85507,-3.443,-1,5
500,3.84816,-3.469,-1,5
501,3.84468,-3.486,-1,5
502,3.84118,-3.499,-1,5
503,3.83766,-3.520,-1,5
504,3.83414,-3.520,-1,5
505,3.83057,-3.568,-1,5
506,3.82698,-3.585,-1,5
507,3.82342,-3.559,-1,5
508,3.81980,-3.620,-1,5
509,3.81616,-3.654,-1,5
510,3.81251,-3.654,-1,5
511,3.80885,-3.697,-1,5
512,3.80515,-3.697,-1,5
513,3.80143,-3.719,-1,5
514,3.79772,-3.710,-1,5
515,3.79020,-3.766,-1,5
516,3.78642,-3.788,-1,5
517,3.78642,-3.788,-1,5
518,3.78261,-3.805,-1,5
519,3.77878,-3.831,-1,5
520,3.77494,-3.844,-1,5
521,3.77107,-3.870,-1,5
522,3.76720,-3.870,-1,5
523,3.76330,-3.892,-1,5
524,3.75937,-3.939,-1,5
525,3.75543,-3.939,-1,5
526,3.75148,-3.956,-1,5
527,3.74354,-3.991,-1,5
528,3.73952,-4.021,-1,5
529,3.73551,-4.008,-1,5
530,3.73146,-4.047,-1,5
531,3.72740,-4.064,-1,5
532,3.72332,-4.073,-1,5
533,3.71923,-4.090,-1,5
534,3.71512,-4.116,-1,5
535,3.71099,-4.129,-1,5
536,3.70682,-4.168,-1,5
537,3.70265,-4.168,-1,5
538,3.69427,-4.189,-1,5
539,3.69005,-4.219,-1,5
540,3.68580,-4.250,-1,5
541,3.68155,-4.245,-1,5
542,3.67727,-4.284,-1,5
543,3.67298,-4.293,-1,5
544,3.66868,-4.293,-1,5
545,3.66436,-4.319,-1,5
546,3.66002,-4.349,-1,5
547,3.65565,-4.362,-1,5
548,3.65129,-4.366,-1,5
549,3.64689,-4.401,-1,5
550,3.64248,-4.405,-1,5
551,3.63806,-4.426,-1,5
552,3.63360,-4.457,-1,5
553,3.62914,-4.457,-1,5
554,3.62467,-4.470,-1,5
555,3.62017,-4.504,-1,5
556,3.61566,-4.513,-1,5
557,3.61111,-4.547,-1,5
558,3.60655,-4.560,-1,5
559,3.60198,-4.565,-1,5
560,3.59278,-4.608,-1,5
561,3.58818,-4.599,-1,5
562,3.58353,-4.651,-1,5
563,3.57887,-4.655,-1,5
564,3.57421,-4.664,-1,5
565,3.56951,-4.694,-1,5
566,3.56482,-4.698,-1,5
567,3.56008,-4.737,-1,5
568,3.55535,-4.754,-1,5
569,3.54582,-4.767,-1,5
570,3.54105,-4.772,-1,5
571,3.53622,-4.836,-1,5
572,3.53139,-4.828,-1,5
573,3.52654,-4.849,-1,5
574,3.52167,-4.871,-1,5
575,3.51677,-4.901,-1,5
576,3.51189,-4.875,-1,5
577,3.50697,-4.918,-1,5
578,3.50203,-4.944,-1,5
579,3.49710,-4.927,-1,5
580,3.49212,-4.987,-1,5
581,3.48713,-4.987,-1,5
582,3.48213,-4.996,-1,5
583,3.47207,-5.056,-1,5
584,3.46706,-5.013,-1,5
585,3.46197,-5.091,-1,5
586,3.45690,-5.065,-1,5
587,3.45181,-5.091,-1,5
588,3.44670,-5.108,-1,5
589,3.44156,-5.147,-1,5
590,3.43643,-5.130,-1,5
591,3.43127,-5.151,-1,5
592,3.42608,-5.190,-1,5
593,3.42090,-5.186,-1,5
594,3.41568,-5.216,-1,5
595,3.41047,-5.216,-1,5
596,3.40524,-5.229,-1,5
597,3.39997,-5.268,-1,5
598,3.39475,-5.220,-1,5
599,3.38946,-5.294,-1,5
600,3.38416,-5.294,-1,5
601,3.37886,-5.302,-1,5
602,3.37352,-5.337,-1,5
603,3.36820,-5.324,-1,5
604,3.36285,-5.350,-1,5
605,3.35750,-5.354,-1,5
606,3.35211,-5.389,-1,5
607,3.34670,-5.406,-1,5
608,3.34128,-5.423,-1,5
609,3.33583,-5.449,-1,5
610,3.33038,-5.449,-1,5
611,3.32490,-5.484,-1,5
612,3.31942,-5.475,-1,5
613,3.31390,-5.518,-1,5
614,3.30838,-5.522,-1,5
615,3.30287,-5.509,-1,5
616,3.29734,-5.527,-1,5
617,3.29177,-5.574,-1,5
618,3.28622,-5.553,-1,5
619,3.28064,-5.578,-1,5
620,3.27503,-5.609,-1,5
621,3.26944,-5.591,-1,5
622,3.26383,-5.613,-1,5
623,3.25822,-5.604,-1,5
624,3.25255,-5.669,-1,5
625,3.24689,-5.665,-1,5
626,3.24120,-5.691,-1,5
627,3.23549,-5.708,-1,5
628,3.22981,-5.678,-1,5
