cnt,pos,speed,Dir,Force,
1,3.11701,1.346,-1,5
2,3.11835,1.334,-1,5
3,3.11967,1.323,-1,5
4,3.12098,1.313,-1,5
5,3.12229,1.304,-1,5
6,3.12358,1.294,-1,5
7,3.12487,1.289,-1,5
8,3.12615,1.284,-1,5
9,3.12742,1.265,-1,5
10,3.12867,1.254,-1,5
11,3.12992,1.246,-1,5
12,3.13116,1.239,-1,5
13,3.13239,1.231,-1,5
14,3.13361,1.226,-1,5
15,3.13483,1.215,-1,5
16,3.13603,1.198,-1,5
17,3.13721,1.182,-1,5
18,3.13839,1.180,-1,5
19,3.13957,1.182,-1,5
20,3.14074,1.169,-1,5
21,3.14189,1.153,-1,5
22,3.14304,1.145,-1,5
23,3.14418,1.140,-1,5
24,3.14531,1.130,-1,5
25,3.14643,1.121,-1,5
26,3.14754,1.116,-1,5
27,3.14866,1.112,-1,5
28,3.14976,1.101,-1,5
29,3.15084,1.086,-1,5
30,3.15192,1.080,-1,5
31,3.15301,1.083,-1,5
32,3.15408,1.076,-1,5
33,3.15514,1.062,-1,5
34,3.15620,1.053,-1,5
35,3.15725,1.053,-1,5
36,3.15830,1.050,-1,5
37,3.15934,1.035,-1,5
38,3.16036,1.024,-1,5
39,3.16138,1.024,-1,5
40,3.16241,1.028,-1,5
41,3.16343,1.022,-1,5
42,3.16444,1.001,-1,5
43,3.16543,0.993,-1,5
44,3.16643,1.002,-1,5
45,3.16743,1.000,-1,5
46,3.16842,0.988,-1,5
47,3.16939,0.973,-1,5
48,3.17037,0.977,-1,5
49,3.17135,0.986,-1,5
50,3.17233,0.980,-1,5
51,3.17330,0.960,-1,5
52,3.17424,0.949,-1,5
53,3.17520,0.958,-1,5
54,3.17617,0.968,-1,5
55,3.17713,0.960,-1,5
56,3.17807,0.942,-1,5
57,3.17901,0.939,-1,5
58,3.17997,0.954,-1,5
59,3.18092,0.957,-1,5
60,3.18187,0.944,-1,5
61,3.18279,0.925,-1,5
62,3.18372,0.926,-1,5
63,3.18466,0.947,-1,5
64,3.18561,0.950,-1,5
65,3.18655,0.937,-1,5
66,3.18747,0.917,-1,5
67,3.18839,0.922,-1,5
68,3.18933,0.941,-1,5
69,3.19027,0.942,-1,5
70,3.19120,0.924,-1,5
71,3.19211,0.909,-1,5
72,3.19302,0.918,-1,5
73,3.19396,0.939,-1,5
74,3.19490,0.940,-1,5
75,3.19582,0.917,-1,5
76,3.19672,0.905,-1,5
77,3.19764,0.914,-1,5
78,3.19857,0.931,-1,5
79,3.19950,0.935,-1,5
80,3.20132,0.901,-1,5
81,3.20132,0.916,-1,5
82,3.20317,0.935,-1,5
83,3.20410,0.930,-1,5
84,3.20410,0.914,-1,5
85,3.20501,0.914,-1,5
86,3.20592,0.900,-1,5
87,3.20683,0.912,-1,5
88,3.20776,0.933,-1,5
89,3.20870,0.935,-1,5
90,3.20961,0.915,-1,5
91,3.21052,0.908,-1,5
92,3.21143,0.916,-1,5
93,3.21236,0.931,-1,5
94,3.21330,0.934,-1,5
95,3.21422,0.919,-1,5
96,3.21512,0.906,-1,5
97,3.21604,0.918,-1,5
98,3.21698,0.935,-1,5
99,3.21791,0.934,-1,5
100,3.21884,0.923,-1,5
101,3.21975,0.911,-1,5
102,3.22066,0.915,-1,5
103,3.22160,0.934,-1,5
104,3.22253,0.934,-1,5
105,3.22345,0.922,-1,5
106,3.22437,0.914,-1,5
107,3.22529,0.920,-1,5
108,3.22622,0.934,-1,5
109,3.22716,0.938,-1,5
110,3.22809,0.928,-1,5
111,3.22900,0.916,-1,5
112,3.22993,0.922,-1,5
113,3.23086,0.935,-1,5
114,3.23180,0.943,-1,5
115,3.23274,0.937,-1,5
116,3.23367,0.928,-1,5
117,3.23460,0.931,-1,5
118,3.23554,0.944,-1,5
119,3.23650,0.952,-1,5
120,3.23744,0.947,-1,5
121,3.23838,0.937,-1,5
122,3.23932,0.941,-1,5
123,3.24028,0.957,-1,5
124,3.24125,0.971,-1,5
125,3.24221,0.963,-1,5
126,3.24317,0.956,-1,5
127,3.24412,0.957,-1,5
128,3.24510,0.973,-1,5
129,3.24608,0.985,-1,5
130,3.24707,0.985,-1,5
131,3.24804,0.975,-1,5
132,3.24902,0.980,-1,5
133,3.25002,0.999,-1,5
134,3.25103,1.010,-1,5
135,3.25204,1.009,-1,5
136,3.25303,0.994,-1,5
137,3.25403,1.000,-1,5
138,3.25506,1.027,-1,5
139,3.25611,1.043,-1,5
140,3.25714,1.037,-1,5
141,3.25817,1.024,-1,5
142,3.25920,1.033,-1,5
143,3.26026,1.059,-1,5
144,3.26133,1.074,-1,5
145,3.26240,1.065,-1,5
146,3.26345,1.053,-1,5
147,3.26452,1.073,-1,5
148,3.26563,1.105,-1,5
149,3.26674,1.112,-1,5
150,3.26783,1.094,-1,5
151,3.26892,1.087,-1,5
152,3.27004,1.115,-1,5
153,3.27118,1.144,-1,5
154,3.27232,1.143,-1,5
155,3.27345,1.129,-1,5
156,3.27459,1.136,-1,5
157,3.27575,1.166,-1,5
158,3.27693,1.180,-1,5
159,3.27810,1.169,-1,5
160,3.27927,1.165,-1,5
161,3.28046,1.188,-1,5
162,3.28167,1.209,-1,5
163,3.28288,1.214,-1,5
164,3.28409,1.208,-1,5
165,3.28530,1.214,-1,5
166,3.28653,1.231,-1,5
167,3.28778,1.244,-1,5
168,3.28903,1.255,-1,5
169,3.29029,1.255,-1,5
170,3.29154,1.257,-1,5
171,3.29281,1.270,-1,5
172,3.29410,1.290,-1,5
173,3.29540,1.300,-1,5
174,3.29670,1.293,-1,5
175,3.29799,1.299,-1,5
176,3.29932,1.323,-1,5
177,3.30065,1.334,-1,5
178,3.30198,1.332,-1,5
179,3.30332,1.336,-1,5
180,3.30467,1.355,-1,5
181,3.30604,1.367,-1,5
182,3.30741,1.371,-1,5
183,3.30879,1.374,-1,5
184,3.31017,1.382,-1,5
185,3.31156,1.395,-1,5
186,3.31298,1.415,-1,5
187,3.31440,1.419,-1,5
188,3.31581,1.414,-1,5
189,3.31723,1.419,-1,5
190,3.31867,1.445,-1,5
191,3.32013,1.459,-1,5
192,3.32159,1.461,-1,5
193,3.32306,1.464,-1,5
194,3.32453,1.468,-1,5
195,3.32601,1.483,-1,5
196,3.32751,1.503,-1,5
197,3.32903,1.513,-1,5
198,3.33053,1.508,-1,5
199,3.33205,1.515,-1,5
200,3.33358,1.528,-1,5
201,3.33512,1.543,-1,5
202,3.33667,1.553,-1,5
203,3.33823,1.559,-1,5
204,3.33979,1.557,-1,5
205,3.34136,1.568,-1,5
206,3.34295,1.589,-1,5
207,3.34454,1.598,-1,5
208,3.34614,1.599,-1,5
209,3.34774,1.601,-1,5
210,3.34935,1.608,-1,5
211,3.35098,1.630,-1,5
212,3.35263,1.645,-1,5
213,3.35427,1.642,-1,5
214,3.35591,1.642,-1,5
215,3.35756,1.650,-1,5
216,3.35923,1.671,-1,5
217,3.36092,1.689,-1,5
218,3.36261,1.688,-1,5
219,3.36429,1.679,-1,5
220,3.36598,1.691,-1,5
221,3.36769,1.714,-1,5
222,3.36942,1.732,-1,5
223,3.37116,1.734,-1,5
224,3.37288,1.721,-1,5
225,3.37461,1.729,-1,5
226,3.37636,1.756,-1,5
227,3.37814,1.776,-1,5
228,3.37991,1.776,-1,5
229,3.38168,1.763,-1,5
230,3.38345,1.773,-1,5
231,3.38525,1.799,-1,5
232,3.38707,1.817,-1,5
233,3.38888,1.814,-1,5
234,3.39069,1.808,-1,5
235,3.39251,1.818,-1,5
236,3.39435,1.838,-1,5
237,3.39620,1.850,-1,5
238,3.39805,1.852,-1,5
239,3.39990,1.854,-1,5
240,3.40176,1.861,-1,5
241,3.40364,1.875,-1,5
242,3.40552,1.882,-1,5
243,3.40741,1.894,-1,5
244,3.40931,1.901,-1,5
245,3.41121,1.895,-1,5
246,3.41311,1.902,-1,5
247,3.41503,1.918,-1,5
248,3.41697,1.937,-1,5
249,3.41890,1.937,-1,5
250,3.42083,1.928,-1,5
251,3.42277,1.934,-1,5
252,3.42472,1.954,-1,5
253,3.42669,1.972,-1,5
254,3.42866,1.969,-1,5
255,3.43062,1.960,-1,5
256,3.43259,1.968,-1,5
257,3.43457,1.987,-1,5
258,3.43658,2.002,-1,5
259,3.43858,2.000,-1,5
260,3.44057,1.992,-1,5
261,3.44257,1.998,-1,5
262,3.44458,2.014,-1,5
263,3.44662,2.035,-1,5
264,3.44864,2.028,-1,5
265,3.45066,2.016,-1,5
266,3.45268,2.023,-1,5
267,3.45473,2.049,-1,5
268,3.45679,2.061,-1,5
269,3.45884,2.046,-1,5
270,3.46087,2.034,-1,5
271,3.46293,2.054,-1,5
272,3.46500,2.080,-1,5
273,3.46708,2.074,-1,5
274,3.46914,2.057,-1,5
275,3.47120,2.061,-1,5
276,3.47328,2.083,-1,5
277,3.47537,2.092,-1,5
278,3.47745,2.080,-1,5
279,3.47953,2.073,-1,5
280,3.48161,2.081,-1,5
281,3.48371,2.100,-1,5
282,3.48580,2.098,-1,5
283,3.48789,2.089,-1,5
284,3.48998,2.085,-1,5
285,3.49207,2.092,-1,5
286,3.49418,2.110,-1,5
287,3.49628,2.103,-1,5
288,3.49837,2.091,-1,5
289,3.50046,2.087,-1,5
290,3.50257,2.105,-1,5
291,3.50468,2.116,-1,5
292,3.50678,2.098,-1,5
293,3.50886,2.084,-1,5
294,3.51096,2.095,-1,5
295,3.51307,2.113,-1,5
296,3.51517,2.104,-1,5
297,3.51726,2.086,-1,5
298,3.51934,2.085,-1,5
299,3.52145,2.100,-1,5
300,3.52354,2.098,-1,5
301,3.52563,2.089,-1,5
302,3.52771,2.078,-1,5
303,3.52979,2.080,-1,5
304,3.53188,2.085,-1,5
305,3.53396,2.085,-1,5
306,3.53603,2.072,-1,5
307,3.53809,2.060,-1,5
308,3.54016,2.063,-1,5
309,3.54223,2.075,-1,5
310,3.54429,2.062,-1,5
311,3.54634,2.045,-1,5
312,3.54838,2.039,-1,5
313,3.55043,2.053,-1,5
314,3.55248,2.052,-1,5
315,3.55451,2.031,-1,5
316,3.55653,2.017,-1,5
317,3.55856,2.026,-1,5
318,3.56059,2.034,-1,5
319,3.56261,2.018,-1,5
320,3.56461,1.999,-1,5
321,3.56660,1.996,-1,5
322,3.56861,2.009,-1,5
323,3.57061,2.001,-1,5
324,3.57259,1.982,-1,5
325,3.57457,1.972,-1,5
326,3.57654,1.977,-1,5
327,3.57852,1.979,-1,5
328,3.58049,1.967,-1,5
329,3.58244,1.954,-1,5
330,3.58439,1.946,-1,5
331,3.58634,1.950,-1,5
332,3.58829,1.952,-1,5
333,3.59023,1.937,-1,5
334,3.59215,1.918,-1,5
335,3.59406,1.915,-1,5
336,3.59599,1.926,-1,5
337,3.59791,1.923,-1,5
338,3.59981,1.897,-1,5
339,3.60169,1.881,-1,5
340,3.60358,1.889,-1,5
341,3.60548,1.901,-1,5
342,3.60736,1.885,-1,5
343,3.60922,1.857,-1,5
344,3.61107,1.852,-1,5
345,3.61293,1.862,-1,5
346,3.61480,1.863,-1,5
347,3.61664,1.845,-1,5
348,3.61847,1.824,-1,5
349,3.62029,1.819,-1,5
350,3.62211,1.826,-1,5
351,3.62394,1.826,-1,5
352,3.62575,1.809,-1,5
353,3.62754,1.790,-1,5
354,3.62932,1.784,-1,5
355,3.63111,1.791,-1,5
356,3.63290,1.786,-1,5
357,3.63467,1.778,-1,5
358,3.63643,1.755,-1,5
359,3.63818,1.746,-1,5
360,3.63993,1.753,-1,5
361,3.64168,1.752,-1,5
362,3.64342,1.742,-1,5
363,3.64515,1.724,-1,5
364,3.64686,1.711,-1,5
365,3.64857,1.715,-1,5
366,3.65029,1.716,-1,5
367,3.65199,1.705,-1,5
368,3.65368,1.691,-1,5
369,3.65536,1.679,-1,5
370,3.65704,1.677,-1,5
371,3.65872,1.680,-1,5
372,3.66039,1.670,-1,5
373,3.66205,1.658,-1,5
374,3.66370,1.647,-1,5
375,3.66534,1.643,-1,5
376,3.66698,1.646,-1,5
377,3.66862,1.639,-1,5
378,3.67025,1.623,-1,5
379,3.67186,1.615,-1,5
380,3.67347,1.613,-1,5
381,3.67509,1.612,-1,5
382,3.67669,1.606,-1,5
383,3.67828,1.589,-1,5
384,3.67986,1.580,-1,5
385,3.68145,1.587,-1,5
386,3.68303,1.584,-1,5
387,3.68460,1.568,-1,5
388,3.68615,1.555,-1,5
389,3.68771,1.552,-1,5
390,3.68926,1.555,-1,5
391,3.69082,1.559,-1,5
392,3.69236,1.541,-1,5
393,3.69388,1.522,-1,5
394,3.69540,1.521,-1,5
395,3.69693,1.530,-1,5
396,3.69846,1.528,-1,5
397,3.69998,1.516,-1,5
398,3.70147,1.497,-1,5
399,3.70296,1.491,-1,5
400,3.70447,1.502,-1,5
401,3.70597,1.506,-1,5
402,3.70746,1.483,-1,5
403,3.70893,1.473,-1,5
404,3.71040,1.473,-1,5
405,3.71187,1.472,-1,5
406,3.71335,1.476,-1,5
407,3.71482,1.467,-1,5
408,3.71627,1.450,-1,5
409,3.71772,1.450,-1,5
410,3.71917,1.458,-1,5
411,3.72063,1.451,-1,5
412,3.72206,1.440,-1,5
413,3.72350,1.437,-1,5
414,3.72494,1.437,-1,5
415,3.72637,1.431,-1,5
416,3.72780,1.432,-1,5
417,3.72923,1.428,-1,5
418,3.73065,1.419,-1,5
419,3.73207,1.417,-1,5
420,3.73348,1.416,-1,5
421,3.73489,1.411,-1,5
422,3.73630,1.410,-1,5
423,3.73772,1.415,-1,5
424,3.73912,1.404,-1,5
425,3.74051,1.392,-1,5
426,3.74191,1.393,-1,5
427,3.74331,1.403,-1,5
428,3.74471,1.398,-1,5
429,3.74610,1.390,-1,5
430,3.74748,1.384,-1,5
431,3.74886,1.380,-1,5
432,3.75025,1.385,-1,5
433,3.75164,1.393,-1,5
434,3.75303,1.385,-1,5
435,3.75440,1.371,-1,5
436,3.75577,1.371,-1,5
437,3.75715,1.382,-1,5
438,3.75853,1.376,-1,5
439,3.75989,1.368,-1,5
440,3.76127,1.371,-1,5
441,3.76264,1.374,-1,5
442,3.76401,1.368,-1,5
443,3.76537,1.366,-1,5
444,3.76674,1.366,-1,5
445,3.76811,1.366,-1,5
446,3.76948,1.370,-1,5
447,3.77085,1.371,-1,5
448,3.77221,1.363,-1,5
449,3.77357,1.356,-1,5
450,3.77494,1.369,-1,5
451,3.77631,1.378,-1,5
452,3.77769,1.371,-1,5
453,3.77905,1.362,-1,5
454,3.78041,1.367,-1,5
455,3.78179,1.374,-1,5
456,3.78317,1.378,-1,5
457,3.78455,1.381,-1,5
458,3.78592,1.377,-1,5
459,3.78730,1.372,-1,5
460,3.78868,1.381,-1,5
461,3.79007,1.392,-1,5
462,3.79146,1.391,-1,5
463,3.79285,1.390,-1,5
464,3.79425,1.395,-1,5
465,3.79564,1.398,-1,5
466,3.79704,1.399,-1,5
467,3.79845,1.411,-1,5
468,3.79987,1.418,-1,5
469,3.80129,1.417,-1,5
470,3.80271,1.417,-1,5
471,3.80414,1.430,-1,5
472,3.80557,1.437,-1,5
473,3.80702,1.443,-1,5
474,3.80847,1.450,-1,5
475,3.80992,1.451,-1,5
476,3.81137,1.457,-1,5
477,3.81284,1.471,-1,5
478,3.81432,1.478,-1,5
479,3.81580,1.483,-1,5
480,3.81729,1.487,-1,5
481,3.81879,1.497,-1,5
482,3.82029,1.506,-1,5
483,3.82181,1.516,-1,5
484,3.82334,1.530,-1,5
485,3.82487,1.527,-1,5
486,3.82640,1.534,-1,5
487,3.82795,1.548,-1,5
488,3.82951,1.560,-1,5
489,3.83108,1.573,-1,5
490,3.83266,1.578,-1,5
491,3.83424,1.580,-1,5
492,3.83583,1.590,-1,5
493,3.83744,1.609,-1,5
494,3.83906,1.620,-1,5
495,3.84069,1.627,-1,5
496,3.84232,1.632,-1,5
497,3.84395,1.634,-1,5
498,3.84561,1.652,-1,5
499,3.84728,1.672,-1,5
500,3.84895,1.675,-1,5
501,3.85063,1.676,-1,5
502,3.85231,1.683,-1,5
503,3.85401,1.699,-1,5
504,3.85573,1.719,-1,5
505,3.85745,1.722,-1,5
506,3.85917,1.720,-1,5
507,3.86090,1.733,-1,5
508,3.86265,1.752,-1,5
509,3.86442,1.765,-1,5
510,3.86618,1.762,-1,5
511,3.86794,1.762,-1,5
512,3.86973,1.784,-1,5
513,3.87153,1.800,-1,5
514,3.87333,1.802,-1,5
515,3.87513,1.800,-1,5
516,3.87694,1.807,-1,5
517,3.87877,1.831,-1,5
518,3.88061,1.845,-1,5
519,3.88245,1.838,-1,5
520,3.88429,1.836,-1,5
521,3.88614,1.851,-1,5
522,3.88801,1.877,-1,5
523,3.88990,1.885,-1,5
524,3.89177,1.872,-1,5
525,3.89365,1.874,-1,5
526,3.89554,1.897,-1,5
527,3.89746,1.918,-1,5
528,3.89938,1.916,-1,5
529,3.90128,1.905,-1,5
530,3.90320,1.915,-1,5
531,3.90513,1.937,-1,5
532,3.90708,1.950,-1,5
533,3.90903,1.950,-1,5
534,3.91098,1.943,-1,5
535,3.91293,1.954,-1,5
536,3.91490,1.970,-1,5
537,3.91689,1.986,-1,5
538,3.91887,1.986,-1,5
539,3.92085,1.980,-1,5
540,3.92284,1.985,-1,5
541,3.92484,2.003,-1,5
542,3.92687,2.024,-1,5
543,3.92889,2.021,-1,5
544,3.93090,2.012,-1,5
545,3.93291,2.014,-1,5
546,3.93495,2.037,-1,5
547,3.93701,2.058,-1,5
548,3.93906,2.052,-1,5
549,3.94111,2.045,-1,5
550,3.94316,2.053,-1,5
551,3.94523,2.073,-1,5
552,3.94732,2.088,-1,5
553,3.94940,2.082,-1,5
554,3.95148,2.080,-1,5
555,3.95357,2.087,-1,5
556,3.95567,2.107,-1,5
557,3.95779,2.118,-1,5
558,3.95991,2.115,-1,5
559,3.96202,2.111,-1,5
560,3.96414,2.123,-1,5
561,3.96628,2.141,-1,5
562,3.96843,2.148,-1,5
563,3.97057,2.142,-1,5
564,3.97271,2.141,-1,5
565,3.97487,2.160,-1,5
566,3.97705,2.173,-1,5
567,3.97922,2.173,-1,5
568,3.98139,2.167,-1,5
569,3.98357,2.179,-1,5
570,3.98576,2.192,-1,5
571,3.98796,2.198,-1,5
572,3.99015,2.195,-1,5
573,3.99235,2.200,-1,5
574,3.99456,2.209,-1,5
575,3.99678,2.217,-1,5
576,3.99900,2.222,-1,5
577,4.00122,2.223,-1,5
578,4.00345,2.226,-1,5
579,4.00568,2.235,-1,5
580,4.00793,2.244,-1,5
581,4.01017,2.245,-1,5
582,4.01242,2.251,-1,5
583,4.01468,2.254,-1,5
584,4.01694,2.258,-1,5
585,4.01919,2.259,-1,5
586,4.02147,2.276,-1,5
587,4.02375,2.275,-1,5
588,4.02602,2.272,-1,5
589,4.02829,2.274,-1,5
590,4.03058,2.292,-1,5
591,4.03288,2.294,-1,5
592,4.03517,2.290,-1,5
593,4.03746,2.292,-1,5
594,4.03976,2.304,-1,5
595,4.04207,2.306,-1,5
596,4.04437,2.306,-1,5
597,4.04668,2.308,-1,5
598,4.04899,2.310,-1,5
599,4.05131,2.318,-1,5
600,4.05363,2.324,-1,5
601,4.05595,2.319,-1,5
602,4.05827,2.319,-1,5
603,4.06060,2.327,-1,5
604,4.06294,2.336,-1,5
605,4.06526,2.327,-1,5
606,4.06759,2.329,-1,5
607,4.06993,2.339,-1,5
608,4.07227,2.340,-1,5
609,4.07460,2.335,-1,5
610,4.07694,2.338,-1,5
611,4.07929,2.345,-1,5
612,4.08163,2.340,-1,5
613,4.08397,2.344,-1,5
614,4.08632,2.345,-1,5
615,4.08866,2.347,-1,5
616,4.09101,2.344,-1,5
617,4.09336,2.351,-1,5
618,4.09571,2.349,-1,5
619,4.09806,2.351,-1,5
620,4.10041,2.348,-1,5
621,4.10275,2.348,-1,5
622,4.10510,2.346,-1,5
623,4.10745,2.353,-1,5
624,4.10980,2.349,-1,5
625,4.11215,2.344,-1,5
626,4.11449,2.344,-1,5
627,4.11684,2.353,-1,5
628,4.11919,2.347,-1,5
629,4.12153,2.341,-1,5
630,4.12387,2.337,-1,5
631,4.12622,2.348,-1,5
632,4.12856,2.341,-1,5
633,4.13090,2.338,-1,5
634,4.13323,2.330,-1,5
635,4.13556,2.337,-1,5
636,4.13790,2.332,-1,5
637,4.14023,2.331,-1,5
638,4.14255,2.325,-1,5
639,4.14488,2.324,-1,5
640,4.14720,2.321,-1,5
641,4.14951,2.316,-1,5
642,4.15183,2.317,-1,5
643,4.15414,2.314,-1,5
644,4.15645,2.307,-1,5
645,4.15875,2.303,-1,5
646,4.16105,2.298,-1,5
647,4.16335,2.302,-1,5
648,4.16565,2.297,-1,5
649,4.16794,2.286,-1,5
650,4.17022,2.279,-1,5
651,4.17250,2.286,-1,5
652,4.17478,2.281,-1,5
653,4.17706,2.270,-1,5
654,4.17932,2.264,-1,5
655,4.18158,2.264,-1,5
656,4.18384,2.256,-1,5
657,4.18609,2.254,-1,5
658,4.18834,2.246,-1,5
659,4.19058,2.240,-1,5
660,4.19281,2.235,-1,5
661,4.19505,2.233,-1,5
662,4.19727,2.223,-1,5
663,4.19949,2.216,-1,5
664,4.20170,2.213,-1,5
665,4.20391,2.209,-1,5
666,4.20611,2.199,-1,5
667,4.20830,2.193,-1,5
668,4.21049,2.192,-1,5
669,4.21268,2.184,-1,5
670,4.21485,2.173,-1,5
671,4.21701,2.167,-1,5
672,4.21918,2.168,-1,5
673,4.22134,2.161,-1,5
674,4.22349,2.149,-1,5
675,4.22564,2.143,-1,5
676,4.22778,2.141,-1,5
677,4.22991,2.136,-1,5
678,4.23204,2.129,-1,5
679,4.23416,2.123,-1,5
680,4.23628,2.113,-1,5
681,4.23839,2.110,-1,5
682,4.24049,2.108,-1,5
683,4.24260,2.102,-1,5
684,4.24469,2.091,-1,5
685,4.24677,2.083,-1,5
686,4.24886,2.087,-1,5
687,4.25094,2.082,-1,5
688,4.25301,2.070,-1,5
689,4.25507,2.060,-1,5
690,4.25714,2.067,-1,5
691,4.25920,2.062,-1,5
692,4.26125,2.051,-1,5
693,4.26329,2.038,-1,5
694,4.26533,2.045,-1,5
695,4.26738,2.045,-1,5
696,4.26941,2.033,-1,5
697,4.27144,2.027,-1,5
698,4.27346,2.021,-1,5
699,4.27548,2.024,-1,5
700,4.27750,2.021,-1,5
701,4.27952,2.015,-1,5
702,4.28152,2.004,-1,5
703,4.28353,2.005,-1,5
704,4.28553,2.007,-1,5
705,4.28754,2.003,-1,5
706,4.28953,1.997,-1,5
707,4.29152,1.988,-1,5
708,4.29351,1.989,-1,5
709,4.29551,1.996,-1,5
710,4.29750,1.990,-1,5
711,4.29948,1.979,-1,5
712,4.30145,1.974,-1,5
713,4.30343,1.985,-1,5
714,4.30542,1.990,-1,5
715,4.30740,1.971,-1,5
716,4.30936,1.964,-1,5
717,4.31133,1.970,-1,5
718,4.31332,1.987,-1,5
719,4.31529,1.973,-1,5
720,4.31725,1.959,-1,5
721,4.31921,1.962,-1,5
722,4.32119,1.975,-1,5
723,4.32316,1.977,-1,5
724,4.32512,1.959,-1,5
725,4.32708,1.957,-1,5
726,4.32904,1.966,-1,5
727,4.33102,1.975,-1,5
728,4.33299,1.968,-1,5
729,4.33494,1.957,-1,5
730,4.33691,1.964,-1,5
731,4.33888,1.968,-1,5
732,4.34085,1.973,-1,5
733,4.34282,1.969,-1,5
734,4.34478,1.964,-1,5
735,4.34675,1.966,-1,5
736,4.34872,1.973,-1,5
737,4.35071,1.985,-1,5
738,4.35268,1.975,-1,5
739,4.35465,1.967,-1,5
740,4.35662,1.969,-1,5
741,4.35860,1.987,-1,5
742,4.36060,1.997,-1,5
743,4.36258,1.981,-1,5
744,4.36455,1.971,-1,5
745,4.36654,1.986,-1,5
746,4.36855,2.009,-1,5
747,4.37055,2.003,-1,5
748,4.37254,1.985,-1,5
749,4.37453,1.993,-1,5
750,4.37654,2.014,-1,5
751,4.37856,2.020,-1,5
752,4.38057,2.010,-1,5
753,4.38258,2.004,-1,5
754,4.38460,2.022,-1,5
755,4.38663,2.030,-1,5
756,4.38867,2.035,-1,5
757,4.39070,2.032,-1,5
758,4.39273,2.030,-1,5
759,4.39476,2.037,-1,5
760,4.39682,2.055,-1,5
761,4.39888,2.061,-1,5
762,4.40093,2.051,-1,5
763,4.40298,2.047,-1,5
764,4.40504,2.063,-1,5
765,4.40713,2.086,-1,5
766,4.40921,2.083,-1,5
767,4.41128,2.065,-1,5
768,4.41335,2.071,-1,5
769,4.41544,2.098,-1,5
770,4.41756,2.111,-1,5
771,4.41965,2.094,-1,5
772,4.42174,2.087,-1,5
773,4.42384,2.104,-1,5
774,4.42597,2.127,-1,5
775,4.42809,2.126,-1,5
776,4.43021,2.114,-1,5
777,4.43232,2.114,-1,5
778,4.43445,2.132,-1,5
779,4.43661,2.152,-1,5
780,4.43875,2.145,-1,5
781,4.44088,2.129,-1,5
782,4.44302,2.138,-1,5
783,4.44519,2.167,-1,5
784,4.44736,2.172,-1,5
785,4.44951,2.154,-1,5
786,4.45166,2.147,-1,5
787,4.45383,2.169,-1,5
788,4.45602,2.190,-1,5
789,4.45820,2.181,-1,5
790,4.46036,2.167,-1,5
791,4.46254,2.173,-1,5
792,4.46473,2.194,-1,5
793,4.46693,2.199,-1,5
794,4.46912,2.189,-1,5
795,4.47130,2.180,-1,5
796,4.47349,2.191,-1,5
797,4.47570,2.207,-1,5
798,4.47791,2.210,-1,5
799,4.48010,2.196,-1,5
800,4.48230,2.193,-1,5
801,4.48450,2.206,-1,5
802,4.48672,2.216,-1,5
803,4.48893,2.211,-1,5
804,4.49113,2.202,-1,5
805,4.49334,2.206,-1,5
806,4.49555,2.213,-1,5
807,4.49777,2.218,-1,5
808,4.49998,2.211,-1,5
809,4.50219,2.210,-1,5
810,4.50440,2.211,-1,5
811,4.50662,2.216,-1,5
812,4.50883,2.215,-1,5
813,4.51105,2.216,-1,5
814,4.51326,2.212,-1,5
815,4.51547,2.211,-1,5
816,4.51769,2.216,-1,5
817,4.51991,2.220,-1,5
818,4.52212,2.217,-1,5
819,4.52433,2.209,-1,5
820,4.52654,2.210,-1,5
821,4.52875,2.213,-1,5
822,4.53097,2.220,-1,5
823,4.53319,2.213,-1,5
824,4.53539,2.205,-1,5
825,4.53760,2.206,-1,5
826,4.53982,2.219,-1,5
827,4.54204,2.217,-1,5
828,4.54424,2.205,-1,5
829,4.54644,2.201,-1,5
830,4.54866,2.213,-1,5
831,4.55087,2.219,-1,5
832,4.55308,2.209,-1,5
833,4.55528,2.201,-1,5
834,4.55749,2.210,-1,5
835,4.55971,2.217,-1,5
836,4.56192,2.211,-1,5
837,4.56413,2.207,-1,5
838,4.56634,2.206,-1,5
839,4.56855,2.214,-1,5
840,4.57077,2.216,-1,5
841,4.57298,2.214,-1,5
842,4.57519,2.207,-1,5
843,4.57740,2.213,-1,5
844,4.57962,2.220,-1,5
845,4.58184,2.218,-1,5
846,4.58404,2.208,-1,5
847,4.58626,2.212,-1,5
848,4.58848,2.223,-1,5
849,4.59070,2.220,-1,5
850,4.59291,2.212,-1,5
851,4.59513,2.214,-1,5
852,4.59735,2.224,-1,5
853,4.59957,2.220,-1,5
854,4.60179,2.217,-1,5
855,4.60401,2.217,-1,5
856,4.60623,2.225,-1,5
857,4.60845,2.221,-1,5
858,4.61067,2.222,-1,5
859,4.61289,2.220,-1,5
860,4.61512,2.223,-1,5
861,4.61734,2.223,-1,5
862,4.61957,2.226,-1,5
863,4.62179,2.221,-1,5
864,4.62401,2.223,-1,5
865,4.62624,2.227,-1,5
866,4.62846,2.227,-1,5
867,4.63069,2.223,-1,5
868,4.63291,2.225,-1,5
869,4.63514,2.233,-1,5
870,4.63737,2.230,-1,5
871,4.63960,2.223,-1,5
872,4.64182,2.224,-1,5
873,4.64406,2.237,-1,5
