cnt,pos,speed,Dir,Force,
1,3.13543,2.319,-1,5
2,3.13775,2.312,-1,5
3,3.14005,2.303,-1,5
4,3.14235,2.297,-1,5
5,3.14464,2.290,-1,5
6,3.14692,2.280,-1,5
7,3.14919,2.273,-1,5
8,3.15145,2.266,-1,5
9,3.15371,2.260,-1,5
10,3.15596,2.250,-1,5
11,3.15821,2.245,-1,5
12,3.16045,2.236,-1,5
13,3.16267,2.229,-1,5
14,3.16490,2.227,-1,5
15,3.16712,2.217,-1,5
16,3.16933,2.207,-1,5
17,3.17153,2.201,-1,5
18,3.17373,2.201,-1,5
19,3.17592,2.193,-1,5
20,3.17810,2.181,-1,5
21,3.18028,2.175,-1,5
22,3.18246,2.179,-1,5
23,3.18462,2.159,-1,5
24,3.18678,2.159,-1,5
25,3.19110,2.157,-1,5
26,3.19324,2.149,-1,5
27,3.19538,2.140,-1,5
28,3.19752,2.136,-1,5
29,3.19965,2.134,-1,5
30,3.20178,2.130,-1,5
31,3.20391,2.122,-1,5
32,3.20603,2.120,-1,5
33,3.20814,2.112,-1,5
34,3.21025,2.108,-1,5
35,3.21236,2.109,-1,5
36,3.21446,2.103,-1,5
37,3.21655,2.089,-1,5
38,3.21864,2.090,-1,5
39,3.22073,2.094,-1,5
40,3.22282,2.076,-1,5
41,3.22697,2.069,-1,5
42,3.22904,2.076,-1,5
43,3.23112,2.077,-1,5
44,3.23318,2.063,-1,5
45,3.23524,2.057,-1,5
46,3.23730,2.060,-1,5
47,3.23936,2.063,-1,5
48,3.24141,2.054,-1,5
49,3.24347,2.051,-1,5
50,3.24551,2.050,-1,5
51,3.24961,2.048,-1,5
52,3.25165,2.041,-1,5
53,3.25369,2.038,-1,5
54,3.25572,2.030,-1,5
55,3.25776,2.040,-1,5
56,3.25980,2.039,-1,5
57,3.26183,2.031,-1,5
58,3.26385,2.022,-1,5
59,3.26588,2.027,-1,5
60,3.26792,2.039,-1,5
61,3.26995,2.034,-1,5
62,3.27197,2.020,-1,5
63,3.27398,2.015,-1,5
64,3.27602,2.035,-1,5
65,3.27806,2.039,-1,5
66,3.28008,2.024,-1,5
67,3.28210,2.016,-1,5
68,3.28413,2.025,-1,5
69,3.28616,2.039,-1,5
70,3.28820,2.034,-1,5
71,3.29224,2.021,-1,5
72,3.29427,2.033,-1,5
73,3.29631,2.038,-1,5
74,3.29834,2.031,-1,5
75,3.30036,2.023,-1,5
76,3.30238,2.019,-1,5
77,3.30442,2.037,-1,5
78,3.30646,2.041,-1,5
79,3.30849,2.029,-1,5
80,3.31051,2.018,-1,5
81,3.31253,2.022,-1,5
82,3.31457,2.041,-1,5
83,3.31661,2.042,-1,5
84,3.31864,2.026,-1,5
85,3.32065,2.015,-1,5
86,3.32269,2.034,-1,5
87,3.32473,2.048,-1,5
88,3.32677,2.038,-1,5
89,3.32880,2.026,-1,5
90,3.33082,2.022,-1,5
91,3.33286,2.038,-1,5
92,3.33490,2.040,-1,5
93,3.33693,2.031,-1,5
94,3.33895,2.023,-1,5
95,3.34097,2.022,-1,5
96,3.34301,2.032,-1,5
97,3.34504,2.035,-1,5
98,3.34707,2.028,-1,5
99,3.34908,2.014,-1,5
100,3.35110,2.016,-1,5
101,3.35313,2.028,-1,5
102,3.35516,2.029,-1,5
103,3.35718,2.005,-1,5
104,3.36119,2.013,-1,5
105,3.36322,2.022,-1,5
106,3.36524,2.020,-1,5
107,3.36724,2.006,-1,5
108,3.36924,2.002,-1,5
109,3.37126,2.011,-1,5
110,3.37327,2.011,-1,5
111,3.37527,2.004,-1,5
112,3.37727,1.999,-1,5
113,3.37927,1.998,-1,5
114,3.38126,1.997,-1,5
115,3.38326,1.993,-1,5
116,3.38525,1.994,-1,5
117,3.38724,1.989,-1,5
118,3.38922,1.980,-1,5
119,3.39120,1.981,-1,5
120,3.39318,1.981,-1,5
121,3.39516,1.977,-1,5
122,3.39712,1.966,-1,5
123,3.39909,1.968,-1,5
124,3.40106,1.969,-1,5
125,3.40303,1.966,-1,5
126,3.40498,1.954,-1,5
127,3.40693,1.951,-1,5
128,3.40889,1.958,-1,5
129,3.41084,1.953,-1,5
130,3.41278,1.934,-1,5
131,3.41472,1.934,-1,5
132,3.41665,1.942,-1,5
133,3.42052,1.928,-1,5
134,3.42244,1.919,-1,5
135,3.42244,1.916,-1,5
136,3.42628,1.920,-1,5
137,3.42820,1.919,-1,5
138,3.43010,1.904,-1,5
139,3.43200,1.899,-1,5
140,3.43390,1.895,-1,5
141,3.43580,1.900,-1,5
142,3.43769,1.897,-1,5
143,3.43958,1.889,-1,5
144,3.44146,1.881,-1,5
145,3.44334,1.876,-1,5
146,3.44522,1.881,-1,5
147,3.44710,1.883,-1,5
148,3.44898,1.872,-1,5
149,3.45084,1.860,-1,5
150,3.45269,1.857,-1,5
151,3.45457,1.871,-1,5
152,3.45644,1.873,-1,5
153,3.45829,1.852,-1,5
154,3.46013,1.838,-1,5
155,3.46197,1.846,-1,5
156,3.46384,1.863,-1,5
157,3.46569,1.854,-1,5
158,3.46752,1.827,-1,5
159,3.46935,1.841,-1,5
160,3.47303,1.847,-1,5
161,3.47487,1.833,-1,5
162,3.47667,1.807,-1,5
163,3.47849,1.817,-1,5
164,3.48032,1.835,-1,5
165,3.48215,1.829,-1,5
166,3.48396,1.811,-1,5
167,3.48576,1.796,-1,5
168,3.48758,1.816,-1,5
169,3.48940,1.825,-1,5
170,3.49121,1.810,-1,5
171,3.49301,1.796,-1,5
172,3.49481,1.799,-1,5
173,3.49662,1.811,-1,5
174,3.49843,1.811,-1,5
175,3.50023,1.796,-1,5
176,3.50202,1.791,-1,5
177,3.50382,1.802,-1,5
178,3.50562,1.800,-1,5
179,3.50741,1.796,-1,5
180,3.50920,1.784,-1,5
181,3.51099,1.794,-1,5
182,3.51279,1.797,-1,5
183,3.51458,1.788,-1,5
184,3.51636,1.782,-1,5
185,3.51815,1.788,-1,5
186,3.51994,1.794,-1,5
187,3.52173,1.790,-1,5
188,3.52351,1.775,-1,5
189,3.52529,1.781,-1,5
190,3.52708,1.793,-1,5
191,3.52887,1.790,-1,5
192,3.53065,1.779,-1,5
193,3.53242,1.772,-1,5
194,3.53421,1.788,-1,5
195,3.53600,1.794,-1,5
196,3.53778,1.780,-1,5
197,3.53956,1.772,-1,5
198,3.54134,1.784,-1,5
199,3.54492,1.786,-1,5
200,3.54669,1.770,-1,5
201,3.54846,1.777,-1,5
202,3.55026,1.797,-1,5
203,3.55205,1.792,-1,5
204,3.55383,1.776,-1,5
205,3.55560,1.770,-1,5
206,3.55739,1.789,-1,5
207,3.55919,1.803,-1,5
208,3.56098,1.792,-1,5
209,3.56275,1.770,-1,5
210,3.56453,1.778,-1,5
211,3.56633,1.801,-1,5
212,3.56814,1.810,-1,5
213,3.56993,1.787,-1,5
214,3.57170,1.772,-1,5
215,3.57349,1.792,-1,5
216,3.57531,1.816,-1,5
217,3.57712,1.809,-1,5
218,3.57891,1.790,-1,5
219,3.58069,1.784,-1,5
220,3.58250,1.810,-1,5
221,3.58432,1.819,-1,5
222,3.58613,1.810,-1,5
223,3.58793,1.797,-1,5
224,3.58973,1.805,-1,5
225,3.59155,1.817,-1,5
226,3.59337,1.821,-1,5
227,3.59519,1.816,-1,5
228,3.59700,1.815,-1,5
229,3.59882,1.819,-1,5
230,3.60064,1.824,-1,5
231,3.60248,1.832,-1,5
232,3.60431,1.829,-1,5
233,3.60614,1.831,-1,5
234,3.60797,1.834,-1,5
235,3.60981,1.837,-1,5
236,3.61165,1.844,-1,5
237,3.61350,1.847,-1,5
238,3.61534,1.847,-1,5
239,3.61719,1.846,-1,5
240,3.61904,1.850,-1,5
241,3.62090,1.859,-1,5
242,3.62276,1.860,-1,5
243,3.62462,1.859,-1,5
244,3.62648,1.860,-1,5
245,3.62834,1.865,-1,5
246,3.63022,1.874,-1,5
247,3.63209,1.874,-1,5
248,3.63396,1.875,-1,5
249,3.63771,1.877,-1,5
250,3.63960,1.884,-1,5
251,3.64148,1.885,-1,5
252,3.64337,1.889,-1,5
253,3.64526,1.891,-1,5
254,3.64716,1.893,-1,5
255,3.64905,1.895,-1,5
256,3.65095,1.897,-1,5
257,3.65286,1.906,-1,5
258,3.65476,1.908,-1,5
259,3.65667,1.903,-1,5
260,3.65857,1.906,-1,5
261,3.66049,1.916,-1,5
262,3.66241,1.925,-1,5
263,3.66434,1.922,-1,5
264,3.66625,1.917,-1,5
265,3.66818,1.926,-1,5
266,3.67012,1.936,-1,5
267,3.67206,1.944,-1,5
268,3.67400,1.938,-1,5
269,3.67593,1.937,-1,5
270,3.67788,1.947,-1,5
271,3.67984,1.955,-1,5
272,3.68180,1.965,-1,5
273,3.68376,1.962,-1,5
274,3.68572,1.960,-1,5
275,3.68769,1.970,-1,5
276,3.68968,1.985,-1,5
277,3.69167,1.994,-1,5
278,3.69366,1.987,-1,5
279,3.69565,1.987,-1,5
280,3.69764,1.997,-1,5
281,3.69966,2.021,-1,5
282,3.70169,2.024,-1,5
283,3.70370,2.013,-1,5
284,3.70572,2.015,-1,5
285,3.70775,2.036,-1,5
286,3.70981,2.047,-1,5
287,3.71186,2.039,-1,5
288,3.71595,2.055,-1,5
289,3.71803,2.079,-1,5
290,3.72011,2.084,-1,5
291,3.72218,2.071,-1,5
292,3.72426,2.077,-1,5
293,3.72636,2.096,-1,5
294,3.72847,2.113,-1,5
295,3.73058,2.105,-1,5
296,3.73269,2.110,-1,5
297,3.73693,2.131,-1,5
298,3.73908,2.151,-1,5
299,3.74122,2.140,-1,5
300,3.74335,2.130,-1,5
301,3.74549,2.145,-1,5
302,3.74767,2.177,-1,5
303,3.74985,2.175,-1,5
304,3.75201,2.161,-1,5
305,3.75417,2.164,-1,5
306,3.75636,2.190,-1,5
307,3.75857,2.206,-1,5
308,3.76076,2.195,-1,5
309,3.76295,2.190,-1,5
310,3.76516,2.205,-1,5
311,3.76739,2.229,-1,5
312,3.76962,2.230,-1,5
313,3.77184,2.224,-1,5
314,3.77406,2.223,-1,5
315,3.77631,2.245,-1,5
316,3.77857,2.260,-1,5
317,3.78083,2.258,-1,5
318,3.78307,2.248,-1,5
319,3.78534,2.261,-1,5
320,3.78762,2.284,-1,5
321,3.78991,2.286,-1,5
322,3.79218,2.275,-1,5
323,3.79446,2.282,-1,5
324,3.79676,2.301,-1,5
325,3.79907,2.308,-1,5
326,3.80138,2.307,-1,5
327,3.80369,2.307,-1,5
328,3.80600,2.315,-1,5
329,3.80833,2.326,-1,5
330,3.81066,2.333,-1,5
331,3.81299,2.329,-1,5
332,3.81532,2.343,-1,5
333,3.82002,2.352,-1,5
334,3.82237,2.349,-1,5
335,3.82472,2.355,-1,5
336,3.82708,2.358,-1,5
337,3.82944,2.363,-1,5
338,3.83181,2.369,-1,5
339,3.83419,2.375,-1,5
340,3.83656,2.375,-1,5
341,3.83893,2.371,-1,5
342,3.84132,2.387,-1,5
343,3.84371,2.396,-1,5
344,3.84610,2.387,-1,5
345,3.84849,2.389,-1,5
346,3.85089,2.401,-1,5
347,3.85330,2.408,-1,5
348,3.85571,2.410,-1,5
349,3.85812,2.409,-1,5
350,3.86053,2.414,-1,5
351,3.86296,2.424,-1,5
352,3.86539,2.432,-1,5
353,3.86782,2.428,-1,5
354,3.87025,2.434,-1,5
355,3.87269,2.439,-1,5
356,3.87514,2.447,-1,5
357,3.87758,2.448,-1,5
358,3.88004,2.455,-1,5
359,3.88250,2.459,-1,5
360,3.88496,2.462,-1,5
361,3.88743,2.468,-1,5
362,3.88990,2.476,-1,5
363,3.89238,2.477,-1,5
364,3.89486,2.480,-1,5
365,3.89735,2.487,-1,5
366,3.89984,2.492,-1,5
367,3.90233,2.495,-1,5
368,3.90483,2.496,-1,5
369,3.90733,2.502,-1,5
370,3.90984,2.506,-1,5
371,3.91235,2.515,-1,5
372,3.91487,2.515,-1,5
373,3.91739,2.518,-1,5
374,3.91991,2.524,-1,5
375,3.92244,2.529,-1,5
376,3.92750,2.537,-1,5
377,3.93004,2.540,-1,5
378,3.93258,2.539,-1,5
379,3.93258,2.544,-1,5
380,3.93768,2.552,-1,5
381,3.94023,2.555,-1,5
382,3.94279,2.557,-1,5
383,3.94535,2.560,-1,5
384,3.94791,2.561,-1,5
385,3.95048,2.568,-1,5
386,3.95305,2.571,-1,5
387,3.95562,2.574,-1,5
388,3.95820,2.576,-1,5
389,3.96078,2.579,-1,5
390,3.96336,2.581,-1,5
391,3.96595,2.590,-1,5
392,3.96854,2.591,-1,5
393,3.97113,2.586,-1,5
394,3.97372,2.593,-1,5
395,3.97632,2.599,-1,5
396,3.97892,2.600,-1,5
397,3.98152,2.598,-1,5
398,3.98412,2.601,-1,5
399,3.98672,2.604,-1,5
400,3.98933,2.605,-1,5
401,3.99193,2.606,-1,5
402,3.99454,2.608,-1,5
403,3.99715,2.605,-1,5
404,3.99976,2.609,-1,5
405,4.00236,2.607,-1,5
406,4.00497,2.608,-1,5
407,4.00758,2.609,-1,5
408,4.01019,2.608,-1,5
409,4.01279,2.608,-1,5
410,4.01540,2.608,-1,5
411,4.01801,2.605,-1,5
412,4.02061,2.603,-1,5
413,4.02322,2.609,-1,5
414,4.02582,2.599,-1,5
415,4.03102,2.601,-1,5
416,4.03362,2.597,-1,5
417,4.03621,2.595,-1,5
418,4.03621,2.592,-1,5
419,4.03881,2.592,-1,5
420,4.04398,2.586,-1,5
421,4.04398,2.585,-1,5
422,4.04915,2.580,-1,5
423,4.05172,2.577,-1,5
424,4.05430,2.577,-1,5
425,4.05687,2.568,-1,5
426,4.05943,2.564,-1,5
427,4.06200,2.565,-1,5
428,4.06456,2.558,-1,5
429,4.06711,2.552,-1,5
430,4.06966,2.552,-1,5
431,4.07221,2.546,-1,5
432,4.07474,2.538,-1,5
433,4.07728,2.535,-1,5
434,4.07981,2.533,-1,5
435,4.08234,2.526,-1,5
436,4.08486,2.518,-1,5
437,4.08737,2.517,-1,5
438,4.08988,2.509,-1,5
439,4.09239,2.509,-1,5
440,4.09489,2.502,-1,5
441,4.09739,2.496,-1,5
442,4.09988,2.491,-1,5
443,4.10237,2.485,-1,5
444,4.10484,2.477,-1,5
445,4.10732,2.477,-1,5
446,4.10979,2.472,-1,5
447,4.11225,2.459,-1,5
448,4.11471,2.456,-1,5
449,4.11716,2.456,-1,5
450,4.11961,2.448,-1,5
451,4.12205,2.436,-1,5
452,4.12448,2.433,-1,5
453,4.12691,2.429,-1,5
454,4.12933,2.423,-1,5
455,4.13175,2.415,-1,5
456,4.13415,2.401,-1,5
457,4.13656,2.401,-1,5
458,4.13895,2.392,-1,5
459,4.14135,2.392,-1,5
460,4.14373,2.384,-1,5
461,4.14611,2.380,-1,5
462,4.15085,2.367,-1,5
463,4.15321,2.364,-1,5
464,4.15557,2.358,-1,5
465,4.15792,2.350,-1,5
466,4.16026,2.341,-1,5
467,4.16260,2.341,-1,5
468,4.16494,2.337,-1,5
469,4.16727,2.327,-1,5
470,4.16959,2.319,-1,5
471,4.17190,2.319,-1,5
472,4.17422,2.318,-1,5
473,4.17653,2.308,-1,5
474,4.17883,2.302,-1,5
475,4.18113,2.299,-1,5
476,4.18342,2.292,-1,5
477,4.18571,2.288,-1,5
478,4.18800,2.285,-1,5
479,4.19027,2.279,-1,5
480,4.19255,2.274,-1,5
481,4.19482,2.272,-1,5
482,4.19709,2.267,-1,5
483,4.19935,2.261,-1,5
484,4.20161,2.259,-1,5
485,4.20386,2.256,-1,5
486,4.20611,2.248,-1,5
487,4.20836,2.245,-1,5
488,4.21060,2.248,-1,5
489,4.21285,2.243,-1,5
490,4.21508,2.235,-1,5
491,4.21731,2.232,-1,5
492,4.21955,2.239,-1,5
493,4.22178,2.232,-1,5
494,4.22401,2.227,-1,5
495,4.22624,2.225,-1,5
496,4.22846,2.229,-1,5
497,4.23069,2.227,-1,5
498,4.23292,2.227,-1,5
499,4.23514,2.221,-1,5
500,4.23736,2.221,-1,5
501,4.23958,2.222,-1,5
502,4.24181,2.226,-1,5
503,4.24624,2.216,-1,5
504,4.24847,2.224,-1,5
505,4.25070,2.228,-1,5
506,4.25292,2.224,-1,5
507,4.25514,2.219,-1,5
508,4.25737,2.229,-1,5
509,4.25960,2.229,-1,5
510,4.26182,2.227,-1,5
511,4.26405,2.227,-1,5
512,4.26629,2.237,-1,5
513,4.26852,2.233,-1,5
514,4.27076,2.237,-1,5
515,4.27299,2.237,-1,5
516,4.27524,2.245,-1,5
517,4.27749,2.247,-1,5
518,4.27973,2.248,-1,5
519,4.28198,2.249,-1,5
520,4.28424,2.255,-1,5
521,4.28650,2.262,-1,5
522,4.28877,2.266,-1,5
523,4.29103,2.266,-1,5
524,4.29330,2.267,-1,5
525,4.29558,2.278,-1,5
526,4.29786,2.285,-1,5
527,4.30015,2.284,-1,5
528,4.30243,2.284,-1,5
529,4.30473,2.301,-1,5
530,4.30704,2.303,-1,5
531,4.30934,2.301,-1,5
532,4.31164,2.305,-1,5
533,4.31396,2.321,-1,5
534,4.31628,2.319,-1,5
535,4.31861,2.326,-1,5
536,4.32094,2.329,-1,5
537,4.32327,2.337,-1,5
538,4.32562,2.341,-1,5
539,4.32796,2.349,-1,5
540,4.33032,2.350,-1,5
541,4.33267,2.356,-1,5
542,4.33741,2.372,-1,5
543,4.33978,2.369,-1,5
544,4.34216,2.380,-1,5
545,4.34454,2.386,-1,5
546,4.34693,2.391,-1,5
547,4.34933,2.394,-1,5
548,4.35173,2.403,-1,5
549,4.35414,2.407,-1,5
550,4.35654,2.408,-1,5
551,4.35896,2.414,-1,5
552,4.36138,2.426,-1,5
553,4.36381,2.426,-1,5
554,4.36624,2.432,-1,5
555,4.36868,2.447,-1,5
556,4.37113,2.447,-1,5
557,4.37357,2.448,-1,5
558,4.37603,2.456,-1,5
559,4.37849,2.458,-1,5
560,4.38095,2.463,-1,5
561,4.38342,2.472,-1,5
562,4.38590,2.475,-1,5
563,4.38838,2.477,-1,5
564,4.39086,2.485,-1,5
565,4.39335,2.491,-1,5
566,4.39584,2.490,-1,5
567,4.39834,2.500,-1,5
568,4.40085,2.505,-1,5
569,4.40335,2.507,-1,5
570,4.40586,2.508,-1,5
571,4.40838,2.518,-1,5
572,4.41090,2.520,-1,5
573,4.41342,2.519,-1,5
574,4.41594,2.525,-1,5
575,4.41848,2.532,-1,5
576,4.42101,2.532,-1,5
577,4.42354,2.536,-1,5
578,4.42608,2.539,-1,5
579,4.42863,2.542,-1,5
580,4.43117,2.546,-1,5
581,4.43372,2.547,-1,5
582,4.43627,2.551,-1,5
583,4.43882,2.554,-1,5
584,4.44138,2.555,-1,5
585,4.44650,2.566,-1,5
586,4.44906,2.565,-1,5
587,4.44906,2.562,-1,5
588,4.45419,2.568,-1,5
589,4.45419,2.568,-1,5
590,4.45677,2.571,-1,5
591,4.45934,2.571,-1,5
592,4.46449,2.577,-1,5
593,4.46706,2.575,-1,5
594,4.46964,2.578,-1,5
595,4.47222,2.578,-1,5
596,4.47480,2.579,-1,5
597,4.47738,2.584,-1,5
598,4.47996,2.582,-1,5
599,4.48255,2.584,-1,5
600,4.48513,2.585,-1,5
601,4.48772,2.585,-1,5
602,4.49030,2.583,-1,5
603,4.49289,2.589,-1,5
604,4.49548,2.588,-1,5
605,4.49806,2.587,-1,5
606,4.50065,2.586,-1,5
607,4.50324,2.589,-1,5
608,4.50583,2.593,-1,5
609,4.50842,2.587,-1,5
610,4.51101,2.589,-1,5
611,4.51360,2.590,-1,5
612,4.51619,2.591,-1,5
613,4.51878,2.592,-1,5
614,4.52137,2.593,-1,5
615,4.52396,2.589,-1,5
616,4.52655,2.591,-1,5
617,4.52914,2.589,-1,5
618,4.53173,2.591,-1,5
619,4.53433,2.593,-1,5
620,4.53691,2.586,-1,5
621,4.53950,2.590,-1,5
622,4.54209,2.591,-1,5
623,4.54468,2.590,-1,5
624,4.54727,2.585,-1,5
625,4.54986,2.590,-1,5
626,4.55245,2.589,-1,5
627,4.55504,2.589,-1,5
628,4.55762,2.586,-1,5
629,4.56021,2.590,-1,5
630,4.56280,2.586,-1,5
631,4.56539,2.588,-1,5
632,4.56798,2.589,-1,5
633,4.57056,2.587,-1,5
634,4.57315,2.587,-1,5
635,4.57574,2.588,-1,5
636,4.57832,2.592,-1,5
637,4.58092,2.584,-1,5
638,4.58350,2.584,-1,5
639,4.58868,2.593,-1,5
640,4.59127,2.589,-1,5
641,4.59385,2.585,-1,5
642,4.59644,2.590,-1,5
643,4.59903,2.588,-1,5
644,4.60162,2.591,-1,5
645,4.60421,2.591,-1,5
646,4.60680,2.590,-1,5
647,4.60939,2.589,-1,5
648,4.61198,2.591,-1,5
649,4.61458,2.595,-1,5
650,4.61717,2.594,-1,5
651,4.61976,2.592,-1,5
652,4.62235,2.593,-1,5
653,4.62495,2.595,-1,5
654,4.62755,2.600,-1,5
655,4.63015,2.599,-1,5
656,4.63274,2.593,-1,5
657,4.63534,2.602,-1,5
658,4.63795,2.603,-1,5
659,4.64054,2.598,-1,5
660,4.64315,2.603,-1,5
661,4.64575,2.604,-1,5
662,4.64836,2.607,-1,5
663,4.65096,2.604,-1,5
664,4.65357,2.611,-1,5
665,4.65618,2.606,-1,5
666,4.65879,2.612,-1,5
667,4.66140,2.610,-1,5
668,4.66401,2.612,-1,5
669,4.66663,2.616,-1,5
670,4.66924,2.613,-1,5
671,4.67186,2.615,-1,5
672,4.67448,2.619,-1,5
673,4.67710,2.619,-1,5
674,4.67971,2.616,-1,5
675,4.68234,2.623,-1,5
676,4.68496,2.621,-1,5
677,4.68758,2.620,-1,5
678,4.69020,2.623,-1,5
679,4.69283,2.625,-1,5
680,4.69545,2.623,-1,5
681,4.69807,2.625,-1,5
682,4.70070,2.625,-1,5
683,4.70332,2.624,-1,5
684,4.70857,2.625,-1,5
685,4.71120,2.626,-1,5
686,4.71382,2.627,-1,5
687,4.71645,2.623,-1,5
688,4.71907,2.626,-1,5
689,4.72170,2.626,-1,5
690,4.72432,2.622,-1,5
691,4.72694,2.622,-1,5
692,4.72957,2.626,-1,5
693,4.73219,2.624,-1,5
694,4.73481,2.618,-1,5
695,4.73743,2.621,-1,5
696,4.74005,2.619,-1,5
697,4.74267,2.618,-1,5
698,4.74528,2.616,-1,5
699,4.74790,2.613,-1,5
700,4.75051,2.609,-1,5
701,4.75311,2.606,-1,5
702,4.75572,2.609,-1,5
703,4.75833,2.605,-1,5
704,4.76092,2.599,-1,5
705,4.76352,2.595,-1,5
706,4.76611,2.594,-1,5
707,4.76871,2.593,-1,5
708,4.77129,2.587,-1,5
709,4.77387,2.580,-1,5
710,4.77645,2.581,-1,5
711,4.77903,2.575,-1,5
712,4.78160,2.568,-1,5
713,4.78416,2.566,-1,5
714,4.78673,2.563,-1,5
715,4.78928,2.556,-1,5
716,4.79183,2.552,-1,5
717,4.79438,2.550,-1,5
718,4.79693,2.540,-1,5
719,4.79946,2.537,-1,5
720,4.80199,2.532,-1,5
721,4.80452,2.528,-1,5
722,4.80704,2.522,-1,5
723,4.80956,2.515,-1,5
724,4.81207,2.509,-1,5
725,4.81457,2.507,-1,5
726,4.81707,2.501,-1,5
727,4.81957,2.491,-1,5
728,4.82205,2.483,-1,5
729,4.82453,2.483,-1,5
730,4.82701,2.465,-1,5
731,4.83194,2.462,-1,5
732,4.83439,2.456,-1,5
733,4.83684,2.448,-1,5
734,4.83928,2.439,-1,5
735,4.84172,2.441,-1,5
736,4.84415,2.431,-1,5
737,4.84657,2.423,-1,5
738,4.84899,2.416,-1,5
739,4.85140,2.412,-1,5
740,4.85381,2.407,-1,5
741,4.85621,2.400,-1,5
742,4.85860,2.389,-1,5
743,4.86099,2.392,-1,5
744,4.86337,2.384,-1,5
745,4.86575,2.375,-1,5
746,4.86812,2.368,-1,5
747,4.87048,2.368,-1,5
748,4.87285,2.365,-1,5
749,4.87520,2.350,-1,5
750,4.87755,2.348,-1,5
751,4.87990,2.350,-1,5
752,4.88224,2.341,-1,5
753,4.88457,2.332,-1,5
754,4.88690,2.334,-1,5
755,4.88923,2.325,-1,5
756,4.89155,2.323,-1,5
757,4.89387,2.318,-1,5
758,4.89618,2.314,-1,5
759,4.89849,2.310,-1,5
760,4.90080,2.307,-1,5
761,4.90310,2.304,-1,5
762,4.90540,2.297,-1,5
763,4.90770,2.296,-1,5
764,4.90999,2.296,-1,5
765,4.91228,2.290,-1,5
766,4.91457,2.281,-1,5
767,4.91685,2.287,-1,5
768,4.91914,2.289,-1,5
769,4.92142,2.279,-1,5
770,4.92369,2.271,-1,5
771,4.92597,2.279,-1,5
772,4.92825,2.280,-1,5
773,4.93053,2.269,-1,5
774,4.93280,2.269,-1,5
775,4.93734,2.275,-1,5
776,4.93734,2.272,-1,5
777,4.93962,2.270,-1,5
778,4.94189,2.270,-1,5
779,4.94643,2.272,-1,5
780,4.94870,2.275,-1,5
781,4.95097,2.270,-1,5
782,4.95324,2.269,-1,5
783,4.95552,2.274,-1,5
784,4.95780,2.279,-1,5
785,4.96007,2.275,-1,5
786,4.96234,2.273,-1,5
787,4.96462,2.281,-1,5
788,4.96691,2.285,-1,5
789,4.96919,2.281,-1,5
790,4.97147,2.279,-1,5
791,4.97376,2.292,-1,5
792,4.97606,2.293,-1,5
793,4.97835,2.290,-1,5
794,4.98063,2.289,-1,5
795,4.98294,2.303,-1,5
796,4.98524,2.303,-1,5
797,4.98754,2.303,-1,5
798,4.98985,2.307,-1,5
799,4.99216,2.311,-1,5
800,4.99448,2.318,-1,5
801,4.99680,2.324,-1,5
802,4.99912,2.318,-1,5
803,5.00145,2.329,-1,5
804,5.00379,2.335,-1,5
805,5.00613,2.340,-1,5
806,5.00846,2.339,-1,5
807,5.01081,2.348,-1,5
808,5.01317,2.356,-1,5
809,5.01553,2.359,-1,5
810,5.01789,2.361,-1,5
811,5.02026,2.372,-1,5
812,5.02264,2.377,-1,5
813,5.02502,2.383,-1,5
814,5.02741,2.388,-1,5
815,5.02980,2.395,-1,5
816,5.03220,2.400,-1,5
817,5.03461,2.408,-1,5
818,5.03703,2.414,-1,5
819,5.03945,2.421,-1,5
820,5.04188,2.430,-1,5
821,5.04675,2.438,-1,5
822,5.04920,2.451,-1,5
823,5.05166,2.460,-1,5
824,5.05413,2.465,-1,5
825,5.05660,2.469,-1,5
826,5.05908,2.481,-1,5
827,5.06156,2.488,-1,5
828,5.06406,2.494,-1,5
829,5.06656,2.503,-1,5
830,5.06908,2.512,-1,5
831,5.07159,2.516,-1,5
832,5.07412,2.526,-1,5
833,5.07665,2.533,-1,5
834,5.07919,2.540,-1,5
835,5.08174,2.551,-1,5
836,5.08430,2.555,-1,5
837,5.08686,2.564,-1,5
838,5.08943,2.572,-1,5
839,5.09201,2.582,-1,5
840,5.09460,2.582,-1,5
841,5.09719,2.596,-1,5
842,5.09980,2.605,-1,5
843,5.10241,2.607,-1,5
844,5.10502,2.619,-1,5
845,5.10765,2.624,-1,5
846,5.11028,2.631,-1,5
847,5.11292,2.636,-1,5
848,5.11557,2.650,-1,5
849,5.11822,2.653,-1,5
850,5.12088,2.659,-1,5
851,5.12355,2.669,-1,5
852,5.12622,2.673,-1,5
853,5.12890,2.680,-1,5
854,5.13159,2.689,-1,5
855,5.13428,2.695,-1,5
856,5.13698,2.699,-1,5
857,5.13969,2.705,-1,5
858,5.14240,2.714,-1,5
859,5.14512,2.720,-1,5
860,5.14785,2.726,-1,5
861,5.15057,2.726,-1,5
862,5.15331,2.739,-1,5
863,5.15605,2.743,-1,5
864,5.15880,2.743,-1,5
865,5.16155,2.749,-1,5
866,5.16430,2.753,-1,5
867,5.16706,2.760,-1,5
868,5.16982,2.764,-1,5
869,5.17259,2.765,-1,5
870,5.17535,2.766,-1,5
871,5.17813,2.772,-1,5
872,5.18090,2.776,-1,5
873,5.18368,2.779,-1,5
