cnt,pos,speed,Dir,Force,
1,0,2.8777,-1,4
2,0.00281,2.8662,-1,4
3,0.00559998,2.8537,-1,4
4,0.00837994,2.8404,-1,4
5,0.0111499,2.8267,-1,4
6,0.0139,2.8138,-1,4
7,0.0166399,2.8009,-1,4
8,0.0193701,2.7878,-1,4
9,0.0220799,2.7745,-1,4
10,0.02478,2.7606,-1,4
11,0.0274601,2.7464,-1,4
12,0.0301399,2.7327,-1,4
13,0.0327899,2.7192,-1,4
14,0.03543,2.7054,-1,4
15,0.0380599,2.6916,-1,4
16,0.0406799,2.6774,-1,4
17,0.0432699,2.6633,-1,4
18,0.0458601,2.6491,-1,4
19,0.04843,2.6352,-1,4
20,0.0509899,2.6211,-1,4
21,0.05353,2.6069,-1,4
22,0.0560601,2.5924,-1,4
23,0.0585699,2.5783,-1,4
24,0.06108,2.5644,-1,4
25,0.06356,2.5499,-1,4
26,0.06603,2.5352,-1,4
27,0.06848,2.5209,-1,4
28,0.07093,2.507,-1,4
29,0.07335,2.4921,-1,4
30,0.0757599,2.4773,-1,4
31,0.07816,2.4632,-1,4
32,0.08055,2.449,-1,4
33,0.0829201,2.4342,-1,4
34,0.0852699,2.4198,-1,4
35,0.08762,2.406,-1,4
36,0.0899501,2.3919,-1,4
37,0.0922599,2.3775,-1,4
38,0.0945599,2.3632,-1,4
39,0.0968499,2.3494,-1,4
40,0.0991199,2.3355,-1,4
41,0.10138,2.3214,-1,4
42,0.10362,2.3072,-1,4
43,0.10585,2.2936,-1,4
44,0.10807,2.2799,-1,4
45,0.11028,2.2662,-1,4
46,0.11248,2.2531,-1,4
47,0.11466,2.2404,-1,4
48,0.11684,2.2276,-1,4
49,0.119,2.215,-1,4
50,0.12114,2.2026,-1,4
51,0.12328,2.1905,-1,4
52,0.12541,2.1785,-1,4
53,0.12752,2.1665,-1,4
54,0.12961,2.1542,-1,4
55,0.13376,2.1403,-1,4
56,0.13582,2.1264,-1,4
57,0.13788,2.1132,-1,4
58,0.13992,2.1007,-1,4
59,0.14197,2.0896,-1,4
60,0.14401,2.0787,-1,4
61,0.14603,2.0672,-1,4
62,0.14804,2.0555,-1,4
63,0.15004,2.0444,-1,4
64,0.15204,2.035,-1,4
65,0.15404,2.0279,-1,4
66,0.15603,2.021,-1,4
67,0.158,2.0128,-1,4
68,0.15997,2.0047,-1,4
69,0.16194,1.9968,-1,4
70,0.16391,1.9889,-1,4
71,0.16587,1.9815,-1,4
72,0.16782,1.9757,-1,4
73,0.16977,1.9709,-1,4
74,0.17173,1.966,-1,4
75,0.17368,1.9614,-1,4
76,0.17563,1.9574,-1,4
77,0.17757,1.9549,-1,4
78,0.17952,1.9531,-1,4
79,0.18147,1.951,-1,4
80,0.18342,1.9501,-1,4
81,0.18537,1.9504,-1,4
82,0.18733,1.9509,-1,4
83,0.18928,1.9512,-1,4
84,0.19124,1.9518,-1,4
85,0.19321,1.9529,-1,4
86,0.19517,1.9548,-1,4
87,0.19714,1.957,-1,4
88,0.19912,1.96,-1,4
89,0.20111,1.9636,-1,4
90,0.2031,1.9679,-1,4
91,0.2051,1.9723,-1,4
92,0.2071,1.9775,-1,4
93,0.21115,1.9846,-1,4
94,0.21115,1.9913,-1,4
95,0.21319,1.9988,-1,4
96,0.21524,2.0074,-1,4
97,0.21731,2.0173,-1,4
98,0.21939,2.0286,-1,4
99,0.22359,2.0413,-1,4
100,0.22573,2.0552,-1,4
101,0.22788,2.0705,-1,4
102,0.23004,2.0864,-1,4
103,0.23222,2.1021,-1,4
104,0.23443,2.1201,-1,4
105,0.23666,2.1393,-1,4
106,0.23891,2.159,-1,4
107,0.24118,2.1796,-1,4
108,0.24348,2.1997,-1,4
109,0.2458,2.2205,-1,4
110,0.24814,2.2419,-1,4
111,0.25051,2.2641,-1,4
112,0.25291,2.2872,-1,4
113,0.25534,2.3114,-1,4
114,0.25779,2.3362,-1,4
115,0.26027,2.3611,-1,4
116,0.26277,2.3864,-1,4
117,0.26531,2.4128,-1,4
118,0.26788,2.44,-1,4
119,0.27047,2.4675,-1,4
120,0.2731,2.4954,-1,4
121,0.27576,2.5241,-1,4
122,0.27844,2.5558,-1,4
123,0.2839,2.5878,-1,4
124,0.2839,2.6199,-1,4
125,0.28668,2.6496,-1,4
126,0.28948,2.6798,-1,4
127,0.29232,2.7095,-1,4
128,0.29518,2.7389,-1,4
129,0.29807,2.7689,-1,4
130,0.30099,2.7984,-1,4
131,0.30395,2.8281,-1,4
132,0.30693,2.855,-1,4
133,0.30993,2.881,-1,4
134,0.31297,2.907,-1,4
135,0.31603,2.9358,-1,4
136,0.31912,2.9642,-1,4
137,0.32224,2.9924,-1,4
138,0.32538,3.0206,-1,4
139,0.32854,3.0475,-1,4
140,0.33173,3.0745,-1,4
141,0.33495,3.1001,-1,4
142,0.33818,3.1255,-1,4
143,0.34144,3.1508,-1,4
144,0.34472,3.1748,-1,4
145,0.34801,3.1976,-1,4
146,0.35132,3.2203,-1,4
147,0.35466,3.2421,-1,4
148,0.35801,3.263,-1,4
149,0.36138,3.2833,-1,4
150,0.36476,3.3026,-1,4
151,0.36816,3.3214,-1,4
152,0.37157,3.3392,-1,4
153,0.37844,3.3573,-1,4
154,0.38189,3.3743,-1,4
155,0.38535,3.3912,-1,4
156,0.38882,3.4065,-1,4
157,0.3923,3.4212,-1,4
158,0.39579,3.4349,-1,4
159,0.39928,3.4478,-1,4
160,0.40278,3.4597,-1,4
161,0.40629,3.4707,-1,4
162,0.40981,3.4806,-1,4
163,0.41333,3.4887,-1,4
164,0.41685,3.4967,-1,4
165,0.42038,3.5037,-1,4
166,0.42392,3.5099,-1,4
167,0.42745,3.5151,-1,4
168,0.43099,3.5205,-1,4
169,0.43454,3.5253,-1,4
170,0.43808,3.5296,-1,4
171,0.44163,3.5332,-1,4
172,0.44518,3.5369,-1,4
173,0.44873,3.5399,-1,4
174,0.45228,3.5425,-1,4
175,0.45583,3.5446,-1,4
176,0.45938,3.5466,-1,4
177,0.46293,3.5485,-1,4
178,0.46649,3.5496,-1,4
179,0.47004,3.5503,-1,4
180,0.47359,3.551,-1,4
181,0.47714,3.5514,-1,4
182,0.48069,3.5514,-1,4
183,0.48424,3.5511,-1,4
184,0.48779,3.5508,-1,4
185,0.49133,3.5498,-1,4
186,0.49487,3.5487,-1,4
187,0.49841,3.5476,-1,4
188,0.50548,3.5459,-1,4
189,0.50902,3.544,-1,4
190,0.50902,3.5419,-1,4
191,0.51255,3.5401,-1,4
192,0.51608,3.5379,-1,4
193,0.5196,3.5355,-1,4
194,0.52312,3.5325,-1,4
195,0.52663,3.5297,-1,4
196,0.53014,3.5268,-1,4
197,0.53365,3.5234,-1,4
198,0.53715,3.5199,-1,4
199,0.54065,3.5162,-1,4
200,0.54414,3.512,-1,4
201,0.54762,3.5071,-1,4
202,0.55109,3.5018,-1,4
203,0.55456,3.4964,-1,4
204,0.55803,3.4909,-1,4
205,0.56149,3.4853,-1,4
206,0.56493,3.4789,-1,4
207,0.56838,3.4725,-1,4
208,0.57181,3.4658,-1,4
209,0.57524,3.4591,-1,4
210,0.57866,3.4521,-1,4
211,0.58207,3.4452,-1,4
212,0.58548,3.4382,-1,4
213,0.58887,3.4311,-1,4
214,0.59226,3.4234,-1,4
215,0.59564,3.4156,-1,4
216,0.59902,3.4083,-1,4
217,0.60238,3.4004,-1,4
218,0.60574,3.3926,-1,4
219,0.60908,3.3845,-1,4
220,0.61575,3.3758,-1,4
221,0.61908,3.367,-1,4
222,0.62239,3.3579,-1,4
223,0.6257,3.3486,-1,4
224,0.629,3.3394,-1,4
225,0.63228,3.3303,-1,4
226,0.63556,3.3208,-1,4
227,0.63883,3.3114,-1,4
228,0.6421,3.3021,-1,4
229,0.64535,3.2928,-1,4
230,0.64859,3.2837,-1,4
231,0.65183,3.275,-1,4
232,0.65506,3.2662,-1,4
233,0.65827,3.2569,-1,4
234,0.66148,3.2481,-1,4
235,0.66467,3.2388,-1,4
236,0.66786,3.2296,-1,4
237,0.67104,3.2202,-1,4
238,0.6742,3.2108,-1,4
239,0.67736,3.2013,-1,4
240,0.68051,3.192,-1,4
241,0.68365,3.1819,-1,4
242,0.68678,3.1721,-1,4
243,0.6899,3.1627,-1,4
244,0.693,3.1529,-1,4
245,0.6961,3.1429,-1,4
246,0.69919,3.1334,-1,4
247,0.70227,3.1235,-1,4
248,0.70534,3.1133,-1,4
249,0.70839,3.1031,-1,4
250,0.71144,3.093,-1,4
251,0.71448,3.0827,-1,4
252,0.7175,3.0722,-1,4
253,0.72051,3.0605,-1,4
254,0.72351,3.0485,-1,4
255,0.7265,3.0378,-1,4
256,0.72948,3.0254,-1,4
257,0.73245,3.0144,-1,4
258,0.73541,3.0021,-1,4
259,0.73835,2.9908,-1,4
260,0.7442,2.978,-1,4
261,0.74711,2.9655,-1,4
262,0.75001,2.9528,-1,4
263,0.75289,2.9411,-1,4
264,0.75577,2.9297,-1,4
265,0.75863,2.9169,-1,4
266,0.76148,2.905,-1,4
267,0.76432,2.892,-1,4
268,0.76714,2.8803,-1,4
269,0.76996,2.8675,-1,4
270,0.77276,2.8559,-1,4
271,0.77555,2.8439,-1,4
272,0.77833,2.8323,-1,4
273,0.78109,2.8203,-1,4
274,0.78385,2.8085,-1,4
275,0.7866,2.7968,-1,4
276,0.78933,2.785,-1,4
277,0.79205,2.7732,-1,4
278,0.79475,2.7614,-1,4
279,0.79745,2.7493,-1,4
280,0.80013,2.7372,-1,4
281,0.8028,2.7256,-1,4
282,0.80546,2.7135,-1,4
283,0.80811,2.7017,-1,4
284,0.81074,2.6894,-1,4
285,0.81337,2.6772,-1,4
286,0.81598,2.6652,-1,4
287,0.81858,2.6532,-1,4
288,0.82117,2.6412,-1,4
289,0.82374,2.6295,-1,4
290,0.82631,2.6178,-1,4
291,0.82886,2.6057,-1,4
292,0.83141,2.5944,-1,4
293,0.83394,2.5831,-1,4
294,0.83646,2.5718,-1,4
295,0.83898,2.561,-1,4
296,0.84148,2.5501,-1,4
297,0.84397,2.5392,-1,4
298,0.84645,2.5283,-1,4
299,0.84892,2.5179,-1,4
300,0.85138,2.5075,-1,4
301,0.85384,2.4978,-1,4
302,0.85628,2.4873,-1,4
303,0.85871,2.4774,-1,4
304,0.86114,2.468,-1,4
305,0.86356,2.4587,-1,4
306,0.86597,2.4489,-1,4
307,0.86837,2.4397,-1,4
308,0.87077,2.4316,-1,4
309,0.87316,2.423,-1,4
310,0.87554,2.4151,-1,4
311,0.87793,2.4079,-1,4
312,0.8803,2.4012,-1,4
313,0.88267,2.3946,-1,4
314,0.88503,2.3885,-1,4
315,0.8874,2.3832,-1,4
316,0.89212,2.3788,-1,4
317,0.89449,2.3754,-1,4
318,0.89685,2.3718,-1,4
319,0.89922,2.3696,-1,4
320,0.89922,2.368,-1,4
321,0.90158,2.3663,-1,4
322,0.90395,2.3659,-1,4
323,0.90633,2.3667,-1,4
324,0.90871,2.3681,-1,4
325,0.9111,2.3699,-1,4
326,0.91589,2.3741,-1,4
327,0.9183,2.3789,-1,4
328,0.92072,2.3847,-1,4
329,0.92316,2.3913,-1,4
330,0.9256,2.3995,-1,4
331,0.92806,2.4089,-1,4
332,0.93053,2.4189,-1,4
333,0.93302,2.4302,-1,4
334,0.93553,2.4432,-1,4
335,0.93806,2.457,-1,4
336,0.9406,2.4708,-1,4
337,0.94316,2.4857,-1,4
338,0.94574,2.5021,-1,4
339,0.94835,2.5195,-1,4
340,0.95098,2.5374,-1,4
341,0.95363,2.5568,-1,4
342,0.95631,2.5778,-1,4
343,0.95902,2.5992,-1,4
344,0.96175,2.6217,-1,4
345,0.96451,2.6456,-1,4
346,0.96731,2.6709,-1,4
347,0.97013,2.697,-1,4
348,0.97299,2.7243,-1,4
349,0.97588,2.7527,-1,4
350,0.9788,2.7823,-1,4
351,0.98176,2.8163,-1,4
352,0.98475,2.8477,-1,4
353,0.98778,2.8802,-1,4
354,0.99085,2.9135,-1,4
355,0.99395,2.9477,-1,4
356,0.9971,2.9825,-1,4
357,1.00028,3.0224,-1,4
358,1.00676,3.0623,-1,4
359,1.01006,3.1032,-1,4
360,1.0134,3.145,-1,4
361,1.01677,3.1834,-1,4
362,1.02019,3.2257,-1,4
363,1.02365,3.2683,-1,4
364,1.02714,3.3111,-1,4
365,1.03068,3.3541,-1,4
366,1.03425,3.3974,-1,4
367,1.03786,3.4364,-1,4
368,1.04151,3.4758,-1,4
369,1.0452,3.5146,-1,4
370,1.04893,3.5531,-1,4
371,1.05269,3.5915,-1,4
372,1.05649,3.6294,-1,4
373,1.06032,3.6671,-1,4
374,1.06419,3.7043,-1,4
375,1.06809,3.7411,-1,4
376,1.07203,3.7774,-1,4
377,1.07599,3.8128,-1,4
378,1.07999,3.8475,-1,4
379,1.08402,3.8816,-1,4
380,1.08808,3.9149,-1,4
381,1.09216,3.9475,-1,4
382,1.09628,3.9797,-1,4
383,1.10043,4.0109,-1,4
384,1.10459,4.0409,-1,4
385,1.10879,4.07,-1,4
386,1.113,4.0974,-1,4
387,1.11724,4.1243,-1,4
388,1.12149,4.15,-1,4
389,1.12577,4.1749,-1,4
390,1.13006,4.1986,-1,4
391,1.13437,4.2209,-1,4
392,1.1387,4.2413,-1,4
393,1.14303,4.2607,-1,4
394,1.14738,4.2803,-1,4
395,1.15175,4.2973,-1,4
396,1.15612,4.3136,-1,4
397,1.1605,4.3284,-1,4
398,1.16489,4.3416,-1,4
399,1.16928,4.3528,-1,4
400,1.17367,4.3626,-1,4
401,1.17808,4.3717,-1,4
402,1.18689,4.3803,-1,4
403,1.1913,4.3874,-1,4
404,1.19571,4.3918,-1,4
405,1.20012,4.3963,-1,4
406,1.20453,4.3998,-1,4
407,1.20894,4.4027,-1,4
408,1.21335,4.4049,-1,4
409,1.21775,4.4062,-1,4
410,1.22215,4.4066,-1,4
411,1.22654,4.4059,-1,4
412,1.23093,4.4039,-1,4
413,1.23531,4.4015,-1,4
414,1.23969,4.3984,-1,4
415,1.24407,4.3949,-1,4
416,1.24843,4.3906,-1,4
417,1.25279,4.3852,-1,4
418,1.25714,4.3791,-1,4
419,1.26148,4.3732,-1,4
420,1.26581,4.3669,-1,4
421,1.27014,4.3602,-1,4
422,1.27446,4.3533,-1,4
423,1.27877,4.3455,-1,4
424,1.28307,4.3376,-1,4
425,1.28736,4.3294,-1,4
426,1.29592,4.3203,-1,4
427,1.29592,4.3105,-1,4
428,1.30018,4.3017,-1,4
429,1.30443,4.2922,-1,4
430,1.30867,4.2829,-1,4
431,1.3129,4.2734,-1,4
432,1.31712,4.2636,-1,4
433,1.32133,4.2538,-1,4
434,1.32553,4.2441,-1,4
435,1.32972,4.2335,-1,4
436,1.3339,4.2239,-1,4
437,1.33806,4.2145,-1,4
438,1.34222,4.204,-1,4
439,1.34636,4.1933,-1,4
440,1.35049,4.1823,-1,4
441,1.35461,4.1709,-1,4
442,1.35872,4.16,-1,4
443,1.36282,4.149,-1,4
444,1.3669,4.1374,-1,4
445,1.37097,4.1259,-1,4
446,1.37503,4.114,-1,4
447,1.37909,4.1025,-1,4
448,1.38313,4.091,-1,4
449,1.38715,4.0795,-1,4
450,1.39116,4.0676,-1,4
451,1.39516,4.0554,-1,4
452,1.39915,4.0427,-1,4
453,1.40312,4.0304,-1,4
454,1.40709,4.0183,-1,4
455,1.41104,4.0061,-1,4
456,1.41497,3.9936,-1,4
457,1.41889,3.9795,-1,4
458,1.4228,3.9655,-1,4
459,1.43059,3.9514,-1,4
460,1.43446,3.9375,-1,4
461,1.43832,3.9238,-1,4
462,1.44217,3.9099,-1,4
463,1.446,3.8956,-1,4
464,1.44982,3.8811,-1,4
465,1.45363,3.8671,-1,4
466,1.45742,3.8531,-1,4
467,1.46121,3.8403,-1,4
468,1.46498,3.8276,-1,4
469,1.46874,3.8148,-1,4
470,1.47248,3.802,-1,4
471,1.47621,3.7891,-1,4
472,1.47993,3.7763,-1,4
473,1.48364,3.7637,-1,4
474,1.48733,3.7514,-1,4
475,1.49102,3.7386,-1,4
476,1.49468,3.726,-1,4
477,1.49834,3.7136,-1,4
478,1.50199,3.701,-1,4
479,1.50562,3.6884,-1,4
480,1.50924,3.6754,-1,4
481,1.51284,3.6627,-1,4
482,1.51643,3.65,-1,4
483,1.52001,3.6374,-1,4
484,1.52358,3.6246,-1,4
485,1.52713,3.6118,-1,4
486,1.53067,3.5988,-1,4
487,1.5342,3.5855,-1,4
488,1.53771,3.572,-1,4
489,1.54121,3.5591,-1,4
490,1.5447,3.5462,-1,4
491,1.54817,3.5334,-1,4
492,1.55163,3.5203,-1,4
493,1.55508,3.5069,-1,4
494,1.55851,3.4935,-1,4
495,1.56194,3.4803,-1,4
496,1.56534,3.4669,-1,4
497,1.56874,3.4539,-1,4
498,1.57212,3.4407,-1,4
499,1.57549,3.4274,-1,4
500,1.57884,3.4142,-1,4
501,1.58218,3.4004,-1,4
502,1.58551,3.386,-1,4
503,1.58882,3.3729,-1,4
504,1.59212,3.3597,-1,4
505,1.59541,3.3466,-1,4
506,1.59869,3.3337,-1,4
507,1.60195,3.3203,-1,4
508,1.6052,3.3076,-1,4
509,1.60844,3.2933,-1,4
510,1.61167,3.2788,-1,4
511,1.61808,3.2648,-1,4
512,1.62126,3.2517,-1,4
513,1.62444,3.2375,-1,4
514,1.6276,3.2234,-1,4
515,1.63074,3.2089,-1,4
516,1.63388,3.1951,-1,4
517,1.63701,3.1814,-1,4
518,1.64012,3.1672,-1,4
519,1.64322,3.1549,-1,4
520,1.64631,3.1427,-1,4
521,1.64938,3.1306,-1,4
522,1.65245,3.1186,-1,4
523,1.6555,3.1066,-1,4
524,1.65855,3.095,-1,4
525,1.66158,3.084,-1,4
526,1.66461,3.0726,-1,4
527,1.66762,3.0612,-1,4
528,1.67062,3.0506,-1,4
529,1.67362,3.0398,-1,4
530,1.6766,3.0289,-1,4
531,1.67957,3.0186,-1,4
532,1.68253,3.0085,-1,4
533,1.68549,2.9984,-1,4
534,1.68843,2.9886,-1,4
535,1.69137,2.9787,-1,4
536,1.69429,2.9689,-1,4
537,1.69721,2.9597,-1,4
538,1.70012,2.9502,-1,4
539,1.70302,2.9409,-1,4
540,1.70592,2.9323,-1,4
541,1.7088,2.9234,-1,4
542,1.71168,2.9148,-1,4
543,1.71455,2.9064,-1,4
544,1.71742,2.8983,-1,4
545,1.72027,2.8906,-1,4
546,1.72312,2.8828,-1,4
547,1.72596,2.8751,-1,4
548,1.7288,2.8677,-1,4
549,1.73163,2.8606,-1,4
550,1.73727,2.8531,-1,4
551,1.73727,2.8457,-1,4
552,1.74009,2.839,-1,4
553,1.7457,2.8327,-1,4
554,1.7457,2.8263,-1,4
555,1.7513,2.8201,-1,4
556,1.7513,2.815,-1,4
557,1.75409,2.8102,-1,4
558,1.75688,2.8055,-1,4
559,1.75967,2.8011,-1,4
560,1.76245,2.7975,-1,4
561,1.76802,2.7945,-1,4
562,1.7708,2.7914,-1,4
563,1.77358,2.7889,-1,4
564,1.77636,2.7867,-1,4
565,1.77913,2.7846,-1,4
566,1.78192,2.7831,-1,4
567,1.7847,2.7823,-1,4
568,1.78748,2.7818,-1,4
569,1.79027,2.7813,-1,4
570,1.79305,2.782,-1,4
571,1.79585,2.7832,-1,4
572,1.79865,2.7851,-1,4
573,1.80145,2.7875,-1,4
574,1.80426,2.7902,-1,4
575,1.80707,2.7942,-1,4
576,1.8099,2.7986,-1,4
577,1.81274,2.8036,-1,4
578,1.81558,2.8094,-1,4
579,1.81843,2.8165,-1,4
580,1.8213,2.8242,-1,4
581,1.82418,2.8331,-1,4
582,1.82707,2.8423,-1,4
583,1.82998,2.853,-1,4
584,1.8329,2.8645,-1,4
585,1.83584,2.877,-1,4
586,1.8388,2.8903,-1,4
587,1.84178,2.9048,-1,4
588,1.84478,2.9202,-1,4
589,1.84779,2.9365,-1,4
590,1.85083,2.9538,-1,4
591,1.8539,2.9719,-1,4
592,1.85698,2.9914,-1,4
593,1.8601,3.0114,-1,4
594,1.86323,3.0324,-1,4
595,1.86639,3.0542,-1,4
596,1.86957,3.077,-1,4
597,1.87279,3.1005,-1,4
598,1.87603,3.1249,-1,4
599,1.8793,3.15,-1,4
600,1.88259,3.176,-1,4
601,1.88592,3.2026,-1,4
602,1.88928,3.2301,-1,4
603,1.89267,3.2578,-1,4
604,1.89609,3.2865,-1,4
605,1.89955,3.316,-1,4
606,1.90303,3.3455,-1,4
607,1.91009,3.3788,-1,4
608,1.91368,3.4132,-1,4
609,1.9173,3.4484,-1,4
610,1.92095,3.4836,-1,4
611,1.92464,3.5195,-1,4
612,1.92836,3.5555,-1,4
613,1.93211,3.5923,-1,4
614,1.9359,3.6294,-1,4
615,1.93973,3.6668,-1,4
616,1.9436,3.705,-1,4
617,1.9475,3.7405,-1,4
618,1.95144,3.7761,-1,4
619,1.95942,3.815,-1,4
620,1.95942,3.8542,-1,4
621,1.96347,3.8897,-1,4
622,1.96755,3.9259,-1,4
623,1.97167,3.9627,-1,4
624,1.97584,3.9998,-1,4
625,1.98003,4.0363,-1,4
626,1.98426,4.0729,-1,4
627,1.98852,4.1087,-1,4
628,1.99282,4.1447,-1,4
629,1.99715,4.1772,-1,4
630,2.00152,4.2101,-1,4
631,2.00592,4.2458,-1,4
632,2.01036,4.2807,-1,4
633,2.01481,4.3141,-1,4
634,2.01931,4.3473,-1,4
635,2.02383,4.3803,-1,4
636,2.02838,4.4126,-1,4
637,2.03296,4.4446,-1,4
638,2.03757,4.4754,-1,4
639,2.04221,4.5054,-1,4
640,2.04686,4.534,-1,4
641,2.05155,4.5621,-1,4
642,2.05625,4.5896,-1,4
643,2.06099,4.6172,-1,4
644,2.06575,4.6438,-1,4
645,2.07052,4.6692,-1,4
646,2.07532,4.6931,-1,4
647,2.08013,4.7165,-1,4
648,2.08496,4.7388,-1,4
649,2.08982,4.7612,-1,4
650,2.09469,4.7826,-1,4
651,2.10448,4.8046,-1,4
652,2.10939,4.8255,-1,4
653,2.11433,4.8454,-1,4
654,2.11928,4.8645,-1,4
655,2.12424,4.8827,-1,4
656,2.12921,4.9005,-1,4
657,2.13419,4.9171,-1,4
658,2.13918,4.9335,-1,4
659,2.14419,4.9483,-1,4
660,2.1492,4.9623,-1,4
661,2.15422,4.9746,-1,4
662,2.15924,4.9854,-1,4
663,2.16931,4.9957,-1,4
664,2.16931,5.0044,-1,4
665,2.17435,5.0127,-1,4
666,2.1794,5.0202,-1,4
667,2.18444,5.0266,-1,4
668,2.18949,5.0318,-1,4
669,2.19958,5.0361,-1,4
670,2.20463,5.0395,-1,4
671,2.20967,5.0414,-1,4
672,2.21471,5.0433,-1,4
673,2.21975,5.0433,-1,4
674,2.22478,5.043,-1,4
675,2.22981,5.0418,-1,4
676,2.23484,5.04,-1,4
677,2.23986,5.0374,-1,4
678,2.24487,5.0339,-1,4
679,2.24987,5.0293,-1,4
680,2.25487,5.0245,-1,4
681,2.25986,5.0194,-1,4
682,2.26485,5.0137,-1,4
683,2.26982,5.0073,-1,4
684,2.27479,5.0002,-1,4
685,2.27974,4.9924,-1,4
686,2.28469,4.9845,-1,4
687,2.28963,4.9765,-1,4
688,2.29455,4.9681,-1,4
689,2.29947,4.9592,-1,4
690,2.30437,4.9495,-1,4
691,2.30926,4.9399,-1,4
692,2.31415,4.9301,-1,4
693,2.31903,4.9203,-1,4
694,2.32388,4.9099,-1,4
695,2.32873,4.8997,-1,4
696,2.33357,4.8888,-1,4
697,2.3384,4.878,-1,4
698,2.34322,4.8673,-1,4
699,2.34804,4.8571,-1,4
700,2.35283,4.8468,-1,4
701,2.35762,4.836,-1,4
702,2.36239,4.8246,-1,4
703,2.36716,4.8136,-1,4
704,2.37192,4.8034,-1,4
705,2.37666,4.793,-1,4
706,2.3814,4.7824,-1,4
707,2.38612,4.7713,-1,4
708,2.39082,4.7598,-1,4
709,2.39552,4.7484,-1,4
710,2.4002,4.7373,-1,4
711,2.40488,4.7262,-1,4
712,2.40954,4.715,-1,4
713,2.41419,4.7019,-1,4
714,2.42345,4.6886,-1,4
715,2.42807,4.6758,-1,4
716,2.42807,4.6628,-1,4
717,2.43267,4.6493,-1,4
718,2.43725,4.6372,-1,4
719,2.44182,4.6236,-1,4
720,2.44639,4.611,-1,4
721,2.45094,4.5974,-1,4
722,2.46,4.5837,-1,4
723,2.46452,4.5716,-1,4
724,2.46901,4.5587,-1,4
725,2.4735,4.5456,-1,4
726,2.47797,4.5326,-1,4
727,2.48243,4.5203,-1,4
728,2.48688,4.5063,-1,4
729,2.49131,4.4936,-1,4
730,2.49573,4.4795,-1,4
731,2.50014,4.4662,-1,4
732,2.50453,4.4527,-1,4
733,2.50891,4.4392,-1,4
734,2.51327,4.4263,-1,4
735,2.51763,4.413,-1,4
736,2.52197,4.3997,-1,4
737,2.52629,4.3857,-1,4
738,2.5306,4.3722,-1,4
739,2.5349,4.359,-1,4
740,2.53919,4.3456,-1,4
741,2.54346,4.3322,-1,4
742,2.54772,4.3191,-1,4
743,2.55197,4.3061,-1,4
744,2.5562,4.2926,-1,4
745,2.56042,4.279,-1,4
746,2.56462,4.2657,-1,4
747,2.56882,4.2528,-1,4
748,2.57299,4.2397,-1,4
749,2.57716,4.2259,-1,4
750,2.58131,4.2122,-1,4
751,2.58544,4.1983,-1,4
752,2.58957,4.1848,-1,4
753,2.59368,4.1711,-1,4
754,2.59778,4.158,-1,4
755,2.60593,4.1435,-1,4
756,2.60999,4.1287,-1,4
757,2.61404,4.1141,-1,4
758,2.61807,4.0997,-1,4
759,2.6221,4.0859,-1,4
760,2.62612,4.0725,-1,4
761,2.63012,4.059,-1,4
762,2.63411,4.0458,-1,4
763,2.63809,4.0327,-1,4
764,2.64206,4.0195,-1,4
765,2.64601,4.0073,-1,4
766,2.64995,3.9957,-1,4
767,2.65388,3.9844,-1,4
768,2.6578,3.9728,-1,4
769,2.66171,3.9607,-1,4
770,2.6656,3.9486,-1,4
771,2.66948,3.9367,-1,4
772,2.67336,3.9246,-1,4
773,2.67722,3.9127,-1,4
774,2.68107,3.9011,-1,4
775,2.68491,3.8898,-1,4
776,2.68873,3.8782,-1,4
777,2.69255,3.8663,-1,4
778,2.69635,3.8548,-1,4
779,2.70015,3.8437,-1,4
780,2.70393,3.8326,-1,4
781,2.7077,3.8219,-1,4
782,2.71147,3.811,-1,4
783,2.71522,3.8,-1,4
784,2.71895,3.7884,-1,4
785,2.72268,3.7775,-1,4
786,2.7264,3.7666,-1,4
787,2.73011,3.756,-1,4
788,2.7338,3.7452,-1,4
789,2.7375,3.734,-1,4
790,2.74118,3.7239,-1,4
791,2.74485,3.7133,-1,4
792,2.7485,3.7028,-1,4
793,2.75215,3.6926,-1,4
794,2.75579,3.6828,-1,4
795,2.75942,3.6727,-1,4
796,2.76304,3.6629,-1,4
797,2.76665,3.6531,-1,4
798,2.77025,3.6437,-1,4
799,2.77384,3.6348,-1,4
800,2.77743,3.6238,-1,4
801,2.781,3.6142,-1,4
802,2.78456,3.6047,-1,4
803,2.78811,3.5953,-1,4
804,2.79166,3.5861,-1,4
805,2.7952,3.5773,-1,4
806,2.79873,3.5682,-1,4
807,2.80225,3.5593,-1,4
808,2.80576,3.55,-1,4
809,2.80926,3.5403,-1,4
810,2.81275,3.5322,-1,4
811,2.81971,3.5226,-1,4
812,2.81971,3.5134,-1,4
813,2.82318,3.5049,-1,4
814,2.82664,3.4962,-1,4
815,2.83009,3.4875,-1,4
816,2.83353,3.4787,-1,4
817,2.83697,3.4702,-1,4
818,2.8404,3.4625,-1,4
819,2.84382,3.4553,-1,4
820,2.84724,3.4479,-1,4
821,2.85065,3.441,-1,4
822,2.85746,3.434,-1,4
823,2.85746,3.4265,-1,4
824,2.86085,3.4201,-1,4
825,2.86762,3.4133,-1,4
826,2.86762,3.4077,-1,4
827,2.871,3.402,-1,4
828,2.87438,3.3966,-1,4
829,2.88113,3.3916,-1,4
830,2.8845,3.3866,-1,4
831,2.88787,3.3829,-1,4
832,2.89124,3.3796,-1,4
833,2.89461,3.3772,-1,4
834,2.89798,3.3746,-1,4
835,2.90135,3.3729,-1,4
836,2.90472,3.372,-1,4
837,2.9081,3.3718,-1,4
838,2.91148,3.3721,-1,4
839,2.91487,3.3732,-1,4
840,2.91826,3.3757,-1,4
841,2.92165,3.3782,-1,4
842,2.92506,3.3819,-1,4
843,2.92847,3.3859,-1,4
