cnt,pos,speed,Dir,Force,
1,3.20374,1.148,-1,5
2,3.20489,1.155,-1,5
3,3.20606,1.169,-1,5
4,3.20723,1.166,-1,5
5,3.20838,1.155,-1,5
6,3.20954,1.162,-1,5
7,3.21072,1.179,-1,5
8,3.21190,1.180,-1,5
9,3.21307,1.170,-1,5
10,3.21424,1.172,-1,5
11,3.21543,1.188,-1,5
12,3.21662,1.192,-1,5
13,3.21781,1.183,-1,5
14,3.21900,1.190,-1,5
15,3.22020,1.202,-1,5
16,3.22140,1.204,-1,5
17,3.22260,1.199,-1,5
18,3.22380,1.202,-1,5
19,3.22501,1.209,-1,5
20,3.22623,1.217,-1,5
21,3.22744,1.213,-1,5
22,3.22866,1.219,-1,5
23,3.22989,1.229,-1,5
24,3.23112,1.227,-1,5
25,3.23234,1.226,-1,5
26,3.23358,1.234,-1,5
27,3.23482,1.246,-1,5
28,3.23607,1.242,-1,5
29,3.23731,1.245,-1,5
30,3.23856,1.254,-1,5
31,3.23983,1.263,-1,5
32,3.24108,1.256,-1,5
33,3.24234,1.260,-1,5
34,3.24361,1.271,-1,5
35,3.24489,1.275,-1,5
36,3.24616,1.274,-1,5
37,3.24744,1.274,-1,5
38,3.24872,1.281,-1,5
39,3.25000,1.283,-1,5
40,3.25128,1.278,-1,5
41,3.25256,1.284,-1,5
42,3.25386,1.291,-1,5
43,3.25514,1.285,-1,5
44,3.25642,1.283,-1,5
45,3.25772,1.293,-1,5
46,3.25901,1.293,-1,5
47,3.26030,1.288,-1,5
48,3.26159,1.292,-1,5
49,3.26289,1.297,-1,5
50,3.26418,1.293,-1,5
51,3.26547,1.292,-1,5
52,3.26677,1.297,-1,5
53,3.26807,1.301,-1,5
54,3.26937,1.298,-1,5
55,3.27066,1.293,-1,5
56,3.27196,1.299,-1,5
57,3.27326,1.302,-1,5
58,3.27456,1.296,-1,5
59,3.27585,1.297,-1,5
60,3.27716,1.301,-1,5
61,3.27845,1.296,-1,5
62,3.27974,1.291,-1,5
63,3.28104,1.295,-1,5
64,3.28233,1.296,-1,5
65,3.28362,1.290,-1,5
66,3.28491,1.290,-1,5
67,3.28621,1.293,-1,5
68,3.28878,1.285,-1,5
69,3.28878,1.285,-1,5
70,3.29007,1.292,-1,5
71,3.29136,1.292,-1,5
72,3.29265,1.288,-1,5
73,3.29393,1.282,-1,5
74,3.29522,1.288,-1,5
75,3.29651,1.292,-1,5
76,3.29909,1.286,-1,5
77,3.30038,1.291,-1,5
78,3.30167,1.290,-1,5
79,3.30295,1.285,-1,5
80,3.30424,1.292,-1,5
81,3.30554,1.297,-1,5
82,3.30683,1.290,-1,5
83,3.30812,1.287,-1,5
84,3.30941,1.291,-1,5
85,3.31070,1.290,-1,5
86,3.31199,1.287,-1,5
87,3.31327,1.288,-1,5
88,3.31456,1.291,-1,5
89,3.31585,1.287,-1,5
90,3.31713,1.281,-1,5
91,3.31841,1.283,-1,5
92,3.31971,1.291,-1,5
93,3.32100,1.290,-1,5
94,3.32228,1.288,-1,5
95,3.32358,1.293,-1,5
96,3.32487,1.294,-1,5
97,3.32616,1.288,-1,5
98,3.32745,1.294,-1,5
99,3.32876,1.304,-1,5
100,3.33006,1.303,-1,5
101,3.33136,1.298,-1,5
102,3.33266,1.302,-1,5
103,3.33397,1.310,-1,5
104,3.33528,1.307,-1,5
105,3.33659,1.311,-1,5
106,3.33791,1.318,-1,5
107,3.33922,1.317,-1,5
108,3.34053,1.309,-1,5
109,3.34185,1.316,-1,5
110,3.34317,1.324,-1,5
111,3.34450,1.324,-1,5
112,3.34582,1.320,-1,5
113,3.34714,1.325,-1,5
114,3.34847,1.327,-1,5
115,3.34979,1.324,-1,5
116,3.35112,1.329,-1,5
117,3.35246,1.336,-1,5
118,3.35379,1.335,-1,5
119,3.35512,1.332,-1,5
120,3.35646,1.334,-1,5
121,3.35780,1.339,-1,5
122,3.35913,1.339,-1,5
123,3.36048,1.349,-1,5
124,3.36184,1.353,-1,5
125,3.36319,1.349,-1,5
126,3.36453,1.344,-1,5
127,3.36588,1.349,-1,5
128,3.36724,1.361,-1,5
129,3.36860,1.365,-1,5
130,3.36997,1.365,-1,5
131,3.37133,1.365,-1,5
132,3.37270,1.362,-1,5
133,3.37406,1.362,-1,5
134,3.37543,1.375,-1,5
135,3.37682,1.383,-1,5
136,3.37820,1.381,-1,5
137,3.37958,1.379,-1,5
138,3.38234,1.385,-1,5
139,3.38234,1.385,-1,5
140,3.38374,1.393,-1,5
141,3.38514,1.400,-1,5
142,3.38654,1.400,-1,5
143,3.38793,1.398,-1,5
144,3.38934,1.402,-1,5
145,3.39075,1.409,-1,5
146,3.39216,1.417,-1,5
147,3.39500,1.423,-1,5
148,3.39642,1.419,-1,5
149,3.39784,1.421,-1,5
150,3.39927,1.430,-1,5
151,3.40071,1.437,-1,5
152,3.40214,1.438,-1,5
153,3.40358,1.439,-1,5
154,3.40502,1.439,-1,5
155,3.40646,1.441,-1,5
156,3.40791,1.453,-1,5
157,3.40938,1.462,-1,5
158,3.41084,1.459,-1,5
159,3.41229,1.456,-1,5
160,3.41375,1.461,-1,5
161,3.41522,1.467,-1,5
162,3.41670,1.477,-1,5
163,3.41818,1.485,-1,5
164,3.41966,1.481,-1,5
165,3.42114,1.475,-1,5
166,3.42262,1.485,-1,5
167,3.42563,1.506,-1,5
168,3.42713,1.506,-1,5
169,3.42713,1.508,-1,5
170,3.42864,1.508,-1,5
171,3.43014,1.504,-1,5
172,3.43166,1.517,-1,5
173,3.43319,1.532,-1,5
174,3.43473,1.534,-1,5
175,3.43626,1.532,-1,5
176,3.43780,1.538,-1,5
177,3.43934,1.540,-1,5
178,3.44089,1.551,-1,5
179,3.44245,1.560,-1,5
180,3.44401,1.556,-1,5
181,3.44556,1.558,-1,5
182,3.44713,1.565,-1,5
183,3.44870,1.572,-1,5
184,3.45028,1.581,-1,5
185,3.45187,1.583,-1,5
186,3.45344,1.579,-1,5
187,3.45503,1.587,-1,5
188,3.45664,1.604,-1,5
189,3.45824,1.607,-1,5
190,3.45985,1.604,-1,5
191,3.46145,1.606,-1,5
192,3.46306,1.611,-1,5
193,3.46469,1.629,-1,5
194,3.46633,1.637,-1,5
195,3.46796,1.630,-1,5
196,3.46959,1.627,-1,5
197,3.47123,1.638,-1,5
198,3.47288,1.652,-1,5
199,3.47454,1.660,-1,5
200,3.47619,1.655,-1,5
201,3.47784,1.648,-1,5
202,3.47950,1.659,-1,5
203,3.48117,1.673,-1,5
204,3.48285,1.681,-1,5
205,3.48453,1.681,-1,5
206,3.48621,1.674,-1,5
207,3.48789,1.680,-1,5
208,3.48959,1.697,-1,5
209,3.49129,1.700,-1,5
210,3.49299,1.702,-1,5
211,3.49469,1.704,-1,5
212,3.49640,1.707,-1,5
213,3.49811,1.714,-1,5
214,3.49983,1.720,-1,5
215,3.50156,1.723,-1,5
216,3.50329,1.730,-1,5
217,3.50502,1.731,-1,5
218,3.50675,1.731,-1,5
219,3.50848,1.736,-1,5
220,3.51023,1.742,-1,5
221,3.51198,1.751,-1,5
222,3.51373,1.753,-1,5
223,3.51547,1.742,-1,5
224,3.51722,1.747,-1,5
225,3.51898,1.763,-1,5
226,3.52075,1.769,-1,5
227,3.52252,1.767,-1,5
228,3.52427,1.756,-1,5
229,3.52604,1.765,-1,5
230,3.52782,1.781,-1,5
231,3.52960,1.782,-1,5
232,3.53138,1.778,-1,5
233,3.53315,1.772,-1,5
234,3.53493,1.780,-1,5
235,3.53672,1.793,-1,5
236,3.53851,1.789,-1,5
237,3.54030,1.783,-1,5
238,3.54208,1.785,-1,5
239,3.54387,1.792,-1,5
240,3.54567,1.797,-1,5
241,3.54746,1.791,-1,5
242,3.54925,1.789,-1,5
243,3.55105,1.798,-1,5
244,3.55285,1.797,-1,5
245,3.55464,1.795,-1,5
246,3.55643,1.791,-1,5
247,3.55822,1.793,-1,5
248,3.56003,1.802,-1,5
249,3.56182,1.798,-1,5
250,3.56362,1.791,-1,5
251,3.56541,1.793,-1,5
252,3.56721,1.798,-1,5
253,3.56901,1.804,-1,5
254,3.57081,1.796,-1,5
255,3.57259,1.788,-1,5
256,3.57439,1.794,-1,5
257,3.57619,1.798,-1,5
258,3.57799,1.801,-1,5
259,3.57978,1.795,-1,5
260,3.58157,1.789,-1,5
261,3.58336,1.793,-1,5
262,3.58516,1.796,-1,5
263,3.58695,1.794,-1,5
264,3.58875,1.792,-1,5
265,3.59053,1.787,-1,5
266,3.59232,1.790,-1,5
267,3.59411,1.789,-1,5
268,3.59590,1.785,-1,5
269,3.59769,1.789,-1,5
270,3.59947,1.784,-1,5
271,3.60125,1.781,-1,5
272,3.60303,1.777,-1,5
273,3.60481,1.779,-1,5
274,3.60659,1.783,-1,5
275,3.60837,1.782,-1,5
276,3.61014,1.771,-1,5
277,3.61191,1.771,-1,5
278,3.61369,1.775,-1,5
279,3.61547,1.779,-1,5
280,3.61724,1.777,-1,5
281,3.61901,1.763,-1,5
282,3.62077,1.763,-1,5
283,3.62254,1.772,-1,5
284,3.62431,1.772,-1,5
285,3.62608,1.768,-1,5
286,3.62784,1.756,-1,5
287,3.62959,1.756,-1,5
288,3.63136,1.766,-1,5
289,3.63312,1.759,-1,5
290,3.63488,1.759,-1,5
291,3.63663,1.753,-1,5
292,3.63839,1.753,-1,5
293,3.64015,1.754,-1,5
294,3.64190,1.754,-1,5
295,3.64365,1.750,-1,5
296,3.64540,1.751,-1,5
297,3.64715,1.747,-1,5
298,3.65065,1.748,-1,5
299,3.65239,1.743,-1,5
300,3.65414,1.748,-1,5
301,3.65588,1.745,-1,5
302,3.65762,1.737,-1,5
303,3.65936,1.742,-1,5
304,3.66111,1.746,-1,5
305,3.66286,1.749,-1,5
306,3.66460,1.744,-1,5
307,3.66634,1.737,-1,5
308,3.66808,1.744,-1,5
309,3.66983,1.750,-1,5
310,3.67158,1.751,-1,5
311,3.67333,1.748,-1,5
312,3.67507,1.740,-1,5
313,3.67682,1.748,-1,5
314,3.67858,1.759,-1,5
315,3.68033,1.754,-1,5
316,3.68208,1.751,-1,5
317,3.68383,1.751,-1,5
318,3.68559,1.754,-1,5
319,3.68735,1.764,-1,5
320,3.68911,1.758,-1,5
321,3.69086,1.755,-1,5
322,3.69263,1.762,-1,5
323,3.69439,1.763,-1,5
324,3.69615,1.765,-1,5
325,3.69792,1.763,-1,5
326,3.69968,1.761,-1,5
327,3.70144,1.768,-1,5
328,3.70321,1.766,-1,5
329,3.70497,1.764,-1,5
330,3.70674,1.767,-1,5
331,3.70850,1.763,-1,5
332,3.71027,1.768,-1,5
333,3.71204,1.766,-1,5
334,3.71380,1.764,-1,5
335,3.71557,1.767,-1,5
336,3.71733,1.764,-1,5
337,3.71910,1.767,-1,5
338,3.72087,1.768,-1,5
339,3.72263,1.766,-1,5
340,3.72440,1.767,-1,5
341,3.72617,1.764,-1,5
342,3.72793,1.766,-1,5
343,3.72970,1.769,-1,5
344,3.73147,1.768,-1,5
345,3.73323,1.766,-1,5
346,3.73500,1.763,-1,5
347,3.73676,1.764,-1,5
348,3.73853,1.769,-1,5
349,3.74030,1.770,-1,5
350,3.74206,1.761,-1,5
351,3.74382,1.758,-1,5
352,3.74558,1.761,-1,5
353,3.74735,1.769,-1,5
354,3.74911,1.766,-1,5
355,3.75087,1.755,-1,5
356,3.75262,1.753,-1,5
357,3.75439,1.763,-1,5
358,3.75791,1.758,-1,5
359,3.75966,1.747,-1,5
360,3.76141,1.752,-1,5
361,3.76317,1.759,-1,5
362,3.76492,1.755,-1,5
363,3.76667,1.748,-1,5
364,3.76842,1.745,-1,5
365,3.77016,1.748,-1,5
366,3.77192,1.753,-1,5
367,3.77366,1.743,-1,5
368,3.77540,1.737,-1,5
369,3.77714,1.744,-1,5
370,3.77888,1.744,-1,5
371,3.78062,1.740,-1,5
372,3.78236,1.733,-1,5
373,3.78408,1.727,-1,5
374,3.78582,1.737,-1,5
375,3.78756,1.737,-1,5
376,3.78928,1.723,-1,5
377,3.79100,1.717,-1,5
378,3.79272,1.718,-1,5
379,3.79444,1.726,-1,5
380,3.79616,1.723,-1,5
381,3.79787,1.705,-1,5
382,3.79957,1.701,-1,5
383,3.80128,1.708,-1,5
384,3.80299,1.710,-1,5
385,3.80469,1.707,-1,5
386,3.80638,1.689,-1,5
387,3.80807,1.692,-1,5
388,3.81145,1.695,-1,5
389,3.81145,1.682,-1,5
390,3.81314,1.682,-1,5
391,3.81480,1.669,-1,5
392,3.81647,1.665,-1,5
393,3.81814,1.673,-1,5
394,3.81981,1.672,-1,5
395,3.82147,1.655,-1,5
396,3.82312,1.647,-1,5
397,3.82476,1.648,-1,5
398,3.82641,1.647,-1,5
399,3.82805,1.644,-1,5
400,3.82969,1.631,-1,5
401,3.83131,1.619,-1,5
402,3.83293,1.626,-1,5
403,3.83456,1.625,-1,5
404,3.83617,1.613,-1,5
405,3.83777,1.601,-1,5
406,3.83936,1.593,-1,5
407,3.84096,1.595,-1,5
408,3.84256,1.599,-1,5
409,3.84414,1.584,-1,5
410,3.84571,1.566,-1,5
411,3.84727,1.564,-1,5
412,3.84884,1.566,-1,5
413,3.85040,1.564,-1,5
414,3.85196,1.558,-1,5
415,3.85350,1.536,-1,5
416,3.85502,1.527,-1,5
417,3.85656,1.533,-1,5
418,3.85809,1.536,-1,5
419,3.85961,1.522,-1,5
420,3.86112,1.508,-1,5
421,3.86262,1.497,-1,5
422,3.86411,1.496,-1,5
423,3.86561,1.502,-1,5
424,3.86711,1.495,-1,5
425,3.86858,1.470,-1,5
426,3.87004,1.461,-1,5
427,3.87151,1.468,-1,5
428,3.87298,1.468,-1,5
429,3.87443,1.457,-1,5
430,3.87587,1.440,-1,5
431,3.87730,1.425,-1,5
432,3.87873,1.427,-1,5
433,3.88016,1.438,-1,5
434,3.88159,1.428,-1,5
435,3.88300,1.405,-1,5
436,3.88439,1.393,-1,5
437,3.88578,1.394,-1,5
438,3.88718,1.398,-1,5
439,3.88858,1.395,-1,5
440,3.88996,1.382,-1,5
441,3.89132,1.362,-1,5
442,3.89268,1.357,-1,5
443,3.89404,1.365,-1,5
444,3.89541,1.363,-1,5
445,3.89676,1.350,-1,5
446,3.89809,1.339,-1,5
447,3.89943,1.336,-1,5
448,3.90076,1.330,-1,5
449,3.90209,1.325,-1,5
450,3.90341,1.324,-1,5
451,3.90473,1.317,-1,5
452,3.90603,1.308,-1,5
453,3.90734,1.306,-1,5
454,3.90864,1.304,-1,5
455,3.90994,1.293,-1,5
456,3.91122,1.286,-1,5
457,3.91251,1.288,-1,5
458,3.91380,1.277,-1,5
459,3.91508,1.277,-1,5
460,3.91635,1.269,-1,5
461,3.91762,1.271,-1,5
462,3.91889,1.269,-1,5
463,3.92015,1.264,-1,5
464,3.92141,1.261,-1,5
465,3.92267,1.260,-1,5
466,3.92392,1.250,-1,5
467,3.92517,1.246,-1,5
468,3.92642,1.251,-1,5
469,3.92767,1.251,-1,5
470,3.92891,1.239,-1,5
471,3.93014,1.233,-1,5
472,3.93138,1.239,-1,5
473,3.93262,1.239,-1,5
474,3.93385,1.228,-1,5
475,3.93507,1.226,-1,5
476,3.93631,1.232,-1,5
477,3.93754,1.232,-1,5
478,3.93876,1.218,-1,5
479,3.93997,1.217,-1,5
480,3.94120,1.224,-1,5
481,3.94242,1.224,-1,5
482,3.94364,1.218,-1,5
483,3.94486,1.216,-1,5
484,3.94608,1.221,-1,5
485,3.94729,1.216,-1,5
486,3.94850,1.210,-1,5
487,3.94972,1.216,-1,5
488,3.95215,1.215,-1,5
489,3.95215,1.209,-1,5
490,3.95458,1.213,-1,5
491,3.95458,1.213,-1,5
492,3.95580,1.209,-1,5
493,3.95700,1.209,-1,5
494,3.95821,1.206,-1,5
495,3.95942,1.212,-1,5
496,3.96064,1.217,-1,5
497,3.96185,1.201,-1,5
498,3.96426,1.210,-1,5
499,3.96426,1.210,-1,5
500,3.96668,1.205,-1,5
501,3.96668,1.205,-1,5
502,3.96788,1.201,-1,5
503,3.96909,1.208,-1,5
504,3.97030,1.211,-1,5
505,3.97150,1.203,-1,5
506,3.97391,1.209,-1,5
507,3.97512,1.212,-1,5
508,3.97632,1.200,-1,5
509,3.97753,1.202,-1,5
510,3.97874,1.209,-1,5
511,3.97995,1.210,-1,5
512,3.98115,1.204,-1,5
513,3.98235,1.205,-1,5
514,3.98356,1.210,-1,5
515,3.98477,1.208,-1,5
516,3.98597,1.198,-1,5
517,3.98717,1.204,-1,5
518,3.98839,1.212,-1,5
519,3.98959,1.207,-1,5
520,3.99079,1.201,-1,5
521,3.99200,1.202,-1,5
522,3.99320,1.208,-1,5
523,3.99441,1.204,-1,5
524,3.99561,1.198,-1,5
525,3.99681,1.203,-1,5
526,3.99802,1.212,-1,5
527,3.99922,1.203,-1,5
528,4.00042,1.197,-1,5
529,4.00162,1.201,-1,5
530,4.00283,1.208,-1,5
531,4.00404,1.207,-1,5
532,4.00524,1.199,-1,5
533,4.00644,1.201,-1,5
534,4.00764,1.206,-1,5
535,4.00885,1.201,-1,5
536,4.01004,1.197,-1,5
537,4.01124,1.202,-1,5
538,4.01245,1.206,-1,5
539,4.01365,1.200,-1,5
540,4.01485,1.196,-1,5
541,4.01604,1.198,-1,5
542,4.01724,1.198,-1,5
543,4.01844,1.194,-1,5
544,4.01963,1.192,-1,5
545,4.02083,1.200,-1,5
546,4.02203,1.200,-1,5
547,4.02322,1.189,-1,5
548,4.02440,1.184,-1,5
549,4.02559,1.191,-1,5
550,4.02679,1.194,-1,5
551,4.02797,1.188,-1,5
552,4.02916,1.185,-1,5
553,4.03035,1.191,-1,5
554,4.03154,1.188,-1,5
555,4.03272,1.179,-1,5
556,4.03389,1.175,-1,5
557,4.03507,1.183,-1,5
558,4.03626,1.187,-1,5
559,4.03744,1.176,-1,5
560,4.03861,1.171,-1,5
561,4.03978,1.174,-1,5
562,4.04096,1.175,-1,5
563,4.04212,1.164,-1,5
564,4.04328,1.161,-1,5
565,4.04445,1.169,-1,5
566,4.04562,1.167,-1,5
567,4.04677,1.155,-1,5
568,4.04792,1.150,-1,5
569,4.04908,1.156,-1,5
570,4.05024,1.159,-1,5
571,4.05138,1.145,-1,5
572,4.05252,1.139,-1,5
573,4.05367,1.145,-1,5
574,4.05482,1.149,-1,5
575,4.05595,1.135,-1,5
576,4.05708,1.127,-1,5
577,4.05821,1.135,-1,5
578,4.05935,1.138,-1,5
579,4.06048,1.126,-1,5
580,4.06159,1.116,-1,5
581,4.06271,1.120,-1,5
582,4.06384,1.126,-1,5
583,4.06496,1.117,-1,5
584,4.06606,1.104,-1,5
585,4.06717,1.106,-1,5
586,4.06828,1.114,-1,5
587,4.06939,1.108,-1,5
588,4.07048,1.093,-1,5
589,4.07267,1.098,-1,5
590,4.07267,1.097,-1,5
591,4.07377,1.097,-1,5
592,4.07485,1.080,-1,5
593,4.07592,1.074,-1,5
594,4.07700,1.083,-1,5
595,4.07809,1.085,-1,5
596,4.07916,1.069,-1,5
597,4.08021,1.056,-1,5
598,4.08127,1.062,-1,5
599,4.08235,1.073,-1,5
600,4.08341,1.061,-1,5
601,4.08445,1.044,-1,5
602,4.08550,1.044,-1,5
603,4.08655,1.058,-1,5
604,4.08761,1.054,-1,5
605,4.08864,1.035,-1,5
606,4.08967,1.026,-1,5
607,4.09071,1.038,-1,5
608,4.09175,1.044,-1,5
609,4.09278,1.032,-1,5
610,4.09380,1.014,-1,5
611,4.09481,1.017,-1,5
612,4.09584,1.030,-1,5
613,4.09687,1.028,-1,5
614,4.09788,1.006,-1,5
615,4.09887,0.996,-1,5
616,4.09988,1.008,-1,5
617,4.10090,1.020,-1,5
618,4.10191,1.009,-1,5
619,4.10290,0.986,-1,5
620,4.10388,0.985,-1,5
621,4.10489,1.005,-1,5
622,4.10589,1.007,-1,5
623,4.10688,0.989,-1,5
624,4.10786,0.972,-1,5
625,4.10884,0.982,-1,5
626,4.10984,1.003,-1,5
627,4.11084,0.996,-1,5
628,4.11181,0.974,-1,5
629,4.11278,0.965,-1,5
630,4.11376,0.986,-1,5
631,4.11476,1.003,-1,5
632,4.11576,0.990,-1,5
633,4.11673,0.971,-1,5
634,4.11769,0.967,-1,5
635,4.11869,0.993,-1,5
636,4.11969,1.004,-1,5
637,4.12068,0.990,-1,5
638,4.12165,0.972,-1,5
639,4.12263,0.981,-1,5
640,4.12465,1.012,-1,5
641,4.12465,0.994,-1,5
642,4.12564,0.994,-1,5
643,4.12663,0.982,-1,5
644,4.12762,0.998,-1,5
645,4.12865,1.025,-1,5
646,4.12967,1.023,-1,5
647,4.13067,1.002,-1,5
648,4.13167,1.002,-1,5
649,4.13375,1.047,-1,5
650,4.13478,1.037,-1,5
651,4.13580,1.018,-1,5
652,4.13683,1.027,-1,5
653,4.13789,1.060,-1,5
654,4.13896,1.074,-1,5
655,4.14002,1.057,-1,5
656,4.14107,1.046,-1,5
657,4.14213,1.066,-1,5
658,4.14323,1.100,-1,5
659,4.14434,1.103,-1,5
660,4.14542,1.083,-1,5
661,4.14650,1.085,-1,5
662,4.14762,1.117,-1,5
663,4.14876,1.142,-1,5
664,4.14990,1.133,-1,5
665,4.15101,1.119,-1,5
666,4.15215,1.135,-1,5
667,4.15332,1.171,-1,5
668,4.15450,1.182,-1,5
669,4.15567,1.169,-1,5
670,4.15684,1.169,-1,5
671,4.15804,1.195,-1,5
672,4.15925,1.215,-1,5
673,4.16047,1.221,-1,5
674,4.16169,1.222,-1,5
675,4.16293,1.235,-1,5
676,4.16418,1.249,-1,5
677,4.16544,1.262,-1,5
678,4.16671,1.273,-1,5
679,4.16799,1.280,-1,5
680,4.16928,1.289,-1,5
681,4.17059,1.309,-1,5
682,4.17191,1.325,-1,5
683,4.17324,1.330,-1,5
684,4.17458,1.331,-1,5
685,4.17592,1.349,-1,5
686,4.17730,1.376,-1,5
687,4.17868,1.384,-1,5
688,4.18007,1.387,-1,5
689,4.18146,1.393,-1,5
690,4.18288,1.413,-1,5
691,4.18431,1.430,-1,5
692,4.18575,1.444,-1,5
693,4.18720,1.449,-1,5
694,4.18865,1.450,-1,5
695,4.19012,1.468,-1,5
696,4.19161,1.492,-1,5
697,4.19311,1.496,-1,5
698,4.19461,1.501,-1,5
699,4.19612,1.508,-1,5
700,4.19764,1.523,-1,5
701,4.19917,1.536,-1,5
702,4.20073,1.553,-1,5
703,4.20228,1.554,-1,5
704,4.20384,1.558,-1,5
705,4.20541,1.571,-1,5
706,4.20699,1.580,-1,5
707,4.20858,1.591,-1,5
708,4.21018,1.602,-1,5
709,4.21179,1.604,-1,5
710,4.21339,1.605,-1,5
711,4.21501,1.615,-1,5
712,4.21664,1.629,-1,5
713,4.21828,1.640,-1,5
714,4.21992,1.641,-1,5
715,4.22155,1.636,-1,5
716,4.22320,1.641,-1,5
717,4.22485,1.659,-1,5
718,4.22652,1.671,-1,5
719,4.22820,1.673,-1,5
720,4.22987,1.667,-1,5
721,4.23153,1.664,-1,5
722,4.23321,1.679,-1,5
723,4.23490,1.695,-1,5
724,4.23660,1.696,-1,5
725,4.23829,1.691,-1,5
726,4.23998,1.687,-1,5
727,4.24167,1.692,-1,5
728,4.24338,1.709,-1,5
729,4.24509,1.713,-1,5
730,4.24680,1.708,-1,5
731,4.24851,1.704,-1,5
732,4.25021,1.708,-1,5
733,4.25193,1.717,-1,5
734,4.25365,1.722,-1,5
735,4.25537,1.718,-1,5
736,4.25709,1.720,-1,5
737,4.25881,1.721,-1,5
738,4.26053,1.721,-1,5
739,4.26226,1.725,-1,5
740,4.26398,1.723,-1,5
741,4.26571,1.728,-1,5
742,4.26744,1.732,-1,5
743,4.26917,1.727,-1,5
744,4.27089,1.724,-1,5
745,4.27262,1.727,-1,5
746,4.27435,1.731,-1,5
747,4.27609,1.738,-1,5
748,4.27782,1.731,-1,5
749,4.27954,1.725,-1,5
750,4.28127,1.729,-1,5
751,4.28300,1.731,-1,5
752,4.28474,1.737,-1,5
753,4.28648,1.736,-1,5
754,4.28821,1.730,-1,5
755,4.28993,1.727,-1,5
756,4.29166,1.731,-1,5
757,4.29340,1.734,-1,5
758,4.29514,1.739,-1,5
759,4.29687,1.732,-1,5
760,4.29860,1.729,-1,5
761,4.30033,1.732,-1,5
762,4.30206,1.730,-1,5
763,4.30380,1.737,-1,5
764,4.30554,1.737,-1,5
765,4.30727,1.732,-1,5
766,4.30899,1.727,-1,5
767,4.31072,1.729,-1,5
768,4.31246,1.736,-1,5
769,4.31420,1.743,-1,5
770,4.31594,1.732,-1,5
771,4.31766,1.725,-1,5
772,4.31939,1.730,-1,5
773,4.32113,1.736,-1,5
774,4.32287,1.743,-1,5
775,4.32461,1.737,-1,5
776,4.32633,1.726,-1,5
777,4.32806,1.731,-1,5
778,4.32980,1.738,-1,5
779,4.33155,1.744,-1,5
780,4.33328,1.740,-1,5
781,4.33502,1.732,-1,5
782,4.33675,1.733,-1,5
783,4.33849,1.742,-1,5
784,4.34024,1.744,-1,5
785,4.34198,1.745,-1,5
786,4.34372,1.741,-1,5
787,4.34546,1.737,-1,5
788,4.34720,1.743,-1,5
789,4.34895,1.748,-1,5
790,4.35070,1.750,-1,5
791,4.35419,1.742,-1,5
792,4.35593,1.742,-1,5
793,4.35593,1.742,-1,5
794,4.35768,1.752,-1,5
795,4.35944,1.758,-1,5
796,4.36120,1.757,-1,5
797,4.36294,1.746,-1,5
798,4.36469,1.745,-1,5
799,4.36645,1.756,-1,5
800,4.36821,1.764,-1,5
801,4.37172,1.751,-1,5
802,4.37347,1.749,-1,5
803,4.37524,1.763,-1,5
804,4.37701,1.770,-1,5
805,4.37877,1.766,-1,5
806,4.38053,1.756,-1,5
807,4.38228,1.756,-1,5
808,4.38406,1.771,-1,5
809,4.38583,1.772,-1,5
810,4.38759,1.764,-1,5
811,4.38935,1.761,-1,5
812,4.39112,1.768,-1,5
813,4.39289,1.774,-1,5
814,4.39467,1.772,-1,5
815,4.39643,1.765,-1,5
816,4.39820,1.771,-1,5
817,4.39998,1.780,-1,5
818,4.40176,1.778,-1,5
819,4.40353,1.772,-1,5
820,4.40530,1.772,-1,5
821,4.40708,1.781,-1,5
822,4.40887,1.790,-1,5
823,4.41065,1.777,-1,5
824,4.41243,1.774,-1,5
825,4.41421,1.781,-1,5
826,4.41600,1.791,-1,5
827,4.41779,1.795,-1,5
828,4.41957,1.780,-1,5
829,4.42135,1.778,-1,5
830,4.42314,1.789,-1,5
831,4.42494,1.799,-1,5
832,4.42673,1.797,-1,5
833,4.42852,1.787,-1,5
834,4.43030,1.784,-1,5
835,4.43210,1.799,-1,5
836,4.43390,1.801,-1,5
837,4.43570,1.799,-1,5
838,4.43750,1.792,-1,5
839,4.43929,1.794,-1,5
840,4.44109,1.803,-1,5
841,4.44290,1.804,-1,5
842,4.44470,1.799,-1,5
843,4.44650,1.799,-1,5
844,4.44830,1.800,-1,5
845,4.45010,1.804,-1,5
846,4.45190,1.803,-1,5
847,4.45370,1.801,-1,5
848,4.45551,1.805,-1,5
849,4.45731,1.803,-1,5
850,4.45911,1.801,-1,5
851,4.46091,1.800,-1,5
852,4.46272,1.805,-1,5
853,4.46453,1.807,-1,5
854,4.46633,1.805,-1,5
855,4.46813,1.796,-1,5
856,4.46993,1.801,-1,5
857,4.47173,1.801,-1,5
858,4.47353,1.805,-1,5
859,4.47533,1.800,-1,5
860,4.47713,1.793,-1,5
861,4.47892,1.795,-1,5
862,4.48072,1.799,-1,5
863,4.48252,1.799,-1,5
864,4.48432,1.796,-1,5
865,4.48610,1.787,-1,5
866,4.48789,1.790,-1,5
867,4.48968,1.790,-1,5
868,4.49147,1.790,-1,5
869,4.49326,1.787,-1,5
870,4.49504,1.781,-1,5
871,4.49682,1.775,-1,5
872,4.49860,1.779,-1,5
873,4.50037,1.776,-1,5
