cnt,pos,speed,Dir,Force,
1,0,1.0003,-1,5
2,0.000999928,1.0033,-1,5
3,0.0020299,1.0059,-1,5
4,0.00304985,1.0078,-1,5
5,0.00407004,1.0101,-1,5
6,0.00509,1.0134,-1,5
7,0.00611997,1.0162,-1,5
8,0.00714993,1.0181,-1,5
9,0.0081799,1.0193,-1,5
10,0.00920987,1.0214,-1,5
11,0.0102398,1.0249,-1,5
12,0.0112898,1.0284,-1,5
13,0.0123398,1.0308,-1,5
14,0.0133801,1.0324,-1,5
15,0.01442,1.0347,-1,5
16,0.01547,1.0376,-1,5
17,0.01652,1.0404,-1,5
18,0.01758,1.0426,-1,5
19,0.01863,1.0451,-1,5
20,0.01969,1.0485,-1,5
21,0.0207698,1.0521,-1,5
22,0.0218399,1.0546,-1,5
23,0.0228999,1.0562,-1,5
24,0.0239599,1.0588,-1,5
25,0.0250399,1.0624,-1,5
26,0.02613,1.0657,-1,5
27,0.02721,1.0682,-1,5
28,0.02829,1.0709,-1,5
29,0.0293798,1.0743,-1,5
30,0.0304699,1.0777,-1,5
31,0.0315599,1.0797,-1,5
32,0.03265,1.0815,-1,5
33,0.0337501,1.0847,-1,5
34,0.0348499,1.0887,-1,5
35,0.03596,1.0916,-1,5
36,0.03706,1.0936,-1,5
37,0.0381699,1.0962,-1,5
38,0.03929,1.0996,-1,5
39,0.0404,1.1026,-1,5
40,0.0415199,1.1046,-1,5
41,0.04264,1.1074,-1,5
42,0.0437698,1.1113,-1,5
43,0.0448999,1.1151,-1,5
44,0.04603,1.1175,-1,5
45,0.0471599,1.1198,-1,5
46,0.0483,1.1231,-1,5
47,0.0494399,1.1271,-1,5
48,0.05059,1.13,-1,5
49,0.0517299,1.1327,-1,5
50,0.05288,1.1361,-1,5
51,0.05404,1.1399,-1,5
52,0.0551898,1.1427,-1,5
53,0.05635,1.1451,-1,5
54,0.0575099,1.1493,-1,5
55,0.0586801,1.1534,-1,5
56,0.05985,1.1566,-1,5
57,0.0610199,1.1588,-1,5
58,0.0621901,1.1617,-1,5
59,0.06337,1.1653,-1,5
60,0.0645499,1.1683,-1,5
61,0.0657299,1.1707,-1,5
62,0.06692,1.1741,-1,5
63,0.06812,1.1782,-1,5
64,0.0693099,1.1804,-1,5
65,0.0705099,1.1823,-1,5
66,0.0716999,1.1851,-1,5
67,0.0729098,1.1889,-1,5
68,0.07412,1.1925,-1,5
69,0.07532,1.1951,-1,5
70,0.07654,1.1986,-1,5
71,0.07776,1.2024,-1,5
72,0.07898,1.2052,-1,5
73,0.0801899,1.2073,-1,5
74,0.0814199,1.2104,-1,5
75,0.0826499,1.2147,-1,5
76,0.0838799,1.218,-1,5
77,0.0851099,1.2206,-1,5
78,0.08635,1.2235,-1,5
79,0.0876,1.2271,-1,5
80,0.08884,1.2296,-1,5
81,0.09008,1.232,-1,5
82,0.0913301,1.2354,-1,5
83,0.0925798,1.2389,-1,5
84,0.0938299,1.2414,-1,5
85,0.0950899,1.2437,-1,5
86,0.09635,1.247,-1,5
87,0.09762,1.2501,-1,5
88,0.0988801,1.2524,-1,5
89,0.10014,1.2548,-1,5
90,0.10141,1.2579,-1,5
91,0.10268,1.2606,-1,5
92,0.10396,1.2629,-1,5
93,0.10524,1.2654,-1,5
94,0.10652,1.2683,-1,5
95,0.1078,1.2705,-1,5
96,0.10908,1.2721,-1,5
97,0.11036,1.2743,-1,5
98,0.11165,1.2769,-1,5
99,0.11293,1.2789,-1,5
100,0.11423,1.2808,-1,5
101,0.11552,1.2833,-1,5
102,0.11681,1.2849,-1,5
103,0.1181,1.2858,-1,5
104,0.11939,1.2874,-1,5
105,0.12069,1.2893,-1,5
106,0.12199,1.2911,-1,5
107,0.12329,1.2926,-1,5
108,0.12459,1.2938,-1,5
109,0.12588,1.2948,-1,5
110,0.12718,1.2954,-1,5
111,0.12848,1.2963,-1,5
112,0.12979,1.2982,-1,5
113,0.1311,1.2999,-1,5
114,0.1324,1.3006,-1,5
115,0.1337,1.3014,-1,5
116,0.13501,1.3025,-1,5
117,0.13632,1.3031,-1,5
118,0.13763,1.3042,-1,5
119,0.13894,1.3056,-1,5
120,0.14025,1.3068,-1,5
121,0.14155,1.307,-1,5
122,0.14287,1.3074,-1,5
123,0.14418,1.3083,-1,5
124,0.14549,1.309,-1,5
125,0.1468,1.3092,-1,5
126,0.14811,1.3098,-1,5
127,0.14942,1.3101,-1,5
128,0.15072,1.3097,-1,5
129,0.15204,1.3097,-1,5
130,0.15335,1.3106,-1,5
131,0.15466,1.3109,-1,5
132,0.15597,1.3102,-1,5
133,0.15728,1.3097,-1,5
134,0.15859,1.31,-1,5
135,0.1599,1.31,-1,5
136,0.16121,1.3098,-1,5
137,0.16252,1.3104,-1,5
138,0.16383,1.3105,-1,5
139,0.16513,1.3098,-1,5
140,0.16644,1.3092,-1,5
141,0.16776,1.3097,-1,5
142,0.16907,1.31,-1,5
143,0.17037,1.3099,-1,5
144,0.17168,1.3096,-1,5
145,0.17299,1.3096,-1,5
146,0.17429,1.3086,-1,5
147,0.1756,1.3077,-1,5
148,0.17691,1.3079,-1,5
149,0.17821,1.3079,-1,5
150,0.17951,1.3069,-1,5
151,0.18082,1.3061,-1,5
152,0.18212,1.3055,-1,5
153,0.18342,1.3045,-1,5
154,0.18472,1.3035,-1,5
155,0.18602,1.3032,-1,5
156,0.18733,1.3031,-1,5
157,0.18862,1.3018,-1,5
158,0.18991,1.3005,-1,5
159,0.19122,1.3003,-1,5
160,0.19251,1.2999,-1,5
161,0.19381,1.2988,-1,5
162,0.19511,1.2982,-1,5
163,0.1964,1.2979,-1,5
164,0.19769,1.2971,-1,5
165,0.19899,1.2962,-1,5
166,0.20029,1.296,-1,5
167,0.20158,1.2958,-1,5
168,0.20286,1.295,-1,5
169,0.20416,1.294,-1,5
170,0.20545,1.2936,-1,5
171,0.20674,1.293,-1,5
172,0.20803,1.2923,-1,5
173,0.20932,1.2921,-1,5
174,0.21061,1.2922,-1,5
175,0.2119,1.2911,-1,5
176,0.21319,1.2899,-1,5
177,0.21448,1.29,-1,5
178,0.21577,1.2901,-1,5
179,0.21705,1.2895,-1,5
180,0.21834,1.2894,-1,5
181,0.21964,1.2897,-1,5
182,0.22092,1.2891,-1,5
183,0.22221,1.2885,-1,5
184,0.2235,1.2886,-1,5
185,0.22479,1.2891,-1,5
186,0.22608,1.2891,-1,5
187,0.22737,1.2889,-1,5
188,0.22866,1.2891,-1,5
189,0.22995,1.2894,-1,5
190,0.23124,1.2891,-1,5
191,0.23253,1.2891,-1,5
192,0.23382,1.29,-1,5
193,0.23511,1.2904,-1,5
194,0.2364,1.2901,-1,5
195,0.2377,1.2907,-1,5
196,0.23899,1.2914,-1,5
197,0.24028,1.2913,-1,5
198,0.24158,1.2916,-1,5
199,0.24287,1.2927,-1,5
200,0.24417,1.2936,-1,5
201,0.24547,1.2939,-1,5
202,0.24677,1.2946,-1,5
203,0.24807,1.296,-1,5
204,0.24937,1.2968,-1,5
205,0.25067,1.2973,-1,5
206,0.25197,1.2984,-1,5
207,0.25328,1.2999,-1,5
208,0.25458,1.3007,-1,5
209,0.25589,1.3016,-1,5
210,0.2572,1.303,-1,5
211,0.25851,1.304,-1,5
212,0.25981,1.3044,-1,5
213,0.26112,1.305,-1,5
214,0.26244,1.3067,-1,5
215,0.26375,1.3077,-1,5
216,0.26506,1.3086,-1,5
217,0.26638,1.3098,-1,5
218,0.26769,1.311,-1,5
219,0.269,1.3114,-1,5
220,0.27032,1.3123,-1,5
221,0.27165,1.3142,-1,5
222,0.27297,1.316,-1,5
223,0.27429,1.3172,-1,5
224,0.27562,1.3183,-1,5
225,0.27695,1.3198,-1,5
226,0.27827,1.3211,-1,5
227,0.27961,1.3229,-1,5
228,0.28094,1.3251,-1,5
229,0.28227,1.327,-1,5
230,0.28361,1.3283,-1,5
231,0.28495,1.3298,-1,5
232,0.28629,1.3316,-1,5
233,0.28762,1.3332,-1,5
234,0.28897,1.3351,-1,5
235,0.29031,1.3371,-1,5
236,0.29166,1.3385,-1,5
237,0.293,1.3395,-1,5
238,0.29435,1.3411,-1,5
239,0.2957,1.343,-1,5
240,0.29705,1.3445,-1,5
241,0.2984,1.3459,-1,5
242,0.29976,1.3475,-1,5
243,0.30112,1.3492,-1,5
244,0.30248,1.3507,-1,5
245,0.30384,1.3528,-1,5
246,0.30521,1.355,-1,5
247,0.30657,1.3566,-1,5
248,0.30793,1.3581,-1,5
249,0.30931,1.3603,-1,5
250,0.31068,1.3627,-1,5
251,0.31205,1.3649,-1,5
252,0.31343,1.3671,-1,5
253,0.31481,1.3692,-1,5
254,0.31619,1.371,-1,5
255,0.31757,1.373,-1,5
256,0.31896,1.3755,-1,5
257,0.32035,1.378,-1,5
258,0.32174,1.3802,-1,5
259,0.32313,1.3823,-1,5
260,0.32452,1.3844,-1,5
261,0.32592,1.3866,-1,5
262,0.32732,1.3892,-1,5
263,0.32873,1.3918,-1,5
264,0.33013,1.3942,-1,5
265,0.33154,1.3966,-1,5
266,0.33295,1.3993,-1,5
267,0.33437,1.4022,-1,5
268,0.33578,1.4049,-1,5
269,0.33721,1.4077,-1,5
270,0.33863,1.4107,-1,5
271,0.34006,1.4135,-1,5
272,0.34149,1.4165,-1,5
273,0.34292,1.4195,-1,5
274,0.34436,1.4227,-1,5
275,0.3458,1.4257,-1,5
276,0.34724,1.4285,-1,5
277,0.34868,1.4313,-1,5
278,0.35013,1.4349,-1,5
279,0.35159,1.4383,-1,5
280,0.35304,1.4413,-1,5
281,0.3545,1.4444,-1,5
282,0.35597,1.4476,-1,5
283,0.35743,1.4512,-1,5
284,0.3589,1.4549,-1,5
285,0.36038,1.4587,-1,5
286,0.36186,1.4621,-1,5
287,0.36334,1.4657,-1,5
288,0.36483,1.4696,-1,5
289,0.36632,1.4734,-1,5
290,0.36782,1.4773,-1,5
291,0.36932,1.4817,-1,5
292,0.37082,1.4856,-1,5
293,0.37233,1.4895,-1,5
294,0.37384,1.4937,-1,5
295,0.37536,1.4978,-1,5
296,0.37688,1.5019,-1,5
297,0.37841,1.5069,-1,5
298,0.37994,1.5111,-1,5
299,0.38148,1.5153,-1,5
300,0.38302,1.5202,-1,5
301,0.38457,1.525,-1,5
302,0.38612,1.5295,-1,5
303,0.38768,1.5346,-1,5
304,0.38924,1.54,-1,5
305,0.39081,1.5449,-1,5
306,0.39238,1.5504,-1,5
307,0.39396,1.5556,-1,5
308,0.39555,1.561,-1,5
309,0.39715,1.5669,-1,5
310,0.39875,1.573,-1,5
311,0.40035,1.5782,-1,5
312,0.40196,1.584,-1,5
313,0.40358,1.5902,-1,5
314,0.4052,1.596,-1,5
315,0.40684,1.6025,-1,5
316,0.40847,1.6089,-1,5
317,0.41011,1.6146,-1,5
318,0.41176,1.6209,-1,5
319,0.41342,1.6275,-1,5
320,0.41509,1.6339,-1,5
321,0.41676,1.6411,-1,5
322,0.41843,1.6477,-1,5
323,0.42012,1.6538,-1,5
324,0.42181,1.6611,-1,5
325,0.42352,1.6679,-1,5
326,0.42522,1.6747,-1,5
327,0.42693,1.6822,-1,5
328,0.42865,1.6892,-1,5
329,0.43038,1.6963,-1,5
330,0.43212,1.7035,-1,5
331,0.43386,1.7102,-1,5
332,0.43561,1.7177,-1,5
333,0.43737,1.7255,-1,5
334,0.43914,1.7326,-1,5
335,0.44091,1.7397,-1,5
336,0.44269,1.7479,-1,5
337,0.44448,1.7554,-1,5
338,0.44628,1.7638,-1,5
339,0.44808,1.771,-1,5
340,0.44989,1.778,-1,5
341,0.45171,1.7855,-1,5
342,0.45353,1.7946,-1,5
343,0.45537,1.8027,-1,5
344,0.45906,1.8102,-1,5
345,0.46091,1.8182,-1,5
346,0.46278,1.8262,-1,5
347,0.46466,1.8352,-1,5
348,0.46653,1.8423,-1,5
349,0.46841,1.8498,-1,5
350,0.4703,1.858,-1,5
351,0.47221,1.8672,-1,5
352,0.47412,1.8746,-1,5
353,0.47603,1.8814,-1,5
354,0.47795,1.8886,-1,5
355,0.47988,1.8962,-1,5
356,0.48182,1.9035,-1,5
357,0.48376,1.9103,-1,5
358,0.48571,1.9173,-1,5
359,0.48766,1.9248,-1,5
360,0.48962,1.9318,-1,5
361,0.49159,1.9381,-1,5
362,0.49357,1.9445,-1,5
363,0.49555,1.9519,-1,5
364,0.49753,1.9584,-1,5
365,0.49952,1.9641,-1,5
366,0.50152,1.9702,-1,5
367,0.50353,1.9769,-1,5
368,0.50554,1.983,-1,5
369,0.50754,1.9882,-1,5
370,0.50956,1.9937,-1,5
371,0.51159,2.0002,-1,5
372,0.51363,2.0059,-1,5
373,0.51565,2.0105,-1,5
374,0.51769,2.0156,-1,5
375,0.51974,2.0221,-1,5
376,0.5218,2.0279,-1,5
377,0.52385,2.0319,-1,5
378,0.5259,2.0365,-1,5
379,0.52796,2.0422,-1,5
380,0.53004,2.0484,-1,5
381,0.53212,2.0528,-1,5
382,0.53419,2.0566,-1,5
383,0.53627,2.0614,-1,5
384,0.53836,2.067,-1,5
385,0.54046,2.0721,-1,5
386,0.54255,2.0758,-1,5
387,0.54465,2.08,-1,5
388,0.54675,2.0846,-1,5
389,0.54886,2.0897,-1,5
390,0.55098,2.094,-1,5
391,0.55309,2.0974,-1,5
392,0.5552,2.1012,-1,5
393,0.55733,2.1062,-1,5
394,0.55947,2.1114,-1,5
395,0.5616,2.1143,-1,5
396,0.56373,2.1173,-1,5
397,0.56586,2.1214,-1,5
398,0.56801,2.1269,-1,5
399,0.57016,2.1304,-1,5
400,0.57231,2.1326,-1,5
401,0.57445,2.1358,-1,5
402,0.57661,2.1405,-1,5
403,0.57877,2.1444,-1,5
404,0.58093,2.1463,-1,5
405,0.58309,2.1487,-1,5
406,0.58525,2.1524,-1,5
407,0.58743,2.1568,-1,5
408,0.5896,2.1589,-1,5
409,0.59177,2.1608,-1,5
410,0.59394,2.1632,-1,5
411,0.59612,2.1673,-1,5
412,0.59831,2.1703,-1,5
413,0.60049,2.1717,-1,5
414,0.60267,2.1733,-1,5
415,0.60485,2.1765,-1,5
416,0.60705,2.1797,-1,5
417,0.60924,2.1807,-1,5
418,0.61142,2.1816,-1,5
419,0.61361,2.1836,-1,5
420,0.6158,2.1866,-1,5
421,0.618,2.1878,-1,5
422,0.62019,2.1883,-1,5
423,0.62238,2.1891,-1,5
424,0.62457,2.1908,-1,5
425,0.62678,2.1922,-1,5
426,0.62897,2.1926,-1,5
427,0.63116,2.1923,-1,5
428,0.63335,2.1925,-1,5
429,0.63555,2.1937,-1,5
430,0.63774,2.1938,-1,5
431,0.64211,2.1924,-1,5
432,0.64431,2.1928,-1,5
433,0.6465,2.1933,-1,5
434,0.6465,2.1921,-1,5
435,0.65086,2.1898,-1,5
436,0.65086,2.1887,-1,5
437,0.65305,2.1889,-1,5
438,0.65523,2.1888,-1,5
439,0.65741,2.1864,-1,5
440,0.65958,2.1838,-1,5
441,0.66176,2.1832,-1,5
442,0.66393,2.181,-1,5
443,0.6661,2.1787,-1,5
444,0.66826,2.1773,-1,5
445,0.67043,2.1757,-1,5
446,0.67259,2.1736,-1,5
447,0.67476,2.171,-1,5
448,0.67691,2.1682,-1,5
449,0.67906,2.1654,-1,5
450,0.68121,2.1635,-1,5
451,0.68337,2.1611,-1,5
452,0.68551,2.1583,-1,5
453,0.68765,2.1548,-1,5
454,0.68978,2.1518,-1,5
455,0.69193,2.1498,-1,5
456,0.69406,2.1465,-1,5
457,0.69618,2.1425,-1,5
458,0.6983,2.1388,-1,5
459,0.70043,2.1368,-1,5
460,0.70255,2.1336,-1,5
461,0.70466,2.1291,-1,5
462,0.70676,2.1242,-1,5
463,0.70886,2.1214,-1,5
464,0.71097,2.1172,-1,5
465,0.71306,2.1124,-1,5
466,0.71514,2.107,-1,5
467,0.71722,2.1029,-1,5
468,0.71931,2.0997,-1,5
469,0.72139,2.0948,-1,5
470,0.72345,2.0892,-1,5
471,0.72551,2.084,-1,5
472,0.72757,2.0803,-1,5
473,0.72964,2.0761,-1,5
474,0.73168,2.0716,-1,5
475,0.73372,2.066,-1,5
476,0.73575,2.0611,-1,5
477,0.73779,2.057,-1,5
478,0.73983,2.0518,-1,5
479,0.74185,2.0459,-1,5
480,0.74386,2.0402,-1,5
481,0.74587,2.0356,-1,5
482,0.74788,2.0309,-1,5
483,0.74988,2.0248,-1,5
484,0.75187,2.0191,-1,5
485,0.75386,2.0135,-1,5
486,0.75584,2.0091,-1,5
487,0.75783,2.0036,-1,5
488,0.7598,1.9977,-1,5
489,0.76177,1.9923,-1,5
490,0.76373,1.987,-1,5
491,0.76568,1.9819,-1,5
492,0.76764,1.9764,-1,5
493,0.76959,1.9711,-1,5
494,0.77153,1.9655,-1,5
495,0.77346,1.9599,-1,5
496,0.77539,1.9548,-1,5
497,0.77733,1.9497,-1,5
498,0.77925,1.9442,-1,5
499,0.78115,1.9381,-1,5
500,0.78306,1.933,-1,5
501,0.78497,1.9285,-1,5
502,0.78688,1.9232,-1,5
503,0.78877,1.9174,-1,5
504,0.79065,1.912,-1,5
505,0.79253,1.9077,-1,5
506,0.79442,1.9029,-1,5
507,0.7963,1.8975,-1,5
508,0.79817,1.8922,-1,5
509,0.80003,1.8878,-1,5
510,0.80189,1.8833,-1,5
511,0.80375,1.8783,-1,5
512,0.80561,1.8733,-1,5
513,0.80746,1.8688,-1,5
514,0.80929,1.8643,-1,5
515,0.81113,1.8595,-1,5
516,0.81297,1.8548,-1,5
517,0.81481,1.8507,-1,5
518,0.81664,1.8466,-1,5
519,0.81845,1.8421,-1,5
520,0.82026,1.8373,-1,5
521,0.82208,1.8329,-1,5
522,0.8239,1.8293,-1,5
523,0.82571,1.8255,-1,5
524,0.82751,1.8212,-1,5
525,0.8293,1.817,-1,5
526,0.8311,1.8128,-1,5
527,0.8329,1.8078,-1,5
528,0.83469,1.804,-1,5
529,0.83647,1.8006,-1,5
530,0.83825,1.7971,-1,5
531,0.84003,1.7935,-1,5
532,0.84182,1.7902,-1,5
533,0.8436,1.7871,-1,5
534,0.84536,1.7845,-1,5
535,0.84713,1.7818,-1,5
536,0.8489,1.7789,-1,5
537,0.85067,1.7772,-1,5
538,0.85244,1.7752,-1,5
539,0.8542,1.7729,-1,5
540,0.85596,1.7712,-1,5
541,0.85772,1.7685,-1,5
542,0.85948,1.7658,-1,5
543,0.86124,1.7642,-1,5
544,0.863,1.7633,-1,5
545,0.86475,1.7619,-1,5
546,0.8665,1.7598,-1,5
547,0.87001,1.7587,-1,5
548,0.87001,1.7576,-1,5
549,0.87352,1.7566,-1,5
550,0.87526,1.7552,-1,5
551,0.87701,1.7543,-1,5
552,0.87877,1.7543,-1,5
553,0.88053,1.7542,-1,5
554,0.88229,1.7534,-1,5
555,0.88403,1.7527,-1,5
556,0.88578,1.7526,-1,5
557,0.88754,1.7526,-1,5
558,0.8893,1.7531,-1,5
559,0.89106,1.7537,-1,5
560,0.89281,1.7544,-1,5
561,0.89456,1.7547,-1,5
562,0.89632,1.7549,-1,5
563,0.89809,1.7556,-1,5
564,0.89985,1.7569,-1,5
565,0.90161,1.7584,-1,5
566,0.90338,1.7598,-1,5
567,0.90514,1.7603,-1,5
568,0.90692,1.7616,-1,5
569,0.90869,1.7635,-1,5
570,0.91046,1.7655,-1,5
571,0.91223,1.7674,-1,5
572,0.91401,1.7687,-1,5
573,0.91579,1.7703,-1,5
574,0.91758,1.7727,-1,5
575,0.91936,1.775,-1,5
576,0.92114,1.7769,-1,5
577,0.92293,1.7787,-1,5
578,0.92473,1.7807,-1,5
579,0.92653,1.784,-1,5
580,0.92833,1.7868,-1,5
581,0.93012,1.7891,-1,5
582,0.93192,1.7915,-1,5
583,0.93374,1.7945,-1,5
584,0.93556,1.7981,-1,5
585,0.93738,1.8012,-1,5
586,0.93919,1.8041,-1,5
587,0.941,1.8075,-1,5
588,0.94284,1.8112,-1,5
589,0.94468,1.8146,-1,5
590,0.94651,1.818,-1,5
591,0.94834,1.8217,-1,5
592,0.95018,1.8256,-1,5
593,0.95203,1.8293,-1,5
594,0.95389,1.833,-1,5
595,0.95575,1.8374,-1,5
596,0.9576,1.8415,-1,5
597,0.95946,1.8455,-1,5
598,0.96133,1.8491,-1,5
599,0.96321,1.8534,-1,5
600,0.96509,1.8582,-1,5
601,0.96697,1.8625,-1,5
602,0.96884,1.8662,-1,5
603,0.97073,1.8702,-1,5
604,0.97264,1.875,-1,5
605,0.97455,1.8799,-1,5
606,0.97644,1.8841,-1,5
607,0.97834,1.8881,-1,5
608,0.98025,1.8927,-1,5
609,0.98218,1.8974,-1,5
610,0.98411,1.9019,-1,5
611,0.98603,1.9064,-1,5
612,0.98795,1.9125,-1,5
613,0.98989,1.9184,-1,5
614,0.99184,1.9225,-1,5
615,0.99378,1.9264,-1,5
616,0.99572,1.9311,-1,5
617,0.99767,1.9357,-1,5
618,0.99962,1.9398,-1,5
619,1.00159,1.9435,-1,5
620,1.00355,1.9472,-1,5
621,1.00551,1.9512,-1,5
622,1.00747,1.9538,-1,5
623,1.00945,1.9561,-1,5
624,1.01144,1.96,-1,5
625,1.01342,1.9636,-1,5
626,1.0154,1.9672,-1,5
627,1.01737,1.9705,-1,5
628,1.01937,1.9743,-1,5
629,1.02137,1.9781,-1,5
630,1.02337,1.9812,-1,5
631,1.02535,1.9841,-1,5
632,1.02735,1.9874,-1,5
633,1.02937,1.9916,-1,5
634,1.03138,1.9943,-1,5
635,1.03338,1.996,-1,5
636,1.03538,1.9983,-1,5
637,1.0374,2.0036,-1,5
638,1.03943,2.0072,-1,5
639,1.04145,2.0089,-1,5
640,1.04347,2.0109,-1,5
641,1.04548,2.0137,-1,5
642,1.04751,2.0169,-1,5
643,1.04955,2.0194,-1,5
644,1.05158,2.021,-1,5
645,1.0536,2.0232,-1,5
646,1.05563,2.0258,-1,5
647,1.05767,2.027,-1,5
648,1.05971,2.0285,-1,5
649,1.06175,2.0298,-1,5
650,1.06378,2.0311,-1,5
651,1.06581,2.0332,-1,5
652,1.06786,2.0358,-1,5
653,1.06991,2.0366,-1,5
654,1.07195,2.0374,-1,5
655,1.07399,2.0388,-1,5
656,1.07604,2.041,-1,5
657,1.07809,2.0427,-1,5
658,1.08014,2.0433,-1,5
659,1.08219,2.044,-1,5
660,1.08423,2.0455,-1,5
661,1.08629,2.0476,-1,5
662,1.08835,2.0484,-1,5
663,1.0904,2.0489,-1,5
664,1.09245,2.0497,-1,5
665,1.0945,2.0513,-1,5
666,1.09657,2.0533,-1,5
667,1.09863,2.0538,-1,5
668,1.10069,2.0545,-1,5
669,1.10274,2.0553,-1,5
670,1.10481,2.0575,-1,5
671,1.10688,2.0592,-1,5
672,1.10895,2.0601,-1,5
673,1.11101,2.061,-1,5
674,1.11308,2.0627,-1,5
675,1.11516,2.0654,-1,5
676,1.11724,2.0667,-1,5
677,1.11931,2.0678,-1,5
678,1.12139,2.0694,-1,5
679,1.12347,2.0727,-1,5
680,1.12556,2.0753,-1,5
681,1.12765,2.0768,-1,5
682,1.12974,2.0786,-1,5
683,1.13183,2.0816,-1,5
684,1.13393,2.0853,-1,5
685,1.13604,2.0879,-1,5
686,1.13814,2.0905,-1,5
687,1.14025,2.0936,-1,5
688,1.14236,2.0974,-1,5
689,1.14448,2.101,-1,5
690,1.1466,2.1043,-1,5
691,1.14873,2.1079,-1,5
692,1.15085,2.1116,-1,5
693,1.15299,2.1161,-1,5
694,1.15513,2.1201,-1,5
695,1.15728,2.1243,-1,5
696,1.15942,2.1282,-1,5
697,1.16158,2.1332,-1,5
698,1.16374,2.1383,-1,5
699,1.16591,2.1429,-1,5
700,1.16808,2.1473,-1,5
701,1.17026,2.1525,-1,5
702,1.17244,2.1586,-1,5
703,1.17463,2.1638,-1,5
704,1.17682,2.1689,-1,5
705,1.17902,2.1742,-1,5
706,1.18123,2.1808,-1,5
707,1.18345,2.1868,-1,5
708,1.18567,2.1926,-1,5
709,1.18789,2.1984,-1,5
710,1.19013,2.2053,-1,5
711,1.19238,2.212,-1,5
712,1.19463,2.2184,-1,5
713,1.19688,2.2245,-1,5
714,1.19914,2.2314,-1,5
715,1.20141,2.2389,-1,5
716,1.20369,2.2457,-1,5
717,1.20597,2.2519,-1,5
718,1.20826,2.2588,-1,5
719,1.21056,2.2668,-1,5
720,1.21287,2.2738,-1,5
721,1.21518,2.2803,-1,5
722,1.2175,2.2872,-1,5
723,1.21983,2.2952,-1,5
724,1.22217,2.303,-1,5
725,1.22451,2.3096,-1,5
726,1.22686,2.3165,-1,5
727,1.22922,2.3247,-1,5
728,1.23159,2.333,-1,5
729,1.23396,2.3397,-1,5
730,1.23634,2.3468,-1,5
731,1.23873,2.3553,-1,5
732,1.24113,2.3634,-1,5
733,1.24354,2.3709,-1,5
734,1.24595,2.3783,-1,5
735,1.24838,2.3867,-1,5
736,1.25081,2.3951,-1,5
737,1.25324,2.4028,-1,5
738,1.25569,2.4105,-1,5
739,1.25815,2.4194,-1,5
740,1.26062,2.428,-1,5
741,1.26309,2.4359,-1,5
742,1.26558,2.4445,-1,5
743,1.26807,2.4534,-1,5
744,1.27057,2.4619,-1,5
745,1.27308,2.4703,-1,5
746,1.2756,2.4789,-1,5
747,1.27812,2.4878,-1,5
748,1.28066,2.4963,-1,5
749,1.2832,2.5046,-1,5
750,1.28575,2.5133,-1,5
751,1.28831,2.522,-1,5
752,1.29088,2.5304,-1,5
753,1.29346,2.5386,-1,5
754,1.29604,2.5472,-1,5
755,1.29864,2.5559,-1,5
756,1.30124,2.564,-1,5
757,1.30385,2.5725,-1,5
758,1.30647,2.5809,-1,5
759,1.30909,2.5891,-1,5
760,1.31172,2.5974,-1,5
761,1.31437,2.6057,-1,5
762,1.31701,2.6134,-1,5
763,1.31967,2.6213,-1,5
764,1.32233,2.6292,-1,5
765,1.325,2.6374,-1,5
766,1.32768,2.6452,-1,5
767,1.33036,2.6519,-1,5
768,1.33305,2.6587,-1,5
769,1.33574,2.666,-1,5
770,1.34114,2.673,-1,5
771,1.34385,2.6799,-1,5
772,1.34656,2.6864,-1,5
773,1.34928,2.6923,-1,5
774,1.352,2.6984,-1,5
775,1.35473,2.7033,-1,5
776,1.35745,2.7081,-1,5
777,1.36019,2.7135,-1,5
778,1.36292,2.7183,-1,5
779,1.36566,2.7221,-1,5
780,1.3684,2.7257,-1,5
781,1.37114,2.7287,-1,5
782,1.37388,2.7318,-1,5
783,1.37663,2.7348,-1,5
784,1.37937,2.7372,-1,5
785,1.38212,2.7393,-1,5
786,1.38487,2.7415,-1,5
787,1.38761,2.7429,-1,5
788,1.39036,2.7443,-1,5
789,1.39311,2.7455,-1,5
790,1.39586,2.7459,-1,5
791,1.3986,2.7462,-1,5
792,1.40135,2.7464,-1,5
793,1.40409,2.7461,-1,5
794,1.40683,2.7454,-1,5
795,1.40957,2.7448,-1,5
796,1.41231,2.7437,-1,5
797,1.41504,2.7424,-1,5
798,1.41777,2.7408,-1,5
799,1.4205,2.739,-1,5
800,1.42323,2.7372,-1,5
801,1.42595,2.7348,-1,5
802,1.42867,2.732,-1,5
803,1.43138,2.7295,-1,5
804,1.43409,2.7261,-1,5
805,1.4368,2.7229,-1,5
806,1.4395,2.7196,-1,5
807,1.4422,2.7158,-1,5
808,1.44489,2.7119,-1,5
809,1.44758,2.7077,-1,5
810,1.45026,2.7033,-1,5
811,1.45294,2.6989,-1,5
812,1.45561,2.6946,-1,5
813,1.45828,2.6897,-1,5
814,1.46094,2.6846,-1,5
815,1.46359,2.6792,-1,5
816,1.46624,2.674,-1,5
817,1.46889,2.669,-1,5
818,1.47152,2.6631,-1,5
819,1.47415,2.6569,-1,5
820,1.47678,2.6514,-1,5
821,1.47939,2.6454,-1,5
822,1.482,2.6389,-1,5
823,1.4846,2.6325,-1,5
824,1.4872,2.6264,-1,5
825,1.48978,2.6194,-1,5
826,1.49237,2.6127,-1,5
827,1.49494,2.6058,-1,5
828,1.49751,2.5987,-1,5
829,1.50007,2.5918,-1,5
830,1.50262,2.5846,-1,5
831,1.50517,2.5774,-1,5
832,1.50771,2.5703,-1,5
833,1.51023,2.5629,-1,5
834,1.51276,2.5558,-1,5
835,1.51528,2.5489,-1,5
836,1.51778,2.5413,-1,5
837,1.52029,2.5339,-1,5
838,1.52278,2.5272,-1,5
839,1.52527,2.5204,-1,5
