cnt,pos,speed,Dir,Force,
1,4.42431,0.773,-1,4
2,4.42509,0.782,-1,4
3,4.42587,0.777,-1,4
4,4.42665,0.766,-1,4
5,4.42742,0.759,-1,4
6,4.42817,0.759,-1,4
7,4.42894,0.765,-1,4
8,4.42971,0.769,-1,4
9,4.43048,0.768,-1,4
10,4.43124,0.761,-1,4
11,4.43199,0.754,-1,4
12,4.43274,0.752,-1,4
13,4.43350,0.753,-1,4
14,4.43425,0.755,-1,4
15,4.43501,0.754,-1,4
16,4.43575,0.746,-1,4
17,4.43649,0.742,-1,4
18,4.43723,0.741,-1,4
19,4.43798,0.741,-1,4
20,4.43871,0.740,-1,4
21,4.43945,0.737,-1,4
22,4.44019,0.732,-1,4
23,4.44165,0.728,-1,4
24,4.44237,0.724,-1,4
25,4.44309,0.721,-1,4
26,4.44382,0.723,-1,4
27,4.44454,0.722,-1,4
28,4.44526,0.720,-1,4
29,4.44597,0.715,-1,4
30,4.44668,0.710,-1,4
31,4.44739,0.710,-1,4
32,4.44810,0.709,-1,4
33,4.44881,0.711,-1,4
34,4.44952,0.706,-1,4
35,4.45022,0.702,-1,4
36,4.45092,0.698,-1,4
37,4.45162,0.698,-1,4
38,4.45231,0.697,-1,4
39,4.45301,0.697,-1,4
40,4.45370,0.694,-1,4
41,4.45440,0.691,-1,4
42,4.45509,0.691,-1,4
43,4.45578,0.689,-1,4
44,4.45646,0.686,-1,4
45,4.45714,0.682,-1,4
46,4.45783,0.682,-1,4
47,4.45851,0.683,-1,4
48,4.45919,0.682,-1,4
49,4.45987,0.678,-1,4
50,4.46054,0.673,-1,4
51,4.46121,0.672,-1,4
52,4.46189,0.673,-1,4
53,4.46256,0.674,-1,4
54,4.46323,0.672,-1,4
55,4.46390,0.668,-1,4
56,4.46457,0.665,-1,4
57,4.46523,0.663,-1,4
58,4.46589,0.662,-1,4
59,4.46655,0.660,-1,4
60,4.46721,0.660,-1,4
61,4.46787,0.658,-1,4
62,4.46853,0.656,-1,4
63,4.46918,0.655,-1,4
64,4.46983,0.652,-1,4
65,4.47048,0.651,-1,4
66,4.47113,0.650,-1,4
67,4.47178,0.647,-1,4
68,4.47243,0.647,-1,4
69,4.47307,0.646,-1,4
70,4.47372,0.643,-1,4
71,4.47436,0.640,-1,4
72,4.47500,0.639,-1,4
73,4.47563,0.637,-1,4
74,4.47627,0.637,-1,4
75,4.47691,0.637,-1,4
76,4.47754,0.637,-1,4
77,4.47818,0.633,-1,4
78,4.47881,0.633,-1,4
79,4.47944,0.632,-1,4
80,4.48007,0.628,-1,4
81,4.48070,0.627,-1,4
82,4.48132,0.626,-1,4
83,4.48195,0.628,-1,4
84,4.48258,0.626,-1,4
85,4.48320,0.624,-1,4
86,4.48382,0.621,-1,4
87,4.48444,0.619,-1,4
88,4.48506,0.619,-1,4
89,4.48568,0.621,-1,4
90,4.48630,0.621,-1,4
91,4.48692,0.620,-1,4
92,4.48754,0.616,-1,4
93,4.48815,0.615,-1,4
94,4.48877,0.613,-1,4
95,4.48938,0.613,-1,4
96,4.48999,0.610,-1,4
97,4.49060,0.609,-1,4
98,4.49121,0.611,-1,4
99,4.49182,0.609,-1,4
100,4.49242,0.607,-1,4
101,4.49303,0.604,-1,4
102,4.49363,0.604,-1,4
103,4.49424,0.604,-1,4
104,4.49484,0.603,-1,4
105,4.49544,0.602,-1,4
106,4.49604,0.600,-1,4
107,4.49664,0.599,-1,4
108,4.49724,0.597,-1,4
109,4.49783,0.596,-1,4
110,4.49843,0.595,-1,4
111,4.49902,0.593,-1,4
112,4.49961,0.591,-1,4
113,4.50020,0.590,-1,4
114,4.50079,0.592,-1,4
115,4.50138,0.591,-1,4
116,4.50197,0.590,-1,4
117,4.50256,0.588,-1,4
118,4.50315,0.588,-1,4
119,4.50374,0.587,-1,4
120,4.50432,0.586,-1,4
121,4.50491,0.585,-1,4
122,4.50549,0.586,-1,4
123,4.50608,0.586,-1,4
124,4.50666,0.585,-1,4
125,4.50725,0.582,-1,4
126,4.50783,0.582,-1,4
127,4.50841,0.582,-1,4
128,4.50899,0.582,-1,4
129,4.50957,0.581,-1,4
130,4.51016,0.583,-1,4
131,4.51074,0.583,-1,4
132,4.51132,0.582,-1,4
133,4.51191,0.581,-1,4
134,4.51249,0.581,-1,4
135,4.51307,0.580,-1,4
136,4.51365,0.582,-1,4
137,4.51423,0.582,-1,4
138,4.51481,0.582,-1,4
139,4.51539,0.581,-1,4
140,4.51597,0.582,-1,4
141,4.51655,0.581,-1,4
142,4.51714,0.582,-1,4
143,4.51772,0.580,-1,4
144,4.51830,0.581,-1,4
145,4.51888,0.582,-1,4
146,4.51946,0.583,-1,4
147,4.52004,0.582,-1,4
148,4.52062,0.579,-1,4
149,4.52120,0.581,-1,4
150,4.52179,0.581,-1,4
151,4.52237,0.581,-1,4
152,4.52295,0.580,-1,4
153,4.52353,0.580,-1,4
154,4.52411,0.583,-1,4
155,4.52469,0.584,-1,4
156,4.52528,0.582,-1,4
157,4.52586,0.580,-1,4
158,4.52644,0.582,-1,4
159,4.52702,0.582,-1,4
160,4.52760,0.582,-1,4
161,4.52818,0.582,-1,4
162,4.52877,0.583,-1,4
163,4.52935,0.585,-1,4
164,4.52994,0.586,-1,4
165,4.53052,0.585,-1,4
166,4.53111,0.583,-1,4
167,4.53169,0.584,-1,4
168,4.53228,0.587,-1,4
169,4.53286,0.589,-1,4
170,4.53345,0.590,-1,4
171,4.53404,0.589,-1,4
172,4.53463,0.590,-1,4
173,4.53522,0.591,-1,4
174,4.53581,0.591,-1,4
175,4.53641,0.591,-1,4
176,4.53700,0.591,-1,4
177,4.53759,0.594,-1,4
178,4.53819,0.596,-1,4
179,4.53879,0.598,-1,4
180,4.53938,0.597,-1,4
181,4.53998,0.598,-1,4
182,4.54058,0.598,-1,4
183,4.54118,0.601,-1,4
184,4.54178,0.602,-1,4
185,4.54239,0.604,-1,4
186,4.54299,0.604,-1,4
187,4.54360,0.606,-1,4
188,4.54420,0.608,-1,4
189,4.54481,0.607,-1,4
190,4.54542,0.608,-1,4
191,4.54603,0.608,-1,4
192,4.54664,0.609,-1,4
193,4.54725,0.612,-1,4
194,4.54786,0.614,-1,4
195,4.54848,0.615,-1,4
196,4.54909,0.614,-1,4
197,4.54971,0.615,-1,4
198,4.55032,0.616,-1,4
199,4.55094,0.617,-1,4
200,4.55156,0.618,-1,4
201,4.55218,0.619,-1,4
202,4.55280,0.622,-1,4
203,4.55342,0.621,-1,4
204,4.55404,0.621,-1,4
205,4.55466,0.621,-1,4
206,4.55528,0.622,-1,4
207,4.55591,0.622,-1,4
208,4.55653,0.625,-1,4
209,4.55716,0.626,-1,4
210,4.55778,0.628,-1,4
211,4.55841,0.627,-1,4
212,4.55904,0.626,-1,4
213,4.55967,0.628,-1,4
214,4.56030,0.630,-1,4
215,4.56093,0.631,-1,4
216,4.56156,0.631,-1,4
217,4.56219,0.633,-1,4
218,4.56282,0.635,-1,4
219,4.56346,0.633,-1,4
220,4.56409,0.635,-1,4
221,4.56473,0.635,-1,4
222,4.56536,0.636,-1,4
223,4.56600,0.637,-1,4
224,4.56664,0.639,-1,4
225,4.56728,0.640,-1,4
226,4.56792,0.640,-1,4
227,4.56856,0.642,-1,4
228,4.56921,0.642,-1,4
229,4.56985,0.642,-1,4
230,4.57049,0.643,-1,4
231,4.57114,0.645,-1,4
232,4.57178,0.647,-1,4
233,4.57243,0.649,-1,4
234,4.57308,0.648,-1,4
235,4.57373,0.646,-1,4
236,4.57437,0.648,-1,4
237,4.57502,0.648,-1,4
238,4.57567,0.650,-1,4
239,4.57633,0.654,-1,4
240,4.57698,0.652,-1,4
241,4.57763,0.651,-1,4
242,4.57828,0.652,-1,4
243,4.57893,0.652,-1,4
244,4.57959,0.654,-1,4
245,4.58024,0.655,-1,4
246,4.58090,0.655,-1,4
247,4.58155,0.656,-1,4
248,4.58221,0.656,-1,4
249,4.58286,0.656,-1,4
250,4.58352,0.656,-1,4
251,4.58418,0.655,-1,4
252,4.58483,0.657,-1,4
253,4.58549,0.658,-1,4
254,4.58615,0.659,-1,4
255,4.58681,0.660,-1,4
256,4.58747,0.658,-1,4
257,4.58813,0.657,-1,4
258,4.58878,0.659,-1,4
259,4.58944,0.660,-1,4
260,4.59011,0.663,-1,4
261,4.59077,0.664,-1,4
262,4.59143,0.662,-1,4
263,4.59210,0.663,-1,4
264,4.59276,0.663,-1,4
265,4.59342,0.665,-1,4
266,4.59409,0.665,-1,4
267,4.59475,0.665,-1,4
268,4.59542,0.668,-1,4
269,4.59609,0.668,-1,4
270,4.59676,0.670,-1,4
271,4.59743,0.669,-1,4
272,4.59810,0.669,-1,4
273,4.59877,0.674,-1,4
274,4.59944,0.675,-1,4
275,4.60079,0.673,-1,4
276,4.60079,0.674,-1,4
277,4.60146,0.674,-1,4
278,4.60214,0.673,-1,4
279,4.60281,0.677,-1,4
280,4.60349,0.678,-1,4
281,4.60417,0.679,-1,4
282,4.60485,0.680,-1,4
283,4.60553,0.682,-1,4
284,4.60621,0.681,-1,4
285,4.60690,0.682,-1,4
286,4.60758,0.682,-1,4
287,4.60826,0.684,-1,4
288,4.60895,0.686,-1,4
289,4.60963,0.686,-1,4
290,4.61032,0.689,-1,4
291,4.61101,0.685,-1,4
292,4.61170,0.688,-1,4
293,4.61238,0.693,-1,4
294,4.61308,0.693,-1,4
295,4.61377,0.693,-1,4
296,4.61447,0.696,-1,4
297,4.61516,0.692,-1,4
298,4.61585,0.694,-1,4
299,4.61655,0.694,-1,4
300,4.61724,0.697,-1,4
301,4.61794,0.698,-1,4
302,4.61864,0.701,-1,4
303,4.61934,0.703,-1,4
304,4.62005,0.704,-1,4
305,4.62075,0.703,-1,4
306,4.62146,0.704,-1,4
307,4.62216,0.707,-1,4
308,4.62287,0.709,-1,4
309,4.62359,0.714,-1,4
310,4.62430,0.713,-1,4
311,4.62501,0.714,-1,4
312,4.62573,0.714,-1,4
313,4.62644,0.715,-1,4
314,4.62716,0.721,-1,4
315,4.62789,0.723,-1,4
316,4.62861,0.725,-1,4
317,4.62934,0.726,-1,4
318,4.63006,0.724,-1,4
319,4.63079,0.728,-1,4
320,4.63152,0.731,-1,4
321,4.63225,0.733,-1,4
322,4.63299,0.735,-1,4
323,4.63372,0.736,-1,4
324,4.63446,0.736,-1,4
325,4.63520,0.739,-1,4
326,4.63594,0.740,-1,4
327,4.63668,0.743,-1,4
328,4.63743,0.744,-1,4
329,4.63817,0.748,-1,4
330,4.63892,0.748,-1,4
331,4.63967,0.748,-1,4
332,4.64042,0.749,-1,4
333,4.64117,0.749,-1,4
334,4.64192,0.753,-1,4
335,4.64268,0.759,-1,4
336,4.64344,0.760,-1,4
337,4.64420,0.758,-1,4
338,4.64496,0.757,-1,4
339,4.64572,0.760,-1,4
340,4.64648,0.766,-1,4
341,4.64725,0.770,-1,4
342,4.64802,0.771,-1,4
343,4.64879,0.768,-1,4
344,4.64956,0.768,-1,4
345,4.65033,0.772,-1,4
346,4.65111,0.778,-1,4
347,4.65189,0.782,-1,4
348,4.65267,0.781,-1,4
349,4.65345,0.779,-1,4
350,4.65423,0.782,-1,4
351,4.65501,0.785,-1,4
352,4.65581,0.790,-1,4
353,4.65660,0.793,-1,4
354,4.65739,0.792,-1,4
355,4.65818,0.792,-1,4
356,4.65898,0.795,-1,4
357,4.65978,0.799,-1,4
358,4.66058,0.801,-1,4
359,4.66138,0.803,-1,4
360,4.66218,0.804,-1,4
361,4.66299,0.804,-1,4
362,4.66379,0.805,-1,4
363,4.66460,0.807,-1,4
364,4.66541,0.812,-1,4
365,4.66623,0.814,-1,4
366,4.66704,0.814,-1,4
367,4.66786,0.815,-1,4
368,4.66867,0.815,-1,4
369,4.66949,0.817,-1,4
370,4.67031,0.822,-1,4
371,4.67114,0.825,-1,4
372,4.67196,0.825,-1,4
373,4.67278,0.823,-1,4
374,4.67361,0.825,-1,4
375,4.67444,0.829,-1,4
376,4.67527,0.835,-1,4
377,4.67611,0.837,-1,4
378,4.67694,0.835,-1,4
379,4.67778,0.832,-1,4
380,4.67861,0.837,-1,4
381,4.67946,0.843,-1,4
382,4.68030,0.847,-1,4
383,4.68115,0.847,-1,4
384,4.68200,0.846,-1,4
385,4.68284,0.848,-1,4
386,4.68370,0.854,-1,4
387,4.68456,0.858,-1,4
388,4.68541,0.859,-1,4
389,4.68627,0.858,-1,4
390,4.68713,0.858,-1,4
391,4.68799,0.862,-1,4
392,4.68886,0.866,-1,4
393,4.68973,0.871,-1,4
394,4.69060,0.871,-1,4
395,4.69147,0.870,-1,4
396,4.69234,0.870,-1,4
397,4.69321,0.874,-1,4
398,4.69409,0.881,-1,4
399,4.69498,0.882,-1,4
400,4.69586,0.880,-1,4
401,4.69673,0.878,-1,4
402,4.69762,0.881,-1,4
403,4.69851,0.890,-1,4
404,4.69940,0.893,-1,4
405,4.70029,0.890,-1,4
406,4.70118,0.889,-1,4
407,4.70207,0.891,-1,4
408,4.70297,0.898,-1,4
409,4.70387,0.902,-1,4
410,4.70477,0.900,-1,4
411,4.70567,0.898,-1,4
412,4.70657,0.902,-1,4
413,4.70748,0.908,-1,4
414,4.70839,0.912,-1,4
415,4.70930,0.913,-1,4
416,4.71021,0.912,-1,4
417,4.71113,0.913,-1,4
418,4.71204,0.914,-1,4
419,4.71296,0.924,-1,4
420,4.71389,0.927,-1,4
421,4.71481,0.924,-1,4
422,4.71574,0.924,-1,4
423,4.71666,0.926,-1,4
424,4.71760,0.934,-1,4
425,4.71854,0.940,-1,4
426,4.71947,0.931,-1,4
427,4.72040,0.931,-1,4
428,4.72134,0.947,-1,4
429,4.72229,0.947,-1,4
430,4.72324,0.954,-1,4
431,4.72419,0.947,-1,4
432,4.72513,0.944,-1,4
433,4.72608,0.949,-1,4
434,4.72705,0.961,-1,4
435,4.72801,0.966,-1,4
436,4.72897,0.961,-1,4
437,4.72993,0.957,-1,4
438,4.73089,0.965,-1,4
439,4.73187,0.977,-1,4
440,4.73285,0.981,-1,4
441,4.73383,0.974,-1,4
442,4.73480,0.971,-1,4
443,4.73578,0.979,-1,4
444,4.73677,0.995,-1,4
445,4.73777,0.996,-1,4
446,4.73876,0.991,-1,4
447,4.73974,0.987,-1,4
448,4.74074,0.997,-1,4
449,4.74175,1.013,-1,4
450,4.74276,1.011,-1,4
451,4.74377,1.003,-1,4
452,4.74477,1.004,-1,4
453,4.74579,1.016,-1,4
454,4.74682,1.029,-1,4
455,4.74785,1.028,-1,4
456,4.74886,1.017,-1,4
457,4.74988,1.018,-1,4
458,4.75092,1.035,-1,4
459,4.75196,1.046,-1,4
460,4.75300,1.038,-1,4
461,4.75403,1.029,-1,4
462,4.75507,1.036,-1,4
463,4.75612,1.056,-1,4
464,4.75718,1.060,-1,4
465,4.75823,1.050,-1,4
466,4.75927,1.040,-1,4
467,4.76032,1.054,-1,4
468,4.76140,1.072,-1,4
469,4.76247,1.074,-1,4
470,4.76353,1.058,-1,4
471,4.76459,1.058,-1,4
472,4.76566,1.075,-1,4
473,4.76675,1.087,-1,4
474,4.76783,1.078,-1,4
475,4.76890,1.069,-1,4
476,4.76997,1.077,-1,4
477,4.77107,1.096,-1,4
478,4.77217,1.098,-1,4
479,4.77325,1.085,-1,4
480,4.77433,1.082,-1,4
481,4.77543,1.097,-1,4
482,4.77654,1.109,-1,4
483,4.77764,1.101,-1,4
484,4.77873,1.090,-1,4
485,4.77983,1.099,-1,4
486,4.78095,1.116,-1,4
487,4.78206,1.113,-1,4
488,4.78316,1.101,-1,4
489,4.78426,1.102,-1,4
490,4.78538,1.117,-1,4
491,4.78650,1.122,-1,4
492,4.78762,1.113,-1,4
493,4.78872,1.109,-1,4
494,4.78984,1.119,-1,4
495,4.79097,1.128,-1,4
496,4.79209,1.122,-1,4
497,4.79321,1.116,-1,4
498,4.79433,1.123,-1,4
499,4.79547,1.133,-1,4
500,4.79660,1.132,-1,4
501,4.79772,1.126,-1,4
502,4.79885,1.126,-1,4
503,4.79998,1.131,-1,4
504,4.80111,1.133,-1,4
505,4.80224,1.131,-1,4
506,4.80338,1.133,-1,4
507,4.80452,1.138,-1,4
508,4.80565,1.134,-1,4
509,4.80678,1.127,-1,4
510,4.80791,1.128,-1,4
511,4.80904,1.136,-1,4
512,4.81018,1.137,-1,4
513,4.81131,1.134,-1,4
514,4.81244,1.131,-1,4
515,4.81357,1.132,-1,4
516,4.81471,1.131,-1,4
517,4.81583,1.127,-1,4
518,4.81696,1.127,-1,4
519,4.81809,1.132,-1,4
520,4.81923,1.136,-1,4
521,4.82036,1.128,-1,4
522,4.82148,1.120,-1,4
523,4.82260,1.122,-1,4
524,4.82372,1.127,-1,4
525,4.82485,1.126,-1,4
526,4.82597,1.120,-1,4
527,4.82709,1.119,-1,4
528,4.82821,1.121,-1,4
529,4.82933,1.117,-1,4
530,4.83044,1.110,-1,4
531,4.83155,1.109,-1,4
532,4.83266,1.113,-1,4
533,4.83377,1.111,-1,4
534,4.83487,1.104,-1,4
535,4.83598,1.101,-1,4
536,4.83708,1.101,-1,4
537,4.83817,1.099,-1,4
538,4.83927,1.091,-1,4
539,4.84035,1.089,-1,4
540,4.84145,1.093,-1,4
541,4.84254,1.093,-1,4
542,4.84363,1.086,-1,4
543,4.84470,1.075,-1,4
544,4.84578,1.075,-1,4
545,4.84686,1.078,-1,4
546,4.84793,1.075,-1,4
547,4.84900,1.066,-1,4
548,4.85006,1.066,-1,4
549,4.85113,1.069,-1,4
550,4.85220,1.069,-1,4
551,4.85326,1.056,-1,4
552,4.85431,1.049,-1,4
553,4.85536,1.050,-1,4
554,4.85641,1.057,-1,4
555,4.85746,1.050,-1,4
556,4.85850,1.041,-1,4
557,4.85954,1.041,-1,4
558,4.86059,1.042,-1,4
559,4.86163,1.040,-1,4
560,4.86266,1.029,-1,4
561,4.86368,1.022,-1,4
562,4.86470,1.027,-1,4
563,4.86574,1.032,-1,4
564,4.86676,1.025,-1,4
565,4.86777,1.013,-1,4
566,4.86879,1.012,-1,4
567,4.86980,1.016,-1,4
568,4.87082,1.014,-1,4
569,4.87182,1.006,-1,4
570,4.87282,0.998,-1,4
571,4.87382,1.001,-1,4
572,4.87483,1.008,-1,4
573,4.87583,1.002,-1,4
574,4.87682,0.991,-1,4
575,4.87781,0.985,-1,4
576,4.87880,0.991,-1,4
577,4.87980,0.996,-1,4
578,4.88078,0.986,-1,4
579,4.88176,0.978,-1,4
580,4.88274,0.978,-1,4
581,4.88372,0.986,-1,4
582,4.88471,0.985,-1,4
583,4.88568,0.971,-1,4
584,4.88664,0.962,-1,4
585,4.88761,0.968,-1,4
586,4.88859,0.978,-1,4
587,4.88956,0.973,-1,4
588,4.89052,0.959,-1,4
589,4.89147,0.953,-1,4
590,4.89243,0.962,-1,4
591,4.89340,0.967,-1,4
592,4.89436,0.959,-1,4
593,4.89530,0.943,-1,4
594,4.89624,0.940,-1,4
595,4.89720,0.954,-1,4
596,4.89816,0.958,-1,4
597,4.89910,0.947,-1,4
598,4.90003,0.931,-1,4
599,4.90096,0.929,-1,4
600,4.90191,0.944,-1,4
601,4.90285,0.947,-1,4
602,4.90379,0.932,-1,4
603,4.90470,0.916,-1,4
604,4.90562,0.923,-1,4
605,4.90656,0.938,-1,4
606,4.90750,0.937,-1,4
607,4.90842,0.917,-1,4
608,4.90932,0.904,-1,4
609,4.91023,0.913,-1,4
610,4.91116,0.928,-1,4
611,4.91209,0.924,-1,4
612,4.91299,0.905,-1,4
613,4.91389,0.897,-1,4
614,4.91479,0.906,-1,4
615,4.91571,0.917,-1,4
616,4.91662,0.908,-1,4
617,4.91751,0.892,-1,4
618,4.91840,0.886,-1,4
619,4.91929,0.895,-1,4
620,4.92019,0.901,-1,4
621,4.92109,0.896,-1,4
622,4.92197,0.882,-1,4
623,4.92285,0.876,-1,4
624,4.92373,0.882,-1,4
625,4.92461,0.885,-1,4
626,4.92549,0.880,-1,4
627,4.92636,0.870,-1,4
628,4.92723,0.866,-1,4
629,4.92810,0.870,-1,4
630,4.92897,0.871,-1,4
631,4.92984,0.866,-1,4
632,4.93070,0.859,-1,4
633,4.93155,0.857,-1,4
634,4.93241,0.859,-1,4
635,4.93327,0.857,-1,4
636,4.93412,0.852,-1,4
637,4.93497,0.852,-1,4
638,4.93582,0.851,-1,4
639,4.93667,0.849,-1,4
640,4.93752,0.844,-1,4
641,4.93836,0.842,-1,4
642,4.93920,0.844,-1,4
643,4.94005,0.844,-1,4
644,4.94089,0.840,-1,4
645,4.94172,0.832,-1,4
646,4.94255,0.831,-1,4
647,4.94339,0.835,-1,4
648,4.94422,0.840,-1,4
649,4.94506,0.831,-1,4
650,4.94588,0.823,-1,4
651,4.94670,0.819,-1,4
652,4.94752,0.824,-1,4
653,4.94835,0.827,-1,4
654,4.94917,0.824,-1,4
655,4.94999,0.816,-1,4
656,4.95080,0.812,-1,4
657,4.95161,0.814,-1,4
658,4.95243,0.816,-1,4
659,4.95324,0.814,-1,4
660,4.95405,0.808,-1,4
661,4.95485,0.803,-1,4
662,4.95566,0.803,-1,4
663,4.95646,0.802,-1,4
664,4.95726,0.803,-1,4
665,4.95807,0.803,-1,4
666,4.95887,0.801,-1,4
667,4.95967,0.799,-1,4
668,4.96046,0.795,-1,4
669,4.96125,0.791,-1,4
670,4.96205,0.791,-1,4
671,4.96284,0.792,-1,4
672,4.96363,0.792,-1,4
673,4.96442,0.787,-1,4
674,4.96521,0.787,-1,4
675,4.96599,0.788,-1,4
676,4.96757,0.789,-1,4
677,4.96835,0.786,-1,4
678,4.96913,0.780,-1,4
679,4.96991,0.776,-1,4
680,4.97069,0.776,-1,4
681,4.97146,0.778,-1,4
682,4.97224,0.778,-1,4
683,4.97302,0.776,-1,4
684,4.97379,0.772,-1,4
685,4.97456,0.771,-1,4
686,4.97533,0.771,-1,4
687,4.97610,0.769,-1,4
688,4.97764,0.766,-1,4
689,4.97840,0.763,-1,4
690,4.97840,0.759,-1,4
691,4.97992,0.759,-1,4
692,4.97992,0.759,-1,4
693,4.98068,0.759,-1,4
694,4.98144,0.762,-1,4
695,4.98295,0.756,-1,4
696,4.98371,0.752,-1,4
697,4.98446,0.752,-1,4
698,4.98521,0.751,-1,4
699,4.98596,0.751,-1,4
700,4.98671,0.750,-1,4
701,4.98746,0.746,-1,4
702,4.98820,0.743,-1,4
703,4.98895,0.745,-1,4
704,4.98969,0.745,-1,4
705,4.99043,0.744,-1,4
706,4.99118,0.743,-1,4
707,4.99192,0.742,-1,4
708,4.99266,0.740,-1,4
709,4.99340,0.738,-1,4
710,4.99413,0.736,-1,4
711,4.99487,0.734,-1,4
712,4.99560,0.736,-1,4
713,4.99634,0.739,-1,4
714,4.99708,0.735,-1,4
715,4.99781,0.731,-1,4
716,4.99854,0.730,-1,4
717,4.99927,0.731,-1,4
718,5.00000,0.733,-1,4
719,5.00074,0.732,-1,4
720,5.00146,0.728,-1,4
721,5.00219,0.725,-1,4
722,5.00291,0.724,-1,4
723,5.00364,0.726,-1,4
724,5.00437,0.727,-1,4
725,5.00509,0.726,-1,4
726,5.00582,0.724,-1,4
727,5.00654,0.724,-1,4
728,5.00726,0.722,-1,4
729,5.00798,0.720,-1,4
730,5.00870,0.721,-1,4
731,5.00942,0.721,-1,4
732,5.01015,0.723,-1,4
733,5.01087,0.720,-1,4
734,5.01159,0.719,-1,4
735,5.01230,0.717,-1,4
736,5.01302,0.718,-1,4
737,5.01374,0.721,-1,4
738,5.01446,0.721,-1,4
739,5.01518,0.720,-1,4
740,5.01590,0.719,-1,4
741,5.01662,0.717,-1,4
742,5.01734,0.720,-1,4
743,5.01806,0.718,-1,4
744,5.01877,0.719,-1,4
745,5.01950,0.720,-1,4
746,5.02022,0.720,-1,4
747,5.02094,0.722,-1,4
748,5.02166,0.720,-1,4
749,5.02238,0.718,-1,4
750,5.02310,0.723,-1,4
751,5.02382,0.725,-1,4
752,5.02455,0.725,-1,4
753,5.02527,0.723,-1,4
754,5.02599,0.722,-1,4
755,5.02672,0.723,-1,4
756,5.02744,0.723,-1,4
757,5.02817,0.726,-1,4
758,5.02889,0.727,-1,4
759,5.02962,0.727,-1,4
760,5.03035,0.727,-1,4
761,5.03107,0.726,-1,4
762,5.03180,0.727,-1,4
763,5.03253,0.730,-1,4
764,5.03326,0.729,-1,4
765,5.03399,0.729,-1,4
766,5.03472,0.730,-1,4
767,5.03544,0.726,-1,4
768,5.03617,0.727,-1,4
769,5.03690,0.731,-1,4
770,5.03763,0.731,-1,4
771,5.03836,0.731,-1,4
772,5.03909,0.732,-1,4
773,5.03982,0.730,-1,4
774,5.04056,0.731,-1,4
775,5.04129,0.731,-1,4
776,5.04202,0.733,-1,4
777,5.04275,0.733,-1,4
778,5.04349,0.735,-1,4
779,5.04422,0.734,-1,4
780,5.04495,0.733,-1,4
781,5.04569,0.731,-1,4
782,5.04642,0.733,-1,4
783,5.04716,0.739,-1,4
784,5.04790,0.738,-1,4
785,5.04863,0.735,-1,4
786,5.04937,0.736,-1,4
787,5.05010,0.736,-1,4
788,5.05084,0.738,-1,4
789,5.05158,0.741,-1,4
790,5.05232,0.740,-1,4
791,5.05306,0.740,-1,4
792,5.05380,0.739,-1,4
793,5.05454,0.740,-1,4
794,5.05528,0.741,-1,4
795,5.05602,0.740,-1,4
796,5.05676,0.742,-1,4
797,5.05751,0.741,-1,4
798,5.05825,0.742,-1,4
799,5.05899,0.742,-1,4
800,5.05973,0.738,-1,4
801,5.06047,0.739,-1,4
802,5.06121,0.742,-1,4
803,5.06195,0.745,-1,4
804,5.06270,0.742,-1,4
805,5.06344,0.741,-1,4
806,5.06417,0.736,-1,4
807,5.06491,0.737,-1,4
808,5.06565,0.743,-1,4
809,5.06639,0.742,-1,4
810,5.06713,0.739,-1,4
811,5.06787,0.740,-1,4
812,5.06861,0.737,-1,4
813,5.06935,0.738,-1,4
814,5.07009,0.741,-1,4
815,5.07083,0.741,-1,4
816,5.07157,0.740,-1,4
817,5.07231,0.738,-1,4
818,5.07305,0.737,-1,4
819,5.07378,0.736,-1,4
820,5.07452,0.739,-1,4
821,5.07526,0.740,-1,4
822,5.07600,0.740,-1,4
823,5.07674,0.739,-1,4
824,5.07748,0.738,-1,4
825,5.07822,0.738,-1,4
826,5.07896,0.740,-1,4
827,5.07970,0.739,-1,4
828,5.08043,0.739,-1,4
829,5.08118,0.741,-1,4
830,5.08192,0.740,-1,4
831,5.08265,0.740,-1,4
832,5.08339,0.738,-1,4
833,5.08413,0.737,-1,4
834,5.08487,0.740,-1,4
835,5.08561,0.742,-1,4
836,5.08636,0.742,-1,4
837,5.08709,0.737,-1,4
838,5.08783,0.735,-1,4
839,5.08857,0.739,-1,4
840,5.08931,0.740,-1,4
841,5.09005,0.740,-1,4
842,5.09079,0.741,-1,4
843,5.09152,0.736,-1,4
844,5.09226,0.736,-1,4
845,5.09300,0.738,-1,4
846,5.09374,0.739,-1,4
847,5.09448,0.739,-1,4
848,5.09522,0.739,-1,4
849,5.09595,0.738,-1,4
850,5.09669,0.737,-1,4
851,5.09743,0.737,-1,4
852,5.09816,0.738,-1,4
853,5.09891,0.740,-1,4
854,5.09965,0.741,-1,4
855,5.10039,0.741,-1,4
856,5.10113,0.739,-1,4
857,5.10186,0.738,-1,4
858,5.10260,0.740,-1,4
859,5.10334,0.741,-1,4
860,5.10409,0.744,-1,4
861,5.10483,0.744,-1,4
862,5.10558,0.742,-1,4
863,5.10632,0.741,-1,4
864,5.10706,0.744,-1,4
865,5.10781,0.745,-1,4
866,5.10855,0.748,-1,4
867,5.10930,0.750,-1,4
868,5.11005,0.747,-1,4
869,5.11080,0.746,-1,4
870,5.11154,0.747,-1,4
871,5.11229,0.750,-1,4
872,5.11304,0.750,-1,4
873,5.11379,0.753,-1,4
