cnt,pos,speed,Dir,Force,
1,0,2.4242,-1,5
2,0.00233006,2.4073,-1,5
3,0.0046401,2.3905,-1,5
4,0.00694013,2.3738,-1,5
5,0.00923014,2.3568,-1,5
6,0.0114801,2.3396,-1,5
7,0.01372,2.3223,-1,5
8,0.0159502,2.3053,-1,5
9,0.0181601,2.288,-1,5
10,0.0203402,2.2697,-1,5
11,0.0225201,2.2516,-1,5
12,0.0246701,2.2345,-1,5
13,0.0268102,2.2168,-1,5
14,0.0289202,2.1981,-1,5
15,0.0310202,2.1797,-1,5
16,0.0331001,2.1623,-1,5
17,0.0351701,2.1446,-1,5
18,0.0372102,2.126,-1,5
19,0.0392401,2.1079,-1,5
20,0.0412502,2.0906,-1,5
21,0.0432501,2.073,-1,5
22,0.0452201,2.0548,-1,5
23,0.0471802,2.0377,-1,5
24,0.0491302,2.0204,-1,5
25,0.0510502,2.0033,-1,5
26,0.0529702,1.9863,-1,5
27,0.0548601,1.9697,-1,5
28,0.05674,1.9535,-1,5
29,0.0586102,1.9371,-1,5
30,0.0604601,1.921,-1,5
31,0.0623002,1.9053,-1,5
32,0.0641201,1.8903,-1,5
33,0.0659301,1.875,-1,5
34,0.0677302,1.8607,-1,5
35,0.06952,1.8468,-1,5
36,0.0713,1.8331,-1,5
37,0.07305,1.819,-1,5
38,0.0748,1.8057,-1,5
39,0.0765402,1.7933,-1,5
40,0.0782702,1.781,-1,5
41,0.0799901,1.7693,-1,5
42,0.0817001,1.7578,-1,5
43,0.0834,1.747,-1,5
44,0.0851002,1.7366,-1,5
45,0.0867901,1.7262,-1,5
46,0.0884702,1.7168,-1,5
47,0.0901401,1.709,-1,5
48,0.09182,1.7015,-1,5
49,0.0934801,1.6942,-1,5
50,0.0951502,1.6873,-1,5
51,0.0968001,1.6806,-1,5
52,0.0984602,1.6754,-1,5
53,0.10011,1.6701,-1,5
54,0.10175,1.6649,-1,5
55,0.10339,1.6607,-1,5
56,0.10504,1.6568,-1,5
57,0.10668,1.6535,-1,5
58,0.10832,1.6506,-1,5
59,0.10996,1.6479,-1,5
60,0.11161,1.646,-1,5
61,0.11325,1.6446,-1,5
62,0.11488,1.6426,-1,5
63,0.11652,1.6414,-1,5
64,0.11816,1.6406,-1,5
65,0.11979,1.6394,-1,5
66,0.12142,1.638,-1,5
67,0.12304,1.6363,-1,5
68,0.12466,1.6341,-1,5
69,0.12629,1.6322,-1,5
70,0.12791,1.6302,-1,5
71,0.12953,1.6284,-1,5
72,0.13116,1.6275,-1,5
73,0.1328,1.6277,-1,5
74,0.13448,1.6323,-1,5
75,0.13622,1.6437,-1,5
76,0.13799,1.6576,-1,5
77,0.13974,1.6701,-1,5
78,0.14148,1.6811,-1,5
79,0.14323,1.694,-1,5
80,0.14504,1.7128,-1,5
81,0.14687,1.734,-1,5
82,0.14869,1.7528,-1,5
83,0.15049,1.7693,-1,5
84,0.15233,1.7847,-1,5
85,0.15422,1.7992,-1,5
86,0.15612,1.8128,-1,5
87,0.158,1.8257,-1,5
88,0.15989,1.841,-1,5
89,0.16181,1.8585,-1,5
90,0.16379,1.8749,-1,5
91,0.16576,1.8894,-1,5
92,0.16773,1.9041,-1,5
93,0.16971,1.922,-1,5
94,0.17174,1.9415,-1,5
95,0.1738,1.9587,-1,5
96,0.17587,1.9745,-1,5
97,0.17793,1.9931,-1,5
98,0.18003,2.0148,-1,5
99,0.18218,2.0366,-1,5
100,0.18434,2.0558,-1,5
101,0.18651,2.0748,-1,5
102,0.1887,2.0973,-1,5
103,0.19092,2.1212,-1,5
104,0.19318,2.1444,-1,5
105,0.19546,2.1657,-1,5
106,0.19774,2.1877,-1,5
107,0.20005,2.2119,-1,5
108,0.20241,2.2376,-1,5
109,0.20479,2.2612,-1,5
110,0.20718,2.2833,-1,5
111,0.20958,2.3067,-1,5
112,0.21203,2.333,-1,5
113,0.21451,2.359,-1,5
114,0.217,2.3819,-1,5
115,0.21951,2.4051,-1,5
116,0.22206,2.4314,-1,5
117,0.22464,2.4584,-1,5
118,0.22723,2.4823,-1,5
119,0.22984,2.5052,-1,5
120,0.23248,2.5299,-1,5
121,0.23515,2.5566,-1,5
122,0.23784,2.5807,-1,5
123,0.24054,2.603,-1,5
124,0.24327,2.6261,-1,5
125,0.24602,2.6506,-1,5
126,0.2488,2.674,-1,5
127,0.25159,2.6959,-1,5
128,0.25441,2.7174,-1,5
129,0.25724,2.7399,-1,5
130,0.26011,2.7632,-1,5
131,0.26299,2.7849,-1,5
132,0.2659,2.8059,-1,5
133,0.26882,2.8277,-1,5
134,0.27177,2.8503,-1,5
135,0.27474,2.8721,-1,5
136,0.27772,2.8927,-1,5
137,0.28073,2.9132,-1,5
138,0.28375,2.9342,-1,5
139,0.28679,2.9552,-1,5
140,0.28986,2.975,-1,5
141,0.29293,2.994,-1,5
142,0.29602,3.0129,-1,5
143,0.29914,3.0317,-1,5
144,0.30226,3.0496,-1,5
145,0.30541,3.0667,-1,5
146,0.30856,3.0836,-1,5
147,0.31173,3.1002,-1,5
148,0.31492,3.1167,-1,5
149,0.31812,3.1325,-1,5
150,0.32133,3.1473,-1,5
151,0.32456,3.1621,-1,5
152,0.3278,3.1773,-1,5
153,0.33105,3.1917,-1,5
154,0.33432,3.2055,-1,5
155,0.3376,3.2191,-1,5
156,0.34088,3.2322,-1,5
157,0.34418,3.2454,-1,5
158,0.3475,3.2581,-1,5
159,0.35082,3.2699,-1,5
160,0.35415,3.2817,-1,5
161,0.35749,3.2932,-1,5
162,0.36084,3.304,-1,5
163,0.3642,3.3143,-1,5
164,0.36756,3.3241,-1,5
165,0.37093,3.3333,-1,5
166,0.37431,3.3426,-1,5
167,0.37769,3.3512,-1,5
168,0.38109,3.3592,-1,5
169,0.38449,3.3673,-1,5
170,0.38789,3.3746,-1,5
171,0.39131,3.382,-1,5
172,0.39473,3.3889,-1,5
173,0.39815,3.3957,-1,5
174,0.40159,3.4028,-1,5
175,0.40502,3.4096,-1,5
176,0.40847,3.4159,-1,5
177,0.41191,3.4218,-1,5
178,0.41536,3.4276,-1,5
179,0.41882,3.4329,-1,5
180,0.42228,3.4384,-1,5
181,0.42573,3.4427,-1,5
182,0.4292,3.4471,-1,5
183,0.43266,3.4511,-1,5
184,0.43613,3.4541,-1,5
185,0.43959,3.4571,-1,5
186,0.44306,3.4598,-1,5
187,0.44653,3.4615,-1,5
188,0.44999,3.4627,-1,5
189,0.45345,3.4638,-1,5
190,0.45692,3.4641,-1,5
191,0.46038,3.4646,-1,5
192,0.46384,3.4639,-1,5
193,0.46729,3.4628,-1,5
194,0.47074,3.4615,-1,5
195,0.47419,3.4594,-1,5
196,0.47763,3.457,-1,5
197,0.48107,3.4547,-1,5
198,0.48451,3.4518,-1,5
199,0.48794,3.4487,-1,5
200,0.49137,3.4454,-1,5
201,0.49479,3.4415,-1,5
202,0.49821,3.4378,-1,5
203,0.50162,3.4331,-1,5
204,0.50502,3.4281,-1,5
205,0.50842,3.4232,-1,5
206,0.51181,3.4179,-1,5
207,0.5152,3.4122,-1,5
208,0.51857,3.4063,-1,5
209,0.52194,3.3995,-1,5
210,0.5253,3.3926,-1,5
211,0.52865,3.3854,-1,5
212,0.53199,3.3775,-1,5
213,0.53532,3.3701,-1,5
214,0.53865,3.3622,-1,5
215,0.54196,3.3541,-1,5
216,0.54527,3.3457,-1,5
217,0.54857,3.337,-1,5
218,0.55185,3.3282,-1,5
219,0.55513,3.3194,-1,5
220,0.5584,3.3101,-1,5
221,0.56166,3.3008,-1,5
222,0.5649,3.2914,-1,5
223,0.56814,3.2817,-1,5
224,0.57137,3.2722,-1,5
225,0.57459,3.2624,-1,5
226,0.57779,3.2521,-1,5
227,0.58099,3.242,-1,5
228,0.58417,3.2316,-1,5
229,0.58734,3.2212,-1,5
230,0.59051,3.2112,-1,5
231,0.59367,3.2009,-1,5
232,0.59681,3.1903,-1,5
233,0.59994,3.1797,-1,5
234,0.60306,3.1693,-1,5
235,0.60617,3.1586,-1,5
236,0.60927,3.1483,-1,5
237,0.61236,3.1375,-1,5
238,0.61544,3.1268,-1,5
239,0.6185,3.1161,-1,5
240,0.62156,3.105,-1,5
241,0.6246,3.0937,-1,5
242,0.62764,3.0832,-1,5
243,0.63066,3.0722,-1,5
244,0.63367,3.0608,-1,5
245,0.63667,3.0497,-1,5
246,0.63966,3.0387,-1,5
247,0.64264,3.0278,-1,5
248,0.64561,3.0168,-1,5
249,0.64856,3.0055,-1,5
250,0.65151,2.9945,-1,5
251,0.65444,2.9838,-1,5
252,0.65737,2.9728,-1,5
253,0.66028,2.9622,-1,5
254,0.66318,2.9511,-1,5
255,0.66608,2.9405,-1,5
256,0.66896,2.9297,-1,5
257,0.67183,2.919,-1,5
258,0.67469,2.9084,-1,5
259,0.67754,2.8982,-1,5
260,0.68038,2.8877,-1,5
261,0.68322,2.8778,-1,5
262,0.68604,2.8676,-1,5
263,0.68885,2.8574,-1,5
264,0.69166,2.8478,-1,5
265,0.69446,2.838,-1,5
266,0.69724,2.8286,-1,5
267,0.70002,2.8194,-1,5
268,0.70279,2.8103,-1,5
269,0.70556,2.8016,-1,5
270,0.70831,2.7931,-1,5
271,0.71106,2.7844,-1,5
272,0.7138,2.7762,-1,5
273,0.71654,2.7683,-1,5
274,0.71926,2.7604,-1,5
275,0.72199,2.7531,-1,5
276,0.7247,2.7457,-1,5
277,0.72741,2.7384,-1,5
278,0.73011,2.7315,-1,5
279,0.7328,2.7244,-1,5
280,0.73549,2.7179,-1,5
281,0.73818,2.7115,-1,5
282,0.74086,2.7054,-1,5
283,0.74353,2.6994,-1,5
284,0.7462,2.6941,-1,5
285,0.74887,2.6882,-1,5
286,0.75153,2.6829,-1,5
287,0.75419,2.6782,-1,5
288,0.75684,2.6733,-1,5
289,0.75949,2.6691,-1,5
290,0.76214,2.6651,-1,5
291,0.76479,2.661,-1,5
292,0.76743,2.6576,-1,5
293,0.77007,2.6545,-1,5
294,0.77272,2.6515,-1,5
295,0.77535,2.6487,-1,5
296,0.77799,2.6466,-1,5
297,0.78063,2.6445,-1,5
298,0.78327,2.6428,-1,5
299,0.78591,2.6414,-1,5
300,0.78854,2.64,-1,5
301,0.79118,2.6393,-1,5
302,0.79382,2.6383,-1,5
303,0.79646,2.6381,-1,5
304,0.7991,2.6383,-1,5
305,0.80174,2.6389,-1,5
306,0.80439,2.6392,-1,5
307,0.80704,2.6403,-1,5
308,0.80969,2.6421,-1,5
309,0.81234,2.6435,-1,5
310,0.815,2.6455,-1,5
311,0.81766,2.6482,-1,5
312,0.82033,2.6515,-1,5
313,0.823,2.6543,-1,5
314,0.82567,2.6576,-1,5
315,0.82835,2.6612,-1,5
316,0.83103,2.6649,-1,5
317,0.83372,2.6691,-1,5
318,0.83642,2.6733,-1,5
319,0.83912,2.6781,-1,5
320,0.84182,2.6825,-1,5
321,0.84453,2.687,-1,5
322,0.84724,2.6916,-1,5
323,0.84996,2.6967,-1,5
324,0.85268,2.7012,-1,5
325,0.85541,2.7064,-1,5
326,0.85815,2.7116,-1,5
327,0.86088,2.7158,-1,5
328,0.86362,2.7208,-1,5
329,0.86637,2.7257,-1,5
330,0.86912,2.7303,-1,5
331,0.87188,2.735,-1,5
332,0.87464,2.7396,-1,5
333,0.8774,2.7439,-1,5
334,0.88017,2.7487,-1,5
335,0.88294,2.7529,-1,5
336,0.88572,2.7572,-1,5
337,0.8885,2.7618,-1,5
338,0.89128,2.7659,-1,5
339,0.89407,2.7697,-1,5
340,0.89686,2.774,-1,5
341,0.89965,2.7776,-1,5
342,0.90245,2.7812,-1,5
343,0.90525,2.7849,-1,5
344,0.90805,2.7882,-1,5
345,0.91086,2.7915,-1,5
346,0.91367,2.7947,-1,5
347,0.91647,2.7977,-1,5
348,0.91929,2.8009,-1,5
349,0.92211,2.8038,-1,5
350,0.92492,2.8063,-1,5
351,0.92774,2.809,-1,5
352,0.93056,2.8114,-1,5
353,0.93339,2.8139,-1,5
354,0.93621,2.8159,-1,5
355,0.93904,2.8178,-1,5
356,0.94186,2.8195,-1,5
357,0.94469,2.8213,-1,5
358,0.94752,2.8223,-1,5
359,0.95035,2.8236,-1,5
360,0.95317,2.8248,-1,5
361,0.956,2.8258,-1,5
362,0.95883,2.8267,-1,5
363,0.96166,2.8269,-1,5
364,0.96449,2.8275,-1,5
365,0.96732,2.8281,-1,5
366,0.97014,2.8282,-1,5
367,0.97297,2.828,-1,5
368,0.97579,2.8277,-1,5
369,0.97862,2.8272,-1,5
370,0.98144,2.8267,-1,5
371,0.98426,2.8255,-1,5
372,0.98707,2.8241,-1,5
373,0.98989,2.823,-1,5
374,0.9927,2.8212,-1,5
375,0.99551,2.8193,-1,5
376,0.99832,2.8174,-1,5
377,1.00111,2.8146,-1,5
378,1.00392,2.8124,-1,5
379,1.00672,2.81,-1,5
380,1.00951,2.807,-1,5
381,1.0123,2.8043,-1,5
382,1.01509,2.8017,-1,5
383,1.01787,2.7985,-1,5
384,1.02065,2.7956,-1,5
385,1.02343,2.7925,-1,5
386,1.02621,2.7895,-1,5
387,1.02898,2.787,-1,5
388,1.03175,2.7838,-1,5
389,1.03452,2.7806,-1,5
390,1.03729,2.7781,-1,5
391,1.04005,2.775,-1,5
392,1.04281,2.772,-1,5
393,1.04557,2.7694,-1,5
394,1.04832,2.7667,-1,5
395,1.05107,2.7639,-1,5
396,1.05382,2.7611,-1,5
397,1.05657,2.7583,-1,5
398,1.05931,2.7556,-1,5
399,1.06206,2.7533,-1,5
400,1.06479,2.7503,-1,5
401,1.06752,2.7475,-1,5
402,1.07026,2.7449,-1,5
403,1.07299,2.7421,-1,5
404,1.07571,2.7391,-1,5
405,1.07843,2.736,-1,5
406,1.08115,2.733,-1,5
407,1.08387,2.7305,-1,5
408,1.08658,2.7274,-1,5
409,1.08929,2.724,-1,5
410,1.092,2.721,-1,5
411,1.0947,2.7182,-1,5
412,1.09741,2.715,-1,5
413,1.10011,2.7121,-1,5
414,1.1028,2.709,-1,5
415,1.10549,2.7057,-1,5
416,1.10818,2.7031,-1,5
417,1.11087,2.7001,-1,5
418,1.11355,2.697,-1,5
419,1.11623,2.6939,-1,5
420,1.11891,2.6912,-1,5
421,1.12159,2.6888,-1,5
422,1.12426,2.6859,-1,5
423,1.12694,2.6832,-1,5
424,1.12961,2.6809,-1,5
425,1.13228,2.6787,-1,5
426,1.13494,2.6763,-1,5
427,1.13761,2.6743,-1,5
428,1.14028,2.6724,-1,5
429,1.14293,2.6702,-1,5
430,1.1456,2.6684,-1,5
431,1.14826,2.6666,-1,5
432,1.15091,2.6651,-1,5
433,1.15357,2.6632,-1,5
434,1.15623,2.6618,-1,5
435,1.15888,2.6606,-1,5
436,1.16154,2.6592,-1,5
437,1.16419,2.6579,-1,5
438,1.16684,2.6569,-1,5
439,1.16949,2.6562,-1,5
440,1.17215,2.6551,-1,5
441,1.1748,2.6544,-1,5
442,1.17746,2.6543,-1,5
443,1.1801,2.6535,-1,5
444,1.18275,2.6529,-1,5
445,1.18541,2.6527,-1,5
446,1.18806,2.6524,-1,5
447,1.19071,2.6521,-1,5
448,1.19337,2.6523,-1,5
449,1.19602,2.6525,-1,5
450,1.19867,2.6528,-1,5
451,1.20133,2.6534,-1,5
452,1.204,2.6539,-1,5
453,1.20666,2.6553,-1,5
454,1.20932,2.6562,-1,5
455,1.21198,2.6575,-1,5
456,1.21465,2.6591,-1,5
457,1.21732,2.6611,-1,5
458,1.22,2.6631,-1,5
459,1.22268,2.6656,-1,5
460,1.22536,2.6683,-1,5
461,1.22804,2.6706,-1,5
462,1.23073,2.6735,-1,5
463,1.23343,2.6768,-1,5
464,1.23612,2.6805,-1,5
465,1.23882,2.684,-1,5
466,1.24153,2.6879,-1,5
467,1.24424,2.6918,-1,5
468,1.24696,2.6958,-1,5
469,1.24968,2.7005,-1,5
470,1.25241,2.705,-1,5
471,1.25514,2.7097,-1,5
472,1.25787,2.7144,-1,5
473,1.26062,2.7194,-1,5
474,1.26337,2.725,-1,5
475,1.26613,2.7306,-1,5
476,1.26889,2.7361,-1,5
477,1.27166,2.7419,-1,5
478,1.27444,2.748,-1,5
479,1.27722,2.7539,-1,5
480,1.28001,2.7606,-1,5
481,1.28281,2.7673,-1,5
482,1.28561,2.7738,-1,5
483,1.28843,2.7807,-1,5
484,1.29124,2.7875,-1,5
485,1.29407,2.7941,-1,5
486,1.2969,2.8015,-1,5
487,1.29974,2.8086,-1,5
488,1.30259,2.8159,-1,5
489,1.30545,2.8234,-1,5
490,1.30832,2.8309,-1,5
491,1.31119,2.8384,-1,5
492,1.31408,2.8464,-1,5
493,1.31697,2.8543,-1,5
494,1.31987,2.8624,-1,5
495,1.32277,2.8706,-1,5
496,1.32569,2.8787,-1,5
497,1.32862,2.8869,-1,5
498,1.33155,2.8953,-1,5
499,1.33449,2.9039,-1,5
500,1.33744,2.9122,-1,5
501,1.3404,2.9209,-1,5
502,1.34337,2.9295,-1,5
503,1.34635,2.9383,-1,5
504,1.34934,2.9467,-1,5
505,1.35233,2.9555,-1,5
506,1.35533,2.9639,-1,5
507,1.35834,2.9726,-1,5
508,1.36136,2.9812,-1,5
509,1.36439,2.9895,-1,5
510,1.36742,2.9978,-1,5
511,1.37046,3.0059,-1,5
512,1.37351,3.0142,-1,5
513,1.37657,3.0222,-1,5
514,1.37964,3.0301,-1,5
515,1.38271,3.0379,-1,5
516,1.38579,3.0458,-1,5
517,1.38888,3.0536,-1,5
518,1.39197,3.0614,-1,5
519,1.39508,3.0688,-1,5
520,1.39818,3.0756,-1,5
521,1.40129,3.0833,-1,5
522,1.40442,3.0903,-1,5
523,1.40754,3.0968,-1,5
524,1.41067,3.1035,-1,5
525,1.41381,3.1102,-1,5
526,1.41695,3.1161,-1,5
527,1.4201,3.1223,-1,5
528,1.42325,3.128,-1,5
529,1.4264,3.133,-1,5
530,1.42956,3.1387,-1,5
531,1.43272,3.1431,-1,5
532,1.43589,3.1476,-1,5
533,1.43906,3.1518,-1,5
534,1.44223,3.1558,-1,5
535,1.4454,3.1589,-1,5
536,1.44857,3.1628,-1,5
537,1.45175,3.1654,-1,5
538,1.45493,3.1679,-1,5
539,1.4581,3.1702,-1,5
540,1.46129,3.1724,-1,5
541,1.46446,3.1739,-1,5
542,1.46764,3.1754,-1,5
543,1.47082,3.1766,-1,5
544,1.474,3.1775,-1,5
545,1.47718,3.1785,-1,5
546,1.48036,3.1786,-1,5
547,1.48354,3.1787,-1,5
548,1.48672,3.1785,-1,5
549,1.48989,3.1786,-1,5
550,1.49307,3.178,-1,5
551,1.49624,3.1774,-1,5
552,1.4994,3.176,-1,5
553,1.50257,3.1748,-1,5
554,1.50574,3.1734,-1,5
555,1.5089,3.1716,-1,5
556,1.51206,3.1694,-1,5
557,1.51521,3.1672,-1,5
558,1.51836,3.1644,-1,5
559,1.52151,3.1615,-1,5
560,1.52465,3.1581,-1,5
561,1.52779,3.1551,-1,5
562,1.53092,3.1515,-1,5
563,1.53405,3.1477,-1,5
564,1.53717,3.1437,-1,5
565,1.54029,3.1395,-1,5
566,1.5434,3.1351,-1,5
567,1.54652,3.1307,-1,5
568,1.54962,3.126,-1,5
569,1.55272,3.1211,-1,5
570,1.55581,3.1164,-1,5
571,1.5589,3.111,-1,5
572,1.56198,3.1061,-1,5
573,1.56505,3.1006,-1,5
574,1.56812,3.0947,-1,5
575,1.57118,3.0893,-1,5
576,1.57424,3.0837,-1,5
577,1.57729,3.0774,-1,5
578,1.58033,3.0716,-1,5
579,1.58337,3.0655,-1,5
580,1.5864,3.0592,-1,5
581,1.58943,3.0533,-1,5
582,1.59245,3.0471,-1,5
583,1.59546,3.0407,-1,5
584,1.59847,3.0348,-1,5
585,1.60147,3.0285,-1,5
586,1.60446,3.0221,-1,5
587,1.60745,3.0162,-1,5
588,1.61044,3.0103,-1,5
589,1.61341,3.0041,-1,5
590,1.61639,2.9984,-1,5
591,1.61935,2.9924,-1,5
592,1.62231,2.9864,-1,5
593,1.62527,2.981,-1,5
594,1.62822,2.9753,-1,5
595,1.63117,2.9697,-1,5
596,1.63411,2.9644,-1,5
597,1.63704,2.9587,-1,5
598,1.63997,2.953,-1,5
599,1.64289,2.9479,-1,5
600,1.64581,2.9425,-1,5
601,1.64872,2.9371,-1,5
602,1.65163,2.9314,-1,5
603,1.65453,2.9263,-1,5
604,1.65743,2.9211,-1,5
605,1.66032,2.9158,-1,5
606,1.66321,2.9104,-1,5
607,1.66609,2.9056,-1,5
608,1.66897,2.9006,-1,5
609,1.67185,2.8956,-1,5
610,1.67472,2.8906,-1,5
611,1.67758,2.8855,-1,5
612,1.68044,2.8808,-1,5
613,1.68329,2.8759,-1,5
614,1.68614,2.8709,-1,5
615,1.68899,2.8661,-1,5
616,1.69182,2.8612,-1,5
617,1.69466,2.8562,-1,5
618,1.69749,2.8514,-1,5
619,1.70032,2.8468,-1,5
620,1.70314,2.8421,-1,5
621,1.70596,2.8376,-1,5
622,1.70876,2.8327,-1,5
623,1.71157,2.828,-1,5
624,1.71438,2.8237,-1,5
625,1.71717,2.8188,-1,5
626,1.71997,2.8148,-1,5
627,1.72276,2.8107,-1,5
628,1.72555,2.8064,-1,5
629,1.72833,2.802,-1,5
630,1.73112,2.798,-1,5
631,1.73389,2.7939,-1,5
632,1.73667,2.7905,-1,5
633,1.73944,2.7867,-1,5
634,1.74221,2.783,-1,5
635,1.74497,2.7798,-1,5
636,1.74773,2.7761,-1,5
637,1.75049,2.7726,-1,5
638,1.75325,2.7696,-1,5
639,1.756,2.7663,-1,5
640,1.75875,2.7632,-1,5
641,1.7615,2.7603,-1,5
642,1.76424,2.757,-1,5
643,1.76698,2.7545,-1,5
644,1.76973,2.7519,-1,5
645,1.77246,2.749,-1,5
646,1.77519,2.7465,-1,5
647,1.77793,2.7442,-1,5
648,1.78066,2.7417,-1,5
649,1.78339,2.7393,-1,5
650,1.78611,2.7367,-1,5
651,1.78884,2.7346,-1,5
652,1.79156,2.7329,-1,5
653,1.79701,2.7304,-1,5
654,1.79973,2.7282,-1,5
655,1.80244,2.7262,-1,5
656,1.80516,2.7246,-1,5
657,1.80788,2.7229,-1,5
658,1.81059,2.7212,-1,5
659,1.81331,2.7199,-1,5
660,1.81602,2.7189,-1,5
661,1.81874,2.7176,-1,5
662,1.82145,2.7165,-1,5
663,1.82417,2.7159,-1,5
664,1.82688,2.7155,-1,5
665,1.8296,2.7155,-1,5
666,1.83231,2.7147,-1,5
667,1.83502,2.7144,-1,5
668,1.83774,2.7148,-1,5
669,1.84046,2.715,-1,5
670,1.84318,2.7153,-1,5
671,1.8459,2.7161,-1,5
672,1.84862,2.7166,-1,5
673,1.85134,2.7173,-1,5
674,1.85407,2.7183,-1,5
675,1.85679,2.7195,-1,5
676,1.85952,2.721,-1,5
677,1.86225,2.7228,-1,5
678,1.86499,2.7244,-1,5
679,1.86772,2.7266,-1,5
680,1.87046,2.7287,-1,5
681,1.87321,2.7309,-1,5
682,1.87595,2.7337,-1,5
683,1.8787,2.7365,-1,5
684,1.88146,2.7393,-1,5
685,1.88422,2.7425,-1,5
686,1.88698,2.7457,-1,5
687,1.88974,2.749,-1,5
688,1.89251,2.7526,-1,5
689,1.89529,2.7563,-1,5
690,1.89806,2.76,-1,5
691,1.90085,2.7641,-1,5
692,1.90364,2.7685,-1,5
693,1.90643,2.7726,-1,5
694,1.90923,2.7768,-1,5
695,1.91202,2.7808,-1,5
696,1.91483,2.7852,-1,5
697,1.91763,2.7893,-1,5
698,1.92044,2.7931,-1,5
699,1.92325,2.7967,-1,5
700,1.92607,2.8002,-1,5
701,1.92888,2.8033,-1,5
702,1.9317,2.8062,-1,5
703,1.93452,2.8087,-1,5
704,1.93734,2.8111,-1,5
705,1.94016,2.8131,-1,5
706,1.94297,2.8146,-1,5
707,1.94579,2.8158,-1,5
708,1.94861,2.8169,-1,5
709,1.95143,2.8176,-1,5
710,1.95425,2.818,-1,5
711,1.95706,2.8182,-1,5
712,1.95988,2.8179,-1,5
713,1.96269,2.8175,-1,5
714,1.96551,2.8168,-1,5
715,1.96831,2.8158,-1,5
716,1.97112,2.8146,-1,5
717,1.97393,2.8132,-1,5
718,1.97673,2.8116,-1,5
719,1.97953,2.8099,-1,5
720,1.98232,2.8079,-1,5
721,1.98512,2.8058,-1,5
722,1.98791,2.8025,-1,5
723,1.9907,2.7996,-1,5
724,1.99348,2.7963,-1,5
725,1.99626,2.7933,-1,5
726,1.99903,2.79,-1,5
727,2.0018,2.7865,-1,5
728,2.00456,2.7825,-1,5
729,2.00732,2.7784,-1,5
730,2.01008,2.7741,-1,5
731,2.01282,2.7694,-1,5
732,2.01557,2.7653,-1,5
733,2.0183,2.7607,-1,5
734,2.02103,2.7554,-1,5
735,2.02376,2.7502,-1,5
736,2.02648,2.7448,-1,5
737,2.02918,2.7386,-1,5
738,2.03189,2.7324,-1,5
739,2.03458,2.726,-1,5
740,2.03727,2.7195,-1,5
741,2.03995,2.7128,-1,5
742,2.04263,2.7063,-1,5
743,2.0453,2.6996,-1,5
744,2.04796,2.6926,-1,5
745,2.05061,2.6853,-1,5
746,2.05326,2.6783,-1,5
747,2.05589,2.6712,-1,5
748,2.05853,2.6642,-1,5
749,2.06115,2.6568,-1,5
750,2.06377,2.6499,-1,5
751,2.06638,2.6425,-1,5
752,2.06898,2.6355,-1,5
753,2.07158,2.6283,-1,5
754,2.07417,2.6215,-1,5
755,2.07675,2.6142,-1,5
756,2.07933,2.6072,-1,5
757,2.0819,2.6007,-1,5
758,2.08447,2.5939,-1,5
759,2.08702,2.5874,-1,5
760,2.08958,2.5808,-1,5
761,2.09212,2.5747,-1,5
762,2.09466,2.5682,-1,5
763,2.0972,2.5624,-1,5
764,2.09974,2.5566,-1,5
765,2.10226,2.5512,-1,5
766,2.10479,2.5457,-1,5
767,2.10731,2.5404,-1,5
768,2.10982,2.5357,-1,5
769,2.11234,2.5315,-1,5
770,2.11485,2.5273,-1,5
771,2.11735,2.5232,-1,5
772,2.11986,2.5194,-1,5
773,2.12236,2.5155,-1,5
774,2.12486,2.5123,-1,5
775,2.12736,2.5097,-1,5
776,2.12986,2.507,-1,5
777,2.13235,2.5044,-1,5
778,2.13484,2.5023,-1,5
779,2.13734,2.5005,-1,5
780,2.13983,2.4987,-1,5
781,2.14233,2.4972,-1,5
782,2.14482,2.4961,-1,5
783,2.14731,2.4955,-1,5
784,2.14981,2.4951,-1,5
785,2.1523,2.4946,-1,5
786,2.1548,2.4949,-1,5
787,2.15731,2.4957,-1,5
788,2.1598,2.496,-1,5
789,2.16231,2.4965,-1,5
790,2.16482,2.4983,-1,5
791,2.16733,2.5005,-1,5
792,2.16984,2.5021,-1,5
793,2.17236,2.5043,-1,5
794,2.17488,2.5071,-1,5
795,2.17741,2.5103,-1,5
796,2.17994,2.5135,-1,5
797,2.18248,2.5173,-1,5
798,2.18502,2.5216,-1,5
799,2.18757,2.526,-1,5
800,2.19012,2.5306,-1,5
801,2.19269,2.5357,-1,5
802,2.19525,2.5417,-1,5
803,2.19783,2.5473,-1,5
804,2.20041,2.5533,-1,5
805,2.203,2.5596,-1,5
806,2.2056,2.5666,-1,5
807,2.20821,2.5731,-1,5
808,2.21082,2.5803,-1,5
809,2.21345,2.5883,-1,5
810,2.21608,2.5958,-1,5
811,2.21872,2.6034,-1,5
812,2.22137,2.6117,-1,5
813,2.22403,2.6204,-1,5
814,2.2267,2.6288,-1,5
815,2.22938,2.6388,-1,5
816,2.23207,2.6478,-1,5
817,2.23477,2.6573,-1,5
818,2.23748,2.6671,-1,5
819,2.24021,2.677,-1,5
820,2.24294,2.6871,-1,5
821,2.24568,2.6972,-1,5
822,2.24844,2.7076,-1,5
823,2.25121,2.7187,-1,5
824,2.25399,2.7298,-1,5
825,2.25678,2.7397,-1,5
826,2.25958,2.7508,-1,5
827,2.26239,2.7626,-1,5
828,2.26522,2.7742,-1,5
829,2.26806,2.7859,-1,5
830,2.27092,2.7979,-1,5
831,2.27378,2.8101,-1,5
832,2.27666,2.8225,-1,5
833,2.27955,2.8346,-1,5
834,2.28246,2.8471,-1,5
835,2.28537,2.8596,-1,5
836,2.2883,2.8725,-1,5
837,2.29125,2.8852,-1,5
838,2.2942,2.8979,-1,5
839,2.29717,2.9107,-1,5
840,2.30015,2.9236,-1,5
