cnt,pos,speed,Dir,Force,
1,0,1.0166,1,8
2,0.00114059,1.039,1,8
3,0.0023098,1.0627,1,8
4,0.00350952,1.0834,1,8
5,0.00472069,1.1045,1,8
6,0.00597,1.1308,1,8
7,0.00721931,1.1528,1,8
8,0.00851059,1.1774,1,8
9,0.00983047,1.2015,1,8
10,0.0111599,1.227,1,8
11,0.0125294,1.2525,1,8
12,0.0139198,1.2775,1,8
13,0.0153408,1.3038,1,8
14,0.0167694,1.3262,1,8
15,0.0182495,1.3529,1,8
16,0.0197411,1.3775,1,8
17,0.0212803,1.4064,1,8
18,0.0228195,1.4314,1,8
19,0.0243893,1.456,1,8
20,0.0259705,1.4814,1,8
21,0.0276108,1.5081,1,8
22,0.0292397,1.5323,1,8
23,0.03092,1.5578,1,8
24,0.0326195,1.585,1,8
25,0.0343494,1.6105,1,8
26,0.0361099,1.6377,1,8
27,0.0396805,1.6644,1,8
28,0.0415096,1.6933,1,8
29,0.0433807,1.7235,1,8
30,0.0452805,1.7546,1,8
31,0.0471611,1.7792,1,8
32,0.0490894,1.8098,1,8
33,0.0510693,1.8395,1,8
34,0.05303,1.8645,1,8
35,0.0550404,1.8934,1,8
36,0.0570908,1.921,1,8
37,0.0591507,1.9465,1,8
38,0.0612392,1.9733,1,8
39,0.0633392,1.9958,1,8
40,0.0654793,2.0204,1,8
41,0.0676498,2.0489,1,8
42,0.0698299,2.0735,1,8
43,0.072031,2.0955,1,8
44,0.0742607,2.124,1,8
45,0.0765095,2.1469,1,8
46,0.0787792,2.1693,1,8
47,0.0810795,2.193,1,8
48,0.0834198,2.218,1,8
49,0.0857906,2.2447,1,8
50,0.08815,2.2671,1,8
51,0.0905495,2.2899,1,8
52,0.0929604,2.3128,1,8
53,0.0979004,2.3404,1,8
54,0.10038,2.365,1,8
55,0.10289,2.3909,1,8
56,0.10544,2.419,1,8
57,0.108,2.4458,1,8
58,0.11059,2.47,1,8
59,0.113199,2.4946,1,8
60,0.115829,2.5218,1,8
61,0.1185,2.5486,1,8
62,0.12117,2.5753,1,8
63,0.123871,2.5973,1,8
64,0.129339,2.624,1,8
65,0.132101,2.6486,1,8
66,0.134901,2.6736,1,8
67,0.13772,2.6999,1,8
68,0.14057,2.7253,1,8
69,0.143419,2.749,1,8
70,0.146299,2.774,1,8
71,0.1492,2.7973,1,8
72,0.152151,2.8245,1,8
73,0.155081,2.8487,1,8
74,0.158041,2.8699,1,8
75,0.161039,2.8944,1,8
76,0.164051,2.9151,1,8
77,0.16707,2.9341,1,8
78,0.17012,2.9548,1,8
79,0.17317,2.9756,1,8
80,0.176281,2.9981,1,8
81,0.17939,3.0197,1,8
82,0.182529,3.0383,1,8
83,0.185699,3.062,1,8
84,0.188869,3.0822,1,8
85,0.19207,3.103,1,8
86,0.19528,3.1233,1,8
87,0.198561,3.1492,1,8
88,0.20182,3.1738,1,8
89,0.208429,3.1996,1,8
90,0.211771,3.2229,1,8
91,0.21513,3.2475,1,8
92,0.218519,3.2729,1,8
93,0.22193,3.2962,1,8
94,0.225349,3.3217,1,8
95,0.228809,3.3475,1,8
96,0.23229,3.3738,1,8
97,0.235781,3.3958,1,8
98,0.2393,3.4182,1,8
99,0.24284,3.4407,1,8
100,0.24641,3.4635,1,8
101,0.25,3.4863,1,8
102,0.25362,3.5092,1,8
103,0.257231,3.5299,1,8
104,0.26088,3.5532,1,8
105,0.26457,3.5757,1,8
106,0.26827,3.5981,1,8
107,0.271999,3.6218,1,8
108,0.27574,3.6439,1,8
109,0.27952,3.6689,1,8
110,0.28331,3.6935,1,8
111,0.287121,3.7207,1,8
112,0.294849,3.7457,1,8
113,0.29874,3.7734,1,8
114,0.30267,3.8014,1,8
115,0.306631,3.8286,1,8
116,0.310591,3.855,1,8
117,0.31461,3.883,1,8
118,0.31863,3.911,1,8
119,0.32268,3.9373,1,8
120,0.32675,3.9628,1,8
121,0.330851,3.9895,1,8
122,0.33498,4.018,1,8
123,0.34329,4.0447,1,8
124,0.347481,4.0706,1,8
125,0.35169,4.0956,1,8
126,0.355949,4.1249,1,8
127,0.360201,4.1491,1,8
128,0.364491,4.1763,1,8
129,0.368799,4.2018,1,8
130,0.373119,4.2268,1,8
131,0.37747,4.2493,1,8
132,0.38184,4.2708,1,8
133,0.386261,4.2963,1,8
134,0.390711,4.3226,1,8
135,0.395161,4.3472,1,8
136,0.399651,4.3701,1,8
137,0.404171,4.3973,1,8
138,0.408689,4.4197,1,8
139,0.41326,4.446,1,8
140,0.417841,4.4723,1,8
141,0.422461,4.4986,1,8
142,0.42709,4.525,1,8
143,0.43173,4.5478,1,8
144,0.436411,4.5698,1,8
145,0.44109,4.5926,1,8
146,0.44581,4.6163,1,8
147,0.45056,4.6391,1,8
148,0.455299,4.6607,1,8
149,0.460081,4.6823,1,8
150,0.46489,4.7043,1,8
151,0.47456,4.7289,1,8
152,0.479441,4.7534,1,8
153,0.48435,4.7797,1,8
154,0.489269,4.8048,1,8
155,0.49423,4.8324,1,8
156,0.49921,4.8587,1,8
157,0.50421,4.8833,1,8
158,0.509241,4.913,1,8
159,0.51432,4.9419,1,8
160,0.51936,4.9656,1,8
161,0.52449,4.9932,1,8
162,0.52961,5.0165,1,8
163,0.53475,5.0403,1,8
164,0.539909,5.064,1,8
165,0.545099,5.0865,1,8
166,0.550291,5.1081,1,8
167,0.555521,5.1301,1,8
168,0.56077,5.153,1,8
169,0.566031,5.1715,1,8
170,0.571341,5.1979,1,8
171,0.576651,5.2156,1,8
172,0.581989,5.2389,1,8
173,0.587379,5.2604,1,8
174,0.59816,5.2871,1,8
175,0.60359,5.3112,1,8
176,0.609079,5.3401,1,8
177,0.614561,5.3665,1,8
178,0.620081,5.3924,1,8
179,0.625601,5.4183,1,8
180,0.63117,5.4454,1,8
181,0.63673,5.47,1,8
182,0.64233,5.4955,1,8
183,0.647961,5.5227,1,8
184,0.65361,5.5452,1,8
185,0.65926,5.5694,1,8
186,0.66493,5.5918,1,8
187,0.670641,5.6168,1,8
188,0.682131,5.6405,1,8
189,0.687931,5.669,1,8
190,0.69372,5.6893,1,8
191,0.699551,5.7173,1,8
192,0.7054,5.7423,1,8
193,0.711241,5.7635,1,8
194,0.717131,5.7872,1,8
195,0.72303,5.8096,1,8
196,0.72897,5.8325,1,8
197,0.7349,5.8528,1,8
198,0.74086,5.8731,1,8
199,0.746851,5.8912,1,8
200,0.752821,5.9106,1,8
201,0.758881,5.9331,1,8
202,0.764931,5.9525,1,8
203,0.771,5.9758,1,8
204,0.777081,5.9952,1,8
205,0.78322,6.0194,1,8
206,0.78937,6.0401,1,8
207,0.79557,6.0668,1,8
208,0.80175,6.0888,1,8
209,0.80797,6.1121,1,8
210,0.82049,6.141,1,8
211,0.826759,6.1625,1,8
212,0.83309,6.1906,1,8
213,0.839411,6.2151,1,8
214,0.84577,6.2432,1,8
215,0.85214,6.2661,1,8
216,0.85857,6.2941,1,8
217,0.864981,6.3148,1,8
218,0.87145,6.3446,1,8
219,0.877939,6.3713,1,8
220,0.88446,6.3977,1,8
221,0.891001,6.4241,1,8
222,0.89757,6.4478,1,8
223,0.90416,6.4746,1,8
224,0.91077,6.4996,1,8
225,0.91741,6.5276,1,8
226,0.92408,6.5518,1,8
227,0.93074,6.5764,1,8
228,0.937401,6.5945,1,8
229,0.94413,6.6196,1,8
230,0.950901,6.6437,1,8
231,0.95767,6.6665,1,8
232,0.96446,6.6894,1,8
233,0.97127,6.7114,1,8
234,0.978121,6.7355,1,8
235,0.985001,6.7584,1,8
236,0.99188,6.78,1,8
237,1.00572,6.8067,1,8
238,1.0127,6.8386,1,8
239,1.01962,6.858,1,8
240,1.02663,6.8822,1,8
241,1.03365,6.9068,1,8
242,1.04068,6.9305,1,8
243,1.04775,6.9568,1,8
244,1.05484,6.9806,1,8
245,1.06196,7.0052,1,8
246,1.0691,7.0362,1,8
247,1.0763,7.0617,1,8
248,1.08348,7.088,1,8
249,1.09792,7.1156,1,8
250,1.10518,7.1397,1,8
251,1.11246,7.166,1,8
252,1.11975,7.1928,1,8
253,1.12708,7.2183,1,8
254,1.1344,7.2411,1,8
255,1.14176,7.2657,1,8
256,1.14916,7.286,1,8
257,1.15656,7.3084,1,8
258,1.16401,7.3287,1,8
259,1.17149,7.3567,1,8
260,1.17898,7.38,1,8
261,1.18648,7.4029,1,8
262,1.19403,7.4283,1,8
263,1.20161,7.4537,1,8
264,1.20918,7.4783,1,8
265,1.2168,7.5037,1,8
266,1.22444,7.5279,1,8
267,1.23208,7.5517,1,8
268,1.23974,7.5729,1,8
269,1.24742,7.5932,1,8
270,1.25511,7.6131,1,8
271,1.26284,7.6355,1,8
272,1.2706,7.6571,1,8
273,1.27836,7.6744,1,8
274,1.28616,7.6982,1,8
275,1.29396,7.7159,1,8
276,1.30175,7.731,1,8
277,1.30961,7.7534,1,8
278,1.31747,7.7732,1,8
279,1.32533,7.7909,1,8
280,1.33322,7.8112,1,8
281,1.34113,7.8298,1,8
282,1.34909,7.8483,1,8
283,1.36505,7.8724,1,8
284,1.37305,7.8918,1,8
285,1.38109,7.9164,1,8
286,1.38913,7.9414,1,8
287,1.39723,7.9647,1,8
288,1.40533,7.9893,1,8
289,1.41344,8.0143,1,8
290,1.42159,8.0406,1,8
291,1.42977,8.0669,1,8
292,1.43798,8.0924,1,8
293,1.44621,8.1162,1,8
294,1.45448,8.1429,1,8
295,1.46276,8.1675,1,8
296,1.47108,8.1951,1,8
297,1.47941,8.218,1,8
298,1.48775,8.2426,1,8
299,1.49611,8.2676,1,8
300,1.51288,8.2935,1,8
301,1.52131,8.3189,1,8
302,1.52977,8.3443,1,8
303,1.53825,8.3684,1,8
304,1.54674,8.3913,1,8
305,1.55529,8.4176,1,8
306,1.56384,8.4409,1,8
307,1.57241,8.4646,1,8
308,1.581,8.4896,1,8
309,1.58961,8.5134,1,8
310,1.59823,8.5349,1,8
311,1.60688,8.5561,1,8
312,1.61556,8.5812,1,8
313,1.62427,8.611,1,8
314,1.64182,8.6395,1,8
315,1.65059,8.6611,1,8
316,1.65942,8.6896,1,8
317,1.66829,8.7194,1,8
318,1.67714,8.7457,1,8
319,1.68602,8.7729,1,8
320,1.69492,8.8005,1,8
321,1.70383,8.8268,1,8
322,1.71277,8.8501,1,8
323,1.72177,8.8734,1,8
324,1.73078,8.8958,1,8
325,1.7398,8.9208,1,8
326,1.74885,8.9428,1,8
327,1.75795,8.9665,1,8
328,1.76707,8.9924,1,8
329,1.77618,9.0165,1,8
330,1.78534,9.042,1,8
331,1.7945,9.0675,1,8
332,1.80369,9.0921,1,8
333,1.8129,9.1128,1,8
334,1.82213,9.1357,1,8
335,1.83143,9.1633,1,8
336,1.84071,9.1857,1,8
337,1.85001,9.2064,1,8
338,1.85931,9.2245,1,8
339,1.86863,9.2448,1,8
340,1.87797,9.2634,1,8
341,1.88732,9.2815,1,8
342,1.90609,9.303,1,8
343,1.91551,9.3237,1,8
344,1.92494,9.3431,1,8
345,1.93439,9.3595,1,8
346,1.9439,9.3824,1,8
347,1.95341,9.4027,1,8
348,1.96294,9.4256,1,8
349,1.97249,9.4489,1,8
350,1.98205,9.4713,1,8
351,1.99166,9.4972,1,8
352,2.00129,9.5201,1,8
353,2.01094,9.5434,1,8
354,2.02063,9.5693,1,8
355,2.03032,9.5926,1,8
356,2.04006,9.6163,1,8
357,2.04982,9.6413,1,8
358,2.05953,9.6599,1,8
359,2.06932,9.6832,1,8
360,2.07911,9.7061,1,8
361,2.08892,9.7268,1,8
362,2.09871,9.7423,1,8
363,2.10858,9.7699,1,8
364,2.12839,9.7888,1,8
365,2.13831,9.8125,1,8
366,2.14824,9.8311,1,8
367,2.15818,9.8488,1,8
368,2.16816,9.8751,1,8
369,2.17813,9.8945,1,8
370,2.1882,9.9212,1,8
371,2.19826,9.9466,1,8
372,2.20835,9.9768,1,8
373,2.21846,9.9945,1,8
374,2.22862,10.0213,1,8
375,2.24895,10.0468,1,8
376,2.25914,10.0726,1,8
377,2.26934,10.0993,1,8
378,2.27959,10.1269,1,8
379,2.28985,10.1554,1,8
380,2.30019,10.183,1,8
381,2.31052,10.2093,1,8
382,2.32086,10.2343,1,8
383,2.33124,10.2615,1,8
384,2.34164,10.2878,1,8
385,2.35207,10.3124,1,8
386,2.36253,10.3392,1,8
387,2.373,10.3656,1,8
388,2.38352,10.3928,1,8
389,2.39404,10.4187,1,8
390,2.40458,10.4386,1,8
391,2.41516,10.4641,1,8
392,2.42576,10.49,1,8
393,2.43633,10.5098,1,8
394,2.44694,10.5301,1,8
395,2.45753,10.5465,1,8
396,2.46818,10.5655,1,8
397,2.47886,10.5866,1,8
398,2.48955,10.6034,1,8
399,2.50026,10.6223,1,8
400,2.51103,10.6451,1,8
401,2.52178,10.6671,1,8
402,2.54342,10.6904,1,8
403,2.55423,10.7142,1,8
404,2.56512,10.7418,1,8
405,2.57601,10.772,1,8
406,2.58695,10.8013,1,8
407,2.59791,10.8289,1,8
408,2.60888,10.8569,1,8
409,2.6199,10.8876,1,8
410,2.63088,10.9096,1,8
411,2.64188,10.9295,1,8
412,2.65293,10.9507,1,8
413,2.66399,10.9761,1,8
414,2.67509,10.9977,1,8
415,2.68622,11.021,1,8
416,2.69734,11.0387,1,8
417,2.70848,11.0573,1,8
418,2.71962,11.0746,1,8
419,2.73079,11.0892,1,8
420,2.74199,11.1112,1,8
421,2.75323,11.1353,1,8
422,2.76451,11.1586,1,8
423,2.77579,11.1802,1,8
424,2.78704,11.1953,1,8
425,2.7984,11.2155,1,8
426,2.82108,11.2388,1,8
427,2.83243,11.2595,1,8
428,2.84383,11.2849,1,8
429,2.85525,11.3108,1,8
430,2.86671,11.3363,1,8
431,2.87817,11.3579,1,8
432,2.88969,11.3816,1,8
433,2.90123,11.4079,1,8
434,2.91278,11.4376,1,8
435,2.92433,11.4596,1,8
436,2.93591,11.4876,1,8
437,2.95924,11.5225,1,8
438,2.9709,11.5484,1,8
439,2.98256,11.5726,1,8
440,2.99423,11.5933,1,8
441,3.00591,11.6157,1,8
442,3.01754,11.6273,1,8
443,3.02928,11.6467,1,8
444,3.041,11.6636,1,8
445,3.05276,11.6848,1,8
446,3.06455,11.7004,1,8
447,3.07638,11.7138,1,8
448,3.08821,11.7319,1,8
449,3.10009,11.753,1,8
450,3.11195,11.7724,1,8
451,3.12386,11.7953,1,8
452,3.13582,11.8277,1,8
453,3.1478,11.8523,1,8
454,3.15979,11.879,1,8
455,3.17183,11.9075,1,8
456,3.18387,11.9325,1,8
457,3.19588,11.9497,1,8
458,3.20792,11.9709,1,8
459,3.22004,11.9942,1,8
460,3.23215,12.0192,1,8
461,3.24429,12.042,1,8
462,3.25642,12.0597,1,8
463,3.26858,12.0765,1,8
464,3.29293,12.0985,1,8
465,3.30514,12.1149,1,8
466,3.31742,12.1391,1,8
467,3.3297,12.1663,1,8
468,3.342,12.1922,1,8
469,3.35434,12.2142,1,8
470,3.36671,12.241,1,8
471,3.37909,12.2643,1,8
472,3.39146,12.2889,1,8
473,3.40384,12.3114,1,8
474,3.41627,12.3334,1,8
475,3.42873,12.3584,1,8
476,3.44126,12.3834,1,8
477,3.45377,12.4072,1,8
478,3.46628,12.4279,1,8
479,3.47885,12.4517,1,8
480,3.49144,12.4724,1,8
481,3.50406,12.4979,1,8
482,3.5167,12.5242,1,8
483,3.52938,12.5544,1,8
484,3.54207,12.5803,1,8
485,3.55477,12.604,1,8
486,3.56744,12.6182,1,8
487,3.58015,12.638,1,8
488,3.59288,12.6596,1,8
489,3.60559,12.6803,1,8
490,3.63117,12.7023,1,8
491,3.64402,12.7243,1,8
492,3.65687,12.7454,1,8
493,3.66976,12.7661,1,8
494,3.68265,12.7868,1,8
495,3.69556,12.8084,1,8
496,3.70852,12.8373,1,8
497,3.72154,12.8688,1,8
498,3.73456,12.8972,1,8
499,3.74761,12.9235,1,8
500,3.77367,12.9455,1,8
501,3.78675,12.9688,1,8
502,3.79984,12.9921,1,8
503,3.81298,13.0175,1,8
504,3.82609,13.04,1,8
505,3.83918,13.0577,1,8
506,3.8523,13.0733,1,8
507,3.86546,13.0867,1,8
508,3.87863,13.1027,1,8
509,3.89181,13.1161,1,8
510,3.90498,13.1308,1,8
511,3.91815,13.1403,1,8
512,3.93137,13.1533,1,8
513,3.94456,13.159,1,8
514,3.95779,13.1702,1,8
515,3.97099,13.1805,1,8
516,3.98416,13.1865,1,8
517,3.99735,13.1891,1,8
518,4.0105,13.1865,1,8
519,4.02365,13.1843,1,8
520,4.03681,13.1834,1,8
521,4.05001,13.1864,1,8
522,4.06318,13.1816,1,8
523,4.07638,13.182,1,8
524,4.08953,13.1733,1,8
525,4.10268,13.169,1,8
526,4.11581,13.1651,1,8
527,4.1289,13.1551,1,8
528,4.14203,13.1534,1,8
529,4.15513,13.1482,1,8
530,4.18136,13.1435,1,8
531,4.19448,13.1353,1,8
532,4.20764,13.1349,1,8
533,4.22075,13.1254,1,8
534,4.23389,13.125,1,8
535,4.24699,13.1203,1,8
536,4.26012,13.1199,1,8
537,4.2732,13.1195,1,8
538,4.28629,13.1147,1,8
539,4.29935,13.1113,1,8
540,4.31243,13.1078,1,8
541,4.32549,13.1013,1,8
542,4.33855,13.0905,1,8
543,4.35164,13.0892,1,8
544,4.36471,13.0819,1,8
545,4.37778,13.0793,1,8
546,4.39083,13.0711,1,8
547,4.40389,13.0685,1,8
548,4.41695,13.0659,1,8
549,4.42999,13.0642,1,8
550,4.44308,13.0651,1,8
551,4.45616,13.0651,1,8
552,4.46922,13.0647,1,8
553,4.49533,13.0621,1,8
554,4.50836,13.0586,1,8
555,4.52142,13.0564,1,8
556,4.53445,13.0542,1,8
557,4.54751,13.0546,1,8
558,4.56055,13.0525,1,8
559,4.5736,13.0529,1,8
560,4.58664,13.0486,1,8
561,4.59969,13.0465,1,8
562,4.62576,13.0443,1,8
563,4.63878,13.04,1,8
564,4.6518,13.0392,1,8
565,4.66481,13.0349,1,8
566,4.67781,13.0315,1,8
567,4.69081,13.0255,1,8
568,4.71679,13.0229,1,8
569,4.7298,13.0181,1,8
570,4.74281,13.0142,1,8
571,4.75583,13.0133,1,8
572,4.76885,13.0125,1,8
573,4.78188,13.0125,1,8
574,4.7949,13.0129,1,8
575,4.80792,13.0138,1,8
576,4.82095,13.0164,1,8
577,4.83397,13.0194,1,8
578,4.847,13.0207,1,8
579,4.85996,13.0169,1,8
580,4.87297,13.0169,1,8
581,4.88595,13.0117,1,8
582,4.89894,13.0091,1,8
583,4.91194,13.0061,1,8
584,4.92496,13.0052,1,8
585,4.93798,13.0056,1,8
586,4.95099,13.0043,1,8
587,4.96399,13.0013,1,8
588,4.97696,12.9965,1,8
589,4.98999,13.0025,1,8
590,5.00301,13.0033,1,8
591,5.01605,13.0098,1,8
592,5.02906,13.0102,1,8
593,5.0551,13.0145,1,8
594,5.0681,13.0128,1,8
595,5.08103,13.0033,1,8
596,5.09402,13.0011,1,8
