cnt,pos,speed,Dir,Force,
1,0,1.0139,1,8
2,0.00118065,1.0441,1,8
3,0.00239944,1.0778,1,8
4,0.0036602,1.1105,1,8
5,0.00494003,1.1425,1,8
6,0.00621986,1.1718,1,8
7,0.00756073,1.202,1,8
8,0.00889969,1.2274,1,8
9,0.0103092,1.2597,1,8
10,0.0116997,1.2839,1,8
11,0.0131607,1.3154,1,8
12,0.0146408,1.3456,1,8
13,0.0161209,1.3714,1,8
14,0.0176697,1.4008,1,8
15,0.0192394,1.4292,1,8
16,0.0207901,1.4572,1,8
17,0.0224209,1.4874,1,8
18,0.0257397,1.5215,1,8
19,0.0274391,1.5513,1,8
20,0.02915,1.5823,1,8
21,0.03088,1.6104,1,8
22,0.032671,1.641,1,8
23,0.0344906,1.6747,1,8
24,0.0363293,1.704,1,8
25,0.0382004,1.7342,1,8
26,0.0400906,1.767,1,8
27,0.0419998,1.7942,1,8
28,0.0439606,1.8231,1,8
29,0.0479393,1.8542,1,8
30,0.0499802,1.8879,1,8
31,0.0520306,1.9194,1,8
32,0.0541,1.9475,1,8
33,0.0562305,1.9786,1,8
34,0.0583801,2.0097,1,8
35,0.0627499,2.0421,1,8
36,0.0649891,2.0775,1,8
37,0.0672493,2.112,1,8
38,0.0695305,2.144,1,8
39,0.0718498,2.1742,1,8
40,0.0742092,2.2057,1,8
41,0.0765705,2.2367,1,8
42,0.0789604,2.269,1,8
43,0.0813999,2.3005,1,8
44,0.0838699,2.332,1,8
45,0.0863609,2.3652,1,8
46,0.0914307,2.3958,1,8
47,0.0939999,2.4268,1,8
48,0.0965996,2.4574,1,8
49,0.0992699,2.4932,1,8
50,0.101931,2.5238,1,8
51,0.104601,2.554,1,8
52,0.10734,2.5886,1,8
53,0.11009,2.6248,1,8
54,0.11289,2.658,1,8
55,0.1157,2.6874,1,8
56,0.118521,2.7151,1,8
57,0.12429,2.7471,1,8
58,0.12722,2.7812,1,8
59,0.13018,2.8097,1,8
60,0.13316,2.8412,1,8
61,0.13619,2.8775,1,8
62,0.1392,2.9098,1,8
63,0.145361,2.9396,1,8
64,0.148479,2.9711,1,8
65,0.151621,3.0034,1,8
66,0.1548,3.0387,1,8
67,0.15801,3.071,1,8
68,0.164511,3.1042,1,8
69,0.167789,3.1357,1,8
70,0.171089,3.1689,1,8
71,0.174459,3.2021,1,8
72,0.177851,3.2349,1,8
73,0.181231,3.2633,1,8
74,0.184681,3.2965,1,8
75,0.18816,3.3306,1,8
76,0.191641,3.3613,1,8
77,0.195129,3.3885,1,8
78,0.1987,3.4191,1,8
79,0.20229,3.4523,1,8
80,0.209539,3.486,1,8
81,0.2132,3.5162,1,8
82,0.216921,3.549,1,8
83,0.220631,3.5818,1,8
84,0.22438,3.6116,1,8
85,0.228161,3.6414,1,8
86,0.231979,3.675,1,8
87,0.23583,3.7112,1,8
88,0.239691,3.7401,1,8
89,0.243561,3.7668,1,8
90,0.24748,3.7978,1,8
91,0.255421,3.8293,1,8
92,0.25942,3.8578,1,8
93,0.26346,3.8902,1,8
94,0.267521,3.9217,1,8
95,0.27161,3.9527,1,8
96,0.275721,3.9821,1,8
97,0.279869,4.0123,1,8
98,0.28405,4.0443,1,8
99,0.2925,4.0806,1,8
100,0.29677,4.1121,1,8
101,0.30105,4.1427,1,8
102,0.30537,4.1746,1,8
103,0.309719,4.2052,1,8
104,0.314091,4.2371,1,8
105,0.318501,4.2686,1,8
106,0.32291,4.2983,1,8
107,0.32736,4.3285,1,8
108,0.331869,4.3604,1,8
109,0.336361,4.3858,1,8
110,0.34087,4.4104,1,8
111,0.34544,4.4385,1,8
112,0.350031,4.4657,1,8
113,0.354641,4.4925,1,8
114,0.359289,4.5193,1,8
115,0.363951,4.5448,1,8
116,0.36865,4.5737,1,8
117,0.373381,4.6013,1,8
118,0.378139,4.6272,1,8
119,0.382931,4.6596,1,8
120,0.39258,4.6924,1,8
121,0.39748,4.7256,1,8
122,0.40237,4.7549,1,8
123,0.40729,4.7864,1,8
124,0.41227,4.8196,1,8
125,0.41725,4.8515,1,8
126,0.42227,4.883,1,8
127,0.427311,4.9141,1,8
128,0.43236,4.9438,1,8
129,0.43745,4.971,1,8
130,0.4426,5.0012,1,8
131,0.447741,5.0262,1,8
132,0.452909,5.0543,1,8
133,0.458111,5.0823,1,8
134,0.46335,5.1077,1,8
135,0.468651,5.1392,1,8
136,0.47393,5.1664,1,8
137,0.479271,5.1966,1,8
138,0.484631,5.2264,1,8
139,0.49,5.2553,1,8
140,0.49543,5.2838,1,8
141,0.500891,5.3149,1,8
142,0.506359,5.3451,1,8
143,0.51185,5.3792,1,8
144,0.522961,5.4124,1,8
145,0.528509,5.4379,1,8
146,0.53413,5.4711,1,8
147,0.53974,5.4979,1,8
148,0.54542,5.5303,1,8
149,0.551109,5.5622,1,8
150,0.55681,5.5889,1,8
151,0.562559,5.6182,1,8
152,0.568331,5.6479,1,8
153,0.574129,5.6733,1,8
154,0.58584,5.7031,1,8
155,0.591721,5.7363,1,8
156,0.59763,5.7648,1,8
157,0.603559,5.7971,1,8
158,0.60952,5.8255,1,8
159,0.61552,5.8561,1,8
160,0.62151,5.8846,1,8
161,0.62756,5.9144,1,8
162,0.633591,5.9416,1,8
163,0.6397,5.9723,1,8
164,0.645809,5.9969,1,8
165,0.65196,6.0232,1,8
166,0.65814,6.0517,1,8
167,0.664379,6.0824,1,8
168,0.67061,6.1092,1,8
169,0.676901,6.1381,1,8
170,0.683189,6.1683,1,8
171,0.689529,6.1976,1,8
172,0.6959,6.2304,1,8
173,0.702299,6.2597,1,8
174,0.708679,6.2929,1,8
175,0.72159,6.3248,1,8
176,0.7281,6.3567,1,8
177,0.734579,6.3812,1,8
178,0.741119,6.4123,1,8
179,0.7477,6.4408,1,8
180,0.75432,6.4749,1,8
181,0.760941,6.5021,1,8
182,0.76762,6.5336,1,8
183,0.774321,6.5638,1,8
184,0.78105,6.5927,1,8
185,0.78779,6.6203,1,8
186,0.79458,6.6488,1,8
187,0.801399,6.6825,1,8
188,0.80825,6.7127,1,8
189,0.8151,6.7407,1,8
190,0.822001,6.7674,1,8
191,0.82892,6.798,1,8
192,0.835859,6.8239,1,8
193,0.84284,6.8524,1,8
194,0.849859,6.8809,1,8
195,0.85688,6.9085,1,8
196,0.863991,6.9404,1,8
197,0.87818,6.968,1,8
198,0.88534,6.9994,1,8
199,0.8925,7.0305,1,8
200,0.8997,7.0612,1,8
201,0.90691,7.0897,1,8
202,0.914129,7.1181,1,8
203,0.92137,7.1431,1,8
204,0.92868,7.1729,1,8
205,0.935989,7.2014,1,8
206,0.943319,7.2238,1,8
207,0.95071,7.2527,1,8
208,0.95812,7.2817,1,8
209,0.973009,7.3093,1,8
210,0.980539,7.342,1,8
211,0.988041,7.3718,1,8
212,0.995581,7.4033,1,8
213,1.00315,7.4365,1,8
214,1.01075,7.4654,1,8
215,1.01836,7.496,1,8
216,1.02604,7.5305,1,8
217,1.03372,7.5603,1,8
218,1.04144,7.5879,1,8
219,1.04922,7.6216,1,8
220,1.057,7.6467,1,8
221,1.06479,7.6756,1,8
222,1.07266,7.708,1,8
223,1.08054,7.7391,1,8
224,1.08843,7.768,1,8
225,1.09632,7.7965,1,8
226,1.10425,7.8211,1,8
227,1.1122,7.8478,1,8
228,1.12019,7.8745,1,8
229,1.12822,7.8995,1,8
230,1.13627,7.9279,1,8
231,1.15245,7.9602,1,8
232,1.16056,7.9844,1,8
233,1.16872,8.0124,1,8
234,1.17689,8.0409,1,8
235,1.18508,8.0698,1,8
236,1.19331,8.1009,1,8
237,1.20155,8.129,1,8
238,1.20982,8.1579,1,8
239,1.21815,8.1877,1,8
240,1.22649,8.2149,1,8
241,1.23488,8.243,1,8
242,1.2433,8.2736,1,8
243,1.25174,8.3021,1,8
244,1.26021,8.3314,1,8
245,1.26869,8.3616,1,8
246,1.27721,8.3896,1,8
247,1.28573,8.4185,1,8
248,1.29429,8.447,1,8
249,1.30281,8.4664,1,8
250,1.31144,8.4949,1,8
251,1.3201,8.5212,1,8
252,1.33751,8.5553,1,8
253,1.34624,8.5838,1,8
254,1.355,8.6127,1,8
255,1.36381,8.6447,1,8
256,1.37265,8.6771,1,8
257,1.38149,8.709,1,8
258,1.39036,8.7396,1,8
259,1.39927,8.7784,1,8
260,1.40822,8.8116,1,8
261,1.41719,8.8431,1,8
262,1.42618,8.8664,1,8
263,1.43523,8.8987,1,8
264,1.45338,8.9328,1,8
265,1.46248,8.9621,1,8
266,1.47158,8.988,1,8
267,1.48073,9.0186,1,8
268,1.48984,9.0424,1,8
269,1.49902,9.07,1,8
270,1.50821,9.0938,1,8
271,1.51746,9.121,1,8
272,1.52675,9.1512,1,8
273,1.53604,9.175,1,8
274,1.54538,9.1996,1,8
275,1.55473,9.225,1,8
276,1.56412,9.2539,1,8
277,1.57353,9.2803,1,8
278,1.58295,9.3113,1,8
279,1.59243,9.3411,1,8
280,1.60194,9.373,1,8
281,1.61147,9.4014,1,8
282,1.62105,9.4307,1,8
283,1.63064,9.4604,1,8
284,1.64026,9.488,1,8
285,1.64993,9.5165,1,8
286,1.65957,9.5471,1,8
287,1.67898,9.5773,1,8
288,1.68872,9.6097,1,8
289,1.69847,9.6369,1,8
290,1.70823,9.6619,1,8
291,1.71809,9.6947,1,8
292,1.72794,9.7215,1,8
293,1.7378,9.7492,1,8
294,1.7477,9.7768,1,8
295,1.7576,9.8027,1,8
296,1.76752,9.826,1,8
297,1.77748,9.851,1,8
298,1.78749,9.8769,1,8
299,1.79753,9.9058,1,8
300,1.80762,9.939,1,8
301,1.8177,9.961,1,8
302,1.82783,9.989,1,8
303,1.83797,10.0166,1,8
304,1.84813,10.0429,1,8
305,1.85832,10.0722,1,8
306,1.86852,10.0994,1,8
307,1.88903,10.1304,1,8
308,1.89935,10.1619,1,8
309,1.90973,10.1955,1,8
310,1.92009,10.2223,1,8
311,1.93049,10.2547,1,8
312,1.9409,10.2827,1,8
313,1.95136,10.315,1,8
314,1.96185,10.3474,1,8
315,1.97237,10.3807,1,8
316,1.98291,10.4152,1,8
317,1.9935,10.4467,1,8
318,2.0041,10.476,1,8
319,2.02538,10.5045,1,8
320,2.03604,10.5347,1,8
321,2.04672,10.5632,1,8
322,2.05739,10.5891,1,8
323,2.06812,10.615,1,8
324,2.07887,10.6422,1,8
325,2.08967,10.6693,1,8
326,2.10046,10.6948,1,8
327,2.11133,10.7224,1,8
328,2.12219,10.7474,1,8
329,2.13309,10.7716,1,8
330,2.14404,10.8005,1,8
331,2.15499,10.8263,1,8
332,2.16598,10.8587,1,8
333,2.177,10.8889,1,8
334,2.18808,10.9212,1,8
335,2.19917,10.9506,1,8
336,2.21028,10.9812,1,8
337,2.22143,11.0106,1,8
338,2.23258,11.0391,1,8
339,2.24372,11.0632,1,8
340,2.25492,11.0882,1,8
341,2.26614,11.1154,1,8
342,2.2887,11.146,1,8
343,2.2887,11.1719,1,8
344,2.3113,11.1952,1,8
345,2.32263,11.2198,1,8
346,2.33397,11.2435,1,8
347,2.34538,11.2681,1,8
348,2.35681,11.297,1,8
349,2.36828,11.3298,1,8
350,2.37977,11.3587,1,8
351,2.39133,11.3928,1,8
352,2.4029,11.4196,1,8
353,2.41446,11.4481,1,8
354,2.42603,11.4731,1,8
355,2.43764,11.5007,1,8
356,2.44929,11.5318,1,8
357,2.46096,11.5585,1,8
358,2.47269,11.5878,1,8
359,2.48442,11.6137,1,8
360,2.4962,11.643,1,8
361,2.50801,11.6676,1,8
362,2.51982,11.6926,1,8
363,2.54354,11.7215,1,8
364,2.55549,11.7599,1,8
365,2.56746,11.7957,1,8
366,2.57947,11.8315,1,8
367,2.59143,11.8609,1,8
368,2.60341,11.8868,1,8
369,2.61541,11.9131,1,8
370,2.62743,11.9364,1,8
371,2.63948,11.9614,1,8
372,2.65158,11.9899,1,8
373,2.66369,12.0218,1,8
374,2.68805,12.0451,1,8
375,2.70025,12.0693,1,8
376,2.71249,12.0922,1,8
377,2.72477,12.1237,1,8
378,2.73708,12.1561,1,8
379,2.74947,12.1949,1,8
380,2.76183,12.2295,1,8
381,2.77423,12.2645,1,8
382,2.78667,12.2981,1,8
383,2.79908,12.3218,1,8
384,2.81153,12.3482,1,8
385,2.82398,12.3723,1,8
386,2.83649,12.3999,1,8
387,2.84905,12.4279,1,8
388,2.8616,12.452,1,8
389,2.87417,12.4706,1,8
390,2.88677,12.4939,1,8
391,2.89938,12.515,1,8
392,2.91205,12.5383,1,8
393,2.92472,12.5642,1,8
394,2.93748,12.5961,1,8
395,2.95026,12.6289,1,8
396,2.96305,12.6561,1,8
397,2.97584,12.6794,1,8
398,2.98867,12.7075,1,8
399,3.01439,12.7386,1,8
400,3.02729,12.7696,1,8
401,3.04025,12.8041,1,8
402,3.05323,12.8352,1,8
403,3.06628,12.8723,1,8
404,3.07934,12.9025,1,8
405,3.09238,12.9284,1,8
406,3.10545,12.9564,1,8
407,3.11857,12.99,1,8
408,3.13176,13.0258,1,8
409,3.14491,13.0521,1,8
410,3.15803,13.0733,1,8
411,3.17112,13.0871,1,8
412,3.18425,13.1013,1,8
413,3.19745,13.1177,1,8
414,3.21063,13.1293,1,8
415,3.22385,13.147,1,8
416,3.23701,13.1565,1,8
417,3.25022,13.1635,1,8
418,3.26342,13.1665,1,8
419,3.28985,13.1738,1,8
420,3.30305,13.182,1,8
421,3.31618,13.1855,1,8
422,3.32931,13.1855,1,8
423,3.34245,13.1795,1,8
424,3.3556,13.1765,1,8
425,3.36875,13.1691,1,8
426,3.38189,13.1674,1,8
427,3.39504,13.1626,1,8
428,3.42131,13.154,1,8
429,3.43441,13.1424,1,8
430,3.44754,13.1354,1,8
431,3.4607,13.138,1,8
432,3.47385,13.141,1,8
433,3.48699,13.1397,1,8
434,3.50012,13.1384,1,8
435,3.51323,13.135,1,8
436,3.52639,13.1367,1,8
437,3.53949,13.1311,1,8
438,3.5526,13.1285,1,8
439,3.56569,13.1276,1,8
440,3.5788,13.1255,1,8
441,3.59186,13.1155,1,8
442,3.60498,13.1121,1,8
443,3.61805,13.106,1,8
444,3.63116,13.1034,1,8
445,3.64425,13.1021,1,8
446,3.65734,13.0943,1,8
447,3.67042,13.0926,1,8
448,3.68348,13.0887,1,8
449,3.69658,13.0887,1,8
450,3.70967,13.0878,1,8
451,3.72282,13.096,1,8
452,3.73598,13.1007,1,8
453,3.7491,13.1051,1,8
454,3.76221,13.0991,1,8
455,3.78832,13.0961,1,8
456,3.80135,13.0905,1,8
457,3.81441,13.0887,1,8
458,3.82745,13.0857,1,8
459,3.84049,13.081,1,8
460,3.85352,13.0733,1,8
461,3.86655,13.0626,1,8
462,3.8796,13.051,1,8
463,3.89266,13.0458,1,8
464,3.90571,13.0458,1,8
465,3.91876,13.0445,1,8
466,3.9318,13.0454,1,8
467,3.94486,13.0454,1,8
468,3.95789,13.0441,1,8
469,3.97091,13.0415,1,8
470,3.98391,13.0397,1,8
471,3.99691,13.0362,1,8
472,4.0099,13.0301,1,8
473,4.0229,13.024,1,8
474,4.04887,13.0166,1,8
475,4.06186,13.0105,1,8
476,4.07485,13.0057,1,8
477,4.08782,12.9967,1,8
478,4.1008,12.9924,1,8
479,4.11379,12.9893,1,8
480,4.12676,12.9859,1,8
481,4.13974,12.9842,1,8
482,4.15273,12.9847,1,8
483,4.16576,12.9865,1,8
484,4.17877,12.99,1,8
485,4.19176,12.9918,1,8
486,4.20477,12.9949,1,8
487,4.2308,12.9992,1,8
488,4.2438,13.0009,1,8
489,4.25678,13.0001,1,8
490,4.26977,13.0014,1,8
491,4.28275,13.0014,1,8
492,4.29571,12.9979,1,8
493,4.30872,12.9966,1,8
494,4.32169,12.9927,1,8
495,4.33467,12.9905,1,8
496,4.34767,12.9879,1,8
497,4.36067,12.9866,1,8
498,4.37369,12.9888,1,8
499,4.38671,12.9922,1,8
500,4.39973,12.9965,1,8
501,4.41274,12.9995,1,8
502,4.42575,13.0047,1,8
503,4.43875,13.0038,1,8
504,4.45175,13.0064,1,8
505,4.46474,13.0064,1,8
506,4.47773,13.0064,1,8
507,4.49071,13.0042,1,8
508,4.50368,12.999,1,8
509,4.5167,12.999,1,8
510,4.52968,12.9951,1,8
511,4.54269,12.9921,1,8
512,4.56867,12.9908,1,8
513,4.58167,12.9899,1,8
514,4.59467,12.9903,1,8
515,4.60768,12.9925,1,8
516,4.62067,12.9925,1,8
517,4.63369,12.9969,1,8
518,4.64667,12.9977,1,8
519,4.65967,12.996,1,8
520,4.67263,12.9939,1,8
521,4.68564,12.996,1,8
522,4.6986,12.9921,1,8
523,4.7116,12.9934,1,8
524,4.72459,12.9926,1,8
525,4.73761,12.9939,1,8
526,4.7506,12.9934,1,8
527,4.76361,12.9916,1,8
528,4.77661,12.9942,1,8
529,4.78961,12.9942,1,8
530,4.80261,12.998,1,8
531,4.8156,12.9959,1,8
532,4.82859,12.9998,1,8
533,4.84158,12.9977,1,8
534,4.85456,12.9938,1,8
535,4.88048,12.9882,1,8
536,4.89347,12.9882,1,8
537,4.90643,12.9835,1,8
538,4.91941,12.9814,1,8
539,4.93235,12.9754,1,8
540,4.94538,12.9776,1,8
541,4.95837,12.9789,1,8
542,4.9714,12.9815,1,8
543,4.98442,12.9854,1,8
544,5.01048,12.9927,1,8
545,5.02347,12.9957,1,8
546,5.03649,12.9983,1,8
547,5.04951,13.0043,1,8
548,5.06249,13.0047,1,8
549,5.07549,13.0103,1,8
550,5.08848,13.0068,1,8
