cnt,pos,speed,Dir,Force,
1,0,1.0008,1,4
2,0.00100136,1.0033,1,4
3,0.00201988,1.0061,1,4
4,0.00304985,1.009,1,4
5,0.00407028,1.0115,1,4
6,0.00510025,1.0135,1,4
7,0.00612068,1.0163,1,4
8,0.00715065,1.0195,1,4
9,0.00819016,1.0223,1,4
10,0.00923157,1.0245,1,4
11,0.0102615,1.0266,1,4
12,0.011301,1.0298,1,4
13,0.0123501,1.0335,1,4
14,0.0134106,1.0365,1,4
15,0.0144615,1.0387,1,4
16,0.0155106,1.0413,1,4
17,0.0165615,1.0448,1,4
18,0.0176315,1.0482,1,4
19,0.0187016,1.0507,1,4
20,0.0197601,1.0531,1,4
21,0.0208302,1.0566,1,4
22,0.0219002,1.0604,1,4
23,0.0229912,1.0637,1,4
24,0.0240707,1.066,1,4
25,0.0251503,1.0684,1,4
26,0.0262299,1.0718,1,4
27,0.0273209,1.0753,1,4
28,0.02841,1.078,1,4
29,0.029501,1.0807,1,4
30,0.0306015,1.084,1,4
31,0.0317001,1.0877,1,4
32,0.0328102,1.0906,1,4
33,0.0339108,1.0925,1,4
34,0.0350208,1.0949,1,4
35,0.0361309,1.0985,1,4
36,0.0372505,1.102,1,4
37,0.0383701,1.1049,1,4
38,0.0394897,1.1079,1,4
39,0.0406208,1.1112,1,4
40,0.0417404,1.1144,1,4
41,0.0428715,1.1166,1,4
42,0.0440006,1.1193,1,4
43,0.0451412,1.1229,1,4
44,0.0462914,1.1271,1,4
45,0.0474415,1.1307,1,4
46,0.0485802,1.1335,1,4
47,0.0497303,1.1361,1,4
48,0.0508804,1.139,1,4
49,0.0520401,1.142,1,4
50,0.0531998,1.1452,1,4
51,0.0543613,1.1492,1,4
52,0.0555305,1.1529,1,4
53,0.0566998,1.1557,1,4
54,0.0578709,1.1577,1,4
55,0.0590401,1.1602,1,4
56,0.0602207,1.1637,1,4
57,0.0614014,1.1675,1,4
58,0.0625916,1.1707,1,4
59,0.0637703,1.174,1,4
60,0.0649605,1.177,1,4
61,0.0661507,1.1795,1,4
62,0.0673409,1.1819,1,4
63,0.0685406,1.185,1,4
64,0.0697498,1.189,1,4
65,0.070961,1.1926,1,4
66,0.0721703,1.1955,1,4
67,0.0733814,1.198,1,4
68,0.0745907,1.2007,1,4
69,0.0758114,1.2035,1,4
70,0.0770302,1.2066,1,4
71,0.0782604,1.2104,1,4
72,0.0794907,1.2144,1,4
73,0.0807209,1.2174,1,4
74,0.0819511,1.2196,1,4
75,0.0831814,1.2221,1,4
76,0.0844212,1.2257,1,4
77,0.0856705,1.2294,1,4
78,0.0869198,1.2333,1,4
79,0.088171,1.2366,1,4
80,0.0894203,1.2398,1,4
81,0.0906811,1.2424,1,4
82,0.0919399,1.2452,1,4
83,0.0932102,1.2492,1,4
84,0.0944805,1.2532,1,4
85,0.0957508,1.2569,1,4
86,0.0970211,1.26,1,4
87,0.0983009,1.2634,1,4
88,0.0995903,1.2667,1,4
89,0.10087,1.2701,1,4
90,0.102161,1.2739,1,4
91,0.10346,1.2782,1,4
92,0.104761,1.2818,1,4
93,0.10606,1.2849,1,4
94,0.107361,1.2887,1,4
95,0.108671,1.2925,1,4
96,0.109982,1.2963,1,4
97,0.111301,1.2999,1,4
98,0.112621,1.3035,1,4
99,0.113941,1.3071,1,4
100,0.115271,1.3107,1,4
101,0.1166,1.3142,1,4
102,0.117941,1.3182,1,4
103,0.11927,1.3218,1,4
104,0.120611,1.3251,1,4
105,0.12196,1.3286,1,4
106,0.12331,1.3322,1,4
107,0.12466,1.336,1,4
108,0.12602,1.3397,1,4
109,0.12738,1.3434,1,4
110,0.12874,1.3467,1,4
111,0.1301,1.35,1,4
112,0.13147,1.3535,1,4
113,0.132851,1.3575,1,4
114,0.134232,1.3612,1,4
115,0.135611,1.365,1,4
116,0.136992,1.3683,1,4
117,0.13838,1.3714,1,4
118,0.139771,1.3747,1,4
119,0.141161,1.3788,1,4
120,0.142561,1.3826,1,4
121,0.143961,1.3862,1,4
122,0.14537,1.3894,1,4
123,0.14677,1.3925,1,4
124,0.14818,1.3958,1,4
125,0.149601,1.3995,1,4
126,0.15102,1.4032,1,4
127,0.152441,1.4067,1,4
128,0.15386,1.4099,1,4
129,0.155291,1.4131,1,4
130,0.156731,1.4168,1,4
131,0.158171,1.4206,1,4
132,0.159601,1.424,1,4
133,0.161041,1.427,1,4
134,0.162481,1.4303,1,4
135,0.16394,1.4336,1,4
136,0.165401,1.4375,1,4
137,0.166851,1.441,1,4
138,0.16831,1.4443,1,4
139,0.16976,1.4469,1,4
140,0.171221,1.4496,1,4
141,0.172701,1.4529,1,4
142,0.174171,1.4568,1,4
143,0.17564,1.4601,1,4
144,0.177111,1.4628,1,4
145,0.178591,1.4654,1,4
146,0.18008,1.468,1,4
147,0.18157,1.4718,1,4
148,0.18306,1.4756,1,4
149,0.184551,1.4789,1,4
150,0.186041,1.4819,1,4
151,0.18754,1.4846,1,4
152,0.189051,1.4877,1,4
153,0.190561,1.4915,1,4
154,0.19207,1.4956,1,4
155,0.193581,1.4989,1,4
156,0.195101,1.502,1,4
157,0.196621,1.5048,1,4
158,0.198141,1.508,1,4
159,0.199671,1.5115,1,4
160,0.2012,1.5154,1,4
161,0.20273,1.5188,1,4
162,0.204271,1.522,1,4
163,0.205811,1.5254,1,4
164,0.20735,1.5284,1,4
165,0.2089,1.5315,1,4
166,0.210451,1.535,1,4
167,0.212011,1.539,1,4
168,0.213572,1.5426,1,4
169,0.21513,1.5461,1,4
170,0.21669,1.549,1,4
171,0.21825,1.5521,1,4
172,0.219831,1.5555,1,4
173,0.221411,1.5596,1,4
174,0.22299,1.5633,1,4
175,0.224571,1.5668,1,4
176,0.226151,1.57,1,4
177,0.227741,1.5729,1,4
178,0.229342,1.5765,1,4
179,0.23093,1.5803,1,4
180,0.232531,1.5837,1,4
181,0.234121,1.5871,1,4
182,0.235731,1.5902,1,4
183,0.237341,1.5929,1,4
184,0.238951,1.5963,1,4
185,0.240561,1.5998,1,4
186,0.24218,1.6033,1,4
187,0.243801,1.6067,1,4
188,0.24543,1.6096,1,4
189,0.247051,1.6124,1,4
190,0.248692,1.6159,1,4
191,0.25032,1.6196,1,4
192,0.251961,1.6233,1,4
193,0.253601,1.6266,1,4
194,0.255251,1.6295,1,4
195,0.256891,1.6328,1,4
196,0.258551,1.6368,1,4
197,0.26021,1.6407,1,4
198,0.261871,1.6444,1,4
199,0.26354,1.6479,1,4
200,0.265202,1.6514,1,4
201,0.26688,1.6555,1,4
202,0.26856,1.6599,1,4
203,0.27025,1.664,1,4
204,0.271931,1.6679,1,4
205,0.273611,1.6718,1,4
206,0.275311,1.6757,1,4
207,0.27701,1.6799,1,4
208,0.278721,1.684,1,4
209,0.28042,1.6881,1,4
210,0.28212,1.6922,1,4
211,0.28384,1.6959,1,4
212,0.285561,1.6996,1,4
213,0.287291,1.7038,1,4
214,0.289011,1.7082,1,4
215,0.290731,1.7123,1,4
216,0.292471,1.716,1,4
217,0.29421,1.7194,1,4
218,0.29595,1.7233,1,4
219,0.297691,1.7276,1,4
220,0.29944,1.7318,1,4
221,0.301191,1.7357,1,4
222,0.30294,1.7385,1,4
223,0.304701,1.7416,1,4
224,0.306461,1.7455,1,4
225,0.308231,1.7495,1,4
226,0.310001,1.7529,1,4
227,0.31176,1.7555,1,4
228,0.31353,1.7581,1,4
229,0.315311,1.7615,1,4
230,0.317091,1.7649,1,4
231,0.318871,1.7678,1,4
232,0.32065,1.7707,1,4
233,0.322432,1.7734,1,4
234,0.324221,1.776,1,4
235,0.326021,1.779,1,4
236,0.32781,1.7817,1,4
237,0.329611,1.7847,1,4
238,0.3314,1.7871,1,4
239,0.3332,1.7894,1,4
240,0.335011,1.792,1,4
241,0.336821,1.7948,1,4
242,0.338621,1.7975,1,4
243,0.340431,1.7998,1,4
244,0.342241,1.8022,1,4
245,0.344061,1.8046,1,4
246,0.345881,1.8073,1,4
247,0.3477,1.8097,1,4
248,0.34952,1.8124,1,4
249,0.351351,1.8146,1,4
250,0.35318,1.8173,1,4
251,0.355021,1.8198,1,4
252,0.35685,1.8222,1,4
253,0.358681,1.8247,1,4
254,0.36051,1.8271,1,4
255,0.36236,1.8298,1,4
256,0.36421,1.8324,1,4
257,0.366051,1.835,1,4
258,0.367901,1.8375,1,4
259,0.369751,1.8403,1,4
260,0.371611,1.8426,1,4
261,0.37347,1.8449,1,4
262,0.37532,1.8478,1,4
263,0.377192,1.8508,1,4
264,0.379051,1.8534,1,4
265,0.380911,1.8553,1,4
266,0.38278,1.8575,1,4
267,0.384651,1.8604,1,4
268,0.38653,1.8632,1,4
269,0.388401,1.8648,1,4
270,0.39027,1.8665,1,4
271,0.392151,1.8689,1,4
272,0.394041,1.8713,1,4
273,0.39592,1.873,1,4
274,0.397791,1.8742,1,4
275,0.399672,1.876,1,4
276,0.40156,1.8782,1,4
277,0.40345,1.8797,1,4
278,0.40534,1.8807,1,4
279,0.407221,1.8824,1,4
280,0.409111,1.8842,1,4
281,0.411011,1.8855,1,4
282,0.412901,1.8862,1,4
283,0.414791,1.8873,1,4
284,0.416681,1.8894,1,4
285,0.418581,1.8907,1,4
286,0.420481,1.8913,1,4
287,0.422371,1.8918,1,4
288,0.424271,1.8933,1,4
289,0.42617,1.8944,1,4
290,0.428061,1.8949,1,4
291,0.42996,1.8951,1,4
292,0.43186,1.8961,1,4
293,0.43376,1.8971,1,4
294,0.435661,1.8972,1,4
295,0.437551,1.8972,1,4
296,0.439461,1.8977,1,4
297,0.44136,1.8986,1,4
298,0.44326,1.8985,1,4
299,0.44515,1.8982,1,4
300,0.44705,1.8987,1,4
301,0.44895,1.8995,1,4
302,0.450851,1.8995,1,4
303,0.452751,1.8988,1,4
304,0.454641,1.8987,1,4
305,0.456551,1.8994,1,4
306,0.45845,1.8992,1,4
307,0.46034,1.8984,1,4
308,0.46224,1.8982,1,4
309,0.46413,1.8986,1,4
310,0.466042,1.8985,1,4
311,0.46793,1.8979,1,4
312,0.469831,1.8975,1,4
313,0.47172,1.8976,1,4
314,0.473621,1.8974,1,4
315,0.475521,1.8971,1,4
316,0.477421,1.8973,1,4
317,0.479321,1.8974,1,4
318,0.481211,1.897,1,4
319,0.483101,1.8966,1,4
320,0.485001,1.8969,1,4
321,0.48691,1.8972,1,4
322,0.4888,1.8965,1,4
323,0.49069,1.896,1,4
324,0.49258,1.8965,1,4
325,0.49449,1.8973,1,4
326,0.496391,1.8968,1,4
327,0.498281,1.8961,1,4
328,0.50017,1.8964,1,4
329,0.502081,1.8976,1,4
330,0.503981,1.8978,1,4
331,0.505871,1.8969,1,4
332,0.507771,1.8972,1,4
333,0.50967,1.8986,1,4
334,0.511581,1.8995,1,4
335,0.513481,1.8987,1,4
336,0.515371,1.8986,1,4
337,0.517271,1.8998,1,4
338,0.51918,1.9009,1,4
339,0.52108,1.9008,1,4
340,0.522991,1.9006,1,4
341,0.524891,1.902,1,4
342,0.5268,1.9036,1,4
343,0.528711,1.904,1,4
344,0.530611,1.9037,1,4
345,0.53253,1.905,1,4
346,0.534441,1.9069,1,4
347,0.53635,1.9079,1,4
348,0.538261,1.9084,1,4
349,0.54018,1.91,1,4
350,0.54211,1.9124,1,4
351,0.544031,1.9139,1,4
352,0.54595,1.9145,1,4
353,0.547871,1.9158,1,4
354,0.549801,1.9185,1,4
355,0.551741,1.9208,1,4
356,0.553671,1.9222,1,4
357,0.55559,1.924,1,4
358,0.557531,1.9267,1,4
359,0.559471,1.929,1,4
360,0.56142,1.9303,1,4
361,0.563351,1.9321,1,4
362,0.5653,1.935,1,4
363,0.56724,1.9378,1,4
364,0.569201,1.9397,1,4
365,0.57115,1.9412,1,4
366,0.573101,1.9436,1,4
367,0.57506,1.9462,1,4
368,0.577011,1.9479,1,4
369,0.57897,1.9498,1,4
370,0.58094,1.9523,1,4
371,0.582901,1.955,1,4
372,0.58486,1.9566,1,4
373,0.58683,1.9584,1,4
374,0.58881,1.9609,1,4
375,0.59078,1.9635,1,4
376,0.59276,1.9655,1,4
377,0.59473,1.9671,1,4
378,0.59671,1.9699,1,4
379,0.598701,1.9724,1,4
380,0.600681,1.9745,1,4
381,0.602671,1.9763,1,4
382,0.60466,1.9793,1,4
383,0.606651,1.9823,1,4
384,0.60865,1.9845,1,4
385,0.610651,1.9866,1,4
386,0.61265,1.9896,1,4
387,0.614651,1.9928,1,4
388,0.616661,1.9955,1,4
389,0.618681,1.9981,1,4
390,0.620691,2.001,1,4
391,0.622711,2.0041,1,4
392,0.624722,2.0069,1,4
393,0.626751,2.0098,1,4
394,0.62878,2.013,1,4
395,0.63081,2.0164,1,4
396,0.632841,2.019,1,4
397,0.634871,2.022,1,4
398,0.636921,2.0254,1,4
399,0.63896,2.0288,1,4
400,0.64101,2.0317,1,4
401,0.643051,2.0345,1,4
402,0.645102,2.0378,1,4
403,0.647161,2.0416,1,4
404,0.649221,2.0446,1,4
405,0.651281,2.0474,1,4
406,0.653351,2.0508,1,4
407,0.65542,2.0549,1,4
408,0.657501,2.0583,1,4
409,0.65958,2.0614,1,4
410,0.66165,2.0646,1,4
411,0.66374,2.069,1,4
412,0.665831,2.0731,1,4
413,0.667931,2.0765,1,4
414,0.670021,2.08,1,4
415,0.672121,2.0837,1,4
416,0.674231,2.0882,1,4
417,0.67634,2.0921,1,4
418,0.678461,2.096,1,4
419,0.680571,2.0999,1,4
420,0.682701,2.1044,1,4
421,0.68483,2.1086,1,4
422,0.68696,2.1129,1,4
423,0.6891,2.117,1,4
424,0.69124,2.1216,1,4
425,0.69339,2.1266,1,4
426,0.695541,2.131,1,4
427,0.697701,2.1355,1,4
428,0.699862,2.14,1,4
429,0.702021,2.1448,1,4
430,0.704191,2.1495,1,4
431,0.70636,2.154,1,4
432,0.708551,2.1584,1,4
433,0.710732,2.163,1,4
434,0.712921,2.1678,1,4
435,0.715111,2.1724,1,4
436,0.71731,2.1768,1,4
437,0.719511,2.1809,1,4
438,0.72171,2.1855,1,4
439,0.723921,2.1902,1,4
440,0.726141,2.1947,1,4
441,0.728361,2.1991,1,4
442,0.730581,2.2037,1,4
443,0.732811,2.2081,1,4
444,0.735041,2.2125,1,4
445,0.73728,2.2167,1,4
446,0.739521,2.2213,1,4
447,0.74177,2.226,1,4
448,0.74402,2.2304,1,4
449,0.746271,2.2348,1,4
450,0.748531,2.2393,1,4
451,0.750792,2.2438,1,4
452,0.753061,2.2482,1,4
453,0.755341,2.2527,1,4
454,0.75761,2.257,1,4
455,0.759892,2.2617,1,4
456,0.76218,2.2663,1,4
457,0.764471,2.2708,1,4
458,0.76676,2.2749,1,4
459,0.76907,2.2793,1,4
460,0.77137,2.284,1,4
461,0.77368,2.2883,1,4
462,0.775991,2.2923,1,4
463,0.778301,2.2967,1,4
464,0.78063,2.3013,1,4
465,0.782951,2.3058,1,4
466,0.78528,2.3096,1,4
467,0.787611,2.3137,1,4
468,0.789951,2.3184,1,4
469,0.79229,2.3226,1,4
470,0.794641,2.3266,1,4
471,0.796991,2.3309,1,4
472,0.799341,2.3355,1,4
473,0.801701,2.3395,1,4
474,0.80406,2.3433,1,4
475,0.806421,2.3472,1,4
476,0.80879,2.3515,1,4
477,0.811171,2.3555,1,4
478,0.813541,2.3589,1,4
479,0.81592,2.3626,1,4
480,0.8183,2.3662,1,4
481,0.820681,2.3696,1,4
482,0.823071,2.3732,1,4
483,0.82547,2.3766,1,4
484,0.82786,2.3799,1,4
485,0.830261,2.3832,1,4
486,0.832661,2.3863,1,4
487,0.83506,2.3895,1,4
488,0.837471,2.393,1,4
489,0.83988,2.3959,1,4
490,0.842291,2.3988,1,4
491,0.8447,2.402,1,4
492,0.84712,2.4048,1,4
493,0.84955,2.408,1,4
494,0.851971,2.4109,1,4
495,0.854391,2.4137,1,4
496,0.856831,2.4168,1,4
497,0.859261,2.4196,1,4
498,0.861691,2.4224,1,4
499,0.864141,2.4257,1,4
500,0.866581,2.429,1,4
501,0.86902,2.4318,1,4
502,0.871471,2.4345,1,4
503,0.87392,2.4374,1,4
504,0.876371,2.4406,1,4
505,0.87883,2.4436,1,4
506,0.88129,2.4466,1,4
507,0.88376,2.4499,1,4
508,0.886221,2.4527,1,4
509,0.888691,2.4554,1,4
510,0.891161,2.4583,1,4
511,0.893641,2.4615,1,4
512,0.89612,2.4648,1,4
513,0.898602,2.4678,1,4
514,0.901081,2.4708,1,4
515,0.90357,2.4738,1,4
516,0.906061,2.4768,1,4
517,0.90855,2.4796,1,4
518,0.911051,2.483,1,4
519,0.913551,2.4863,1,4
520,0.91605,2.4893,1,4
521,0.91856,2.4923,1,4
522,0.92107,2.4955,1,4
523,0.92358,2.4985,1,4
524,0.9261,2.5016,1,4
525,0.92861,2.5048,1,4
526,0.931141,2.5079,1,4
527,0.933661,2.511,1,4
528,0.936192,2.514,1,4
529,0.938721,2.5172,1,4
530,0.941261,2.5205,1,4
531,0.9438,2.5239,1,4
532,0.946341,2.5272,1,4
533,0.948891,2.5306,1,4
534,0.951441,2.534,1,4
535,0.953991,2.5371,1,4
536,0.956541,2.5403,1,4
537,0.959101,2.5435,1,4
538,0.96166,2.5466,1,4
539,0.96422,2.5495,1,4
540,0.966791,2.5527,1,4
541,0.96936,2.5561,1,4
542,0.971931,2.5593,1,4
543,0.97452,2.5629,1,4
544,0.9771,2.5664,1,4
545,0.979691,2.57,1,4
546,0.982271,2.5734,1,4
547,0.984871,2.5772,1,4
548,0.987461,2.5806,1,4
549,0.990061,2.5844,1,4
550,0.99267,2.5878,1,4
551,0.99527,2.5912,1,4
552,0.997881,2.5947,1,4
553,1.0005,2.598,1,4
554,1.00311,2.6012,1,4
555,1.00573,2.6045,1,4
556,1.00836,2.6079,1,4
557,1.01098,2.6107,1,4
558,1.01361,2.6142,1,4
559,1.01624,2.6173,1,4
560,1.01887,2.6203,1,4
561,1.0215,2.6232,1,4
562,1.02415,2.6262,1,4
563,1.02679,2.629,1,4
564,1.02943,2.6316,1,4
565,1.03208,2.6344,1,4
566,1.03473,2.637,1,4
567,1.03738,2.6399,1,4
568,1.04003,2.6426,1,4
569,1.04269,2.645,1,4
570,1.04535,2.6479,1,4
571,1.04801,2.6504,1,4
572,1.05067,2.6526,1,4
573,1.05334,2.655,1,4
574,1.056,2.6574,1,4
575,1.05867,2.6592,1,4
576,1.06134,2.6615,1,4
577,1.06401,2.6634,1,4
578,1.06668,2.665,1,4
579,1.06936,2.6671,1,4
580,1.07203,2.6683,1,4
581,1.07471,2.6697,1,4
582,1.07739,2.6714,1,4
583,1.08007,2.6728,1,4
584,1.08275,2.6742,1,4
585,1.08543,2.676,1,4
586,1.08811,2.6772,1,4
587,1.0908,2.6785,1,4
588,1.09348,2.6799,1,4
589,1.09617,2.6809,1,4
590,1.09886,2.6824,1,4
591,1.10155,2.6839,1,4
592,1.10424,2.6849,1,4
593,1.10693,2.686,1,4
594,1.10962,2.6875,1,4
595,1.11232,2.6886,1,4
596,1.11501,2.6897,1,4
597,1.11771,2.6914,1,4
598,1.12041,2.6927,1,4
599,1.12311,2.6937,1,4
600,1.1258,2.6947,1,4
601,1.1285,2.6957,1,4
602,1.1312,2.6968,1,4
603,1.1339,2.6976,1,4
604,1.13661,2.6984,1,4
605,1.13931,2.6993,1,4
606,1.14201,2.7003,1,4
607,1.14472,2.7006,1,4
608,1.14742,2.7012,1,4
609,1.15013,2.7024,1,4
610,1.15283,2.7031,1,4
611,1.15554,2.7036,1,4
612,1.15824,2.7042,1,4
613,1.16095,2.7046,1,4
614,1.16366,2.705,1,4
615,1.16636,2.7053,1,4
616,1.16907,2.7059,1,4
617,1.17178,2.7065,1,4
618,1.17449,2.7069,1,4
619,1.1772,2.7069,1,4
620,1.1799,2.7071,1,4
621,1.18261,2.7074,1,4
622,1.18532,2.7076,1,4
623,1.18803,2.708,1,4
624,1.19074,2.7082,1,4
625,1.19345,2.7084,1,4
626,1.19615,2.708,1,4
627,1.19886,2.7077,1,4
628,1.20156,2.7075,1,4
629,1.20427,2.7072,1,4
630,1.20697,2.7069,1,4
631,1.20968,2.7066,1,4
632,1.21238,2.7062,1,4
633,1.21508,2.7054,1,4
634,1.21778,2.7047,1,4
635,1.22049,2.7043,1,4
636,1.22319,2.7041,1,4
637,1.2259,2.7039,1,4
638,1.2286,2.7031,1,4
639,1.23129,2.7025,1,4
640,1.23399,2.7021,1,4
641,1.2367,2.7016,1,4
642,1.23939,2.701,1,4
643,1.24209,2.7009,1,4
644,1.24479,2.7003,1,4
645,1.24749,2.6996,1,4
646,1.25019,2.6991,1,4
647,1.25288,2.6983,1,4
648,1.25557,2.6979,1,4
649,1.25827,2.6978,1,4
650,1.26097,2.6973,1,4
651,1.26366,2.6964,1,4
652,1.26635,2.6958,1,4
653,1.26905,2.6952,1,4
654,1.27174,2.6948,1,4
655,1.27442,2.694,1,4
656,1.27711,2.6929,1,4
657,1.2798,2.6921,1,4
658,1.28249,2.6917,1,4
659,1.28518,2.6903,1,4
660,1.28786,2.6892,1,4
661,1.29055,2.6887,1,4
662,1.29323,2.6876,1,4
663,1.29591,2.6864,1,4
664,1.29859,2.6853,1,4
665,1.30127,2.6843,1,4
666,1.30395,2.6832,1,4
667,1.30662,2.6819,1,4
668,1.3093,2.6805,1,4
669,1.31197,2.6793,1,4
670,1.31464,2.6781,1,4
671,1.31731,2.6766,1,4
672,1.31998,2.6754,1,4
673,1.32265,2.6738,1,4
674,1.32531,2.6724,1,4
675,1.32798,2.6712,1,4
676,1.33064,2.6698,1,4
677,1.3333,2.6684,1,4
678,1.33597,2.6667,1,4
679,1.33862,2.6652,1,4
680,1.34128,2.6635,1,4
681,1.34393,2.6619,1,4
682,1.34659,2.6602,1,4
683,1.34924,2.6588,1,4
684,1.35188,2.657,1,4
685,1.35453,2.655,1,4
686,1.35718,2.6532,1,4
687,1.35982,2.6517,1,4
688,1.36246,2.6499,1,4
689,1.36511,2.6483,1,4
690,1.36774,2.6465,1,4
691,1.37038,2.6445,1,4
692,1.37301,2.6427,1,4
693,1.37565,2.6411,1,4
694,1.37828,2.6391,1,4
695,1.3809,2.6371,1,4
696,1.38353,2.6355,1,4
697,1.38616,2.6334,1,4
698,1.38878,2.6319,1,4
699,1.39141,2.6302,1,4
700,1.39403,2.6286,1,4
701,1.39665,2.6268,1,4
702,1.39927,2.6256,1,4
703,1.40189,2.6238,1,4
704,1.4045,2.6224,1,4
705,1.40711,2.621,1,4
706,1.40973,2.6194,1,4
707,1.41234,2.618,1,4
708,1.41495,2.6164,1,4
709,1.41755,2.6147,1,4
710,1.42016,2.6132,1,4
711,1.42277,2.6121,1,4
712,1.42537,2.61,1,4
713,1.42797,2.6085,1,4
714,1.43057,2.6072,1,4
715,1.43317,2.6057,1,4
716,1.43577,2.6042,1,4
717,1.43837,2.6027,1,4
718,1.44096,2.6014,1,4
719,1.44356,2.6,1,4
720,1.44615,2.5988,1,4
721,1.44874,2.5977,1,4
722,1.45133,2.5966,1,4
723,1.45393,2.5955,1,4
724,1.45652,2.5943,1,4
725,1.45911,2.5937,1,4
726,1.4617,2.5932,1,4
727,1.46429,2.5924,1,4
728,1.46688,2.5916,1,4
729,1.46947,2.5916,1,4
730,1.47206,2.5912,1,4
731,1.47465,2.591,1,4
732,1.47724,2.5911,1,4
733,1.47984,2.5913,1,4
734,1.48243,2.5915,1,4
735,1.48502,2.5917,1,4
736,1.48762,2.5921,1,4
737,1.49022,2.5929,1,4
738,1.49281,2.5934,1,4
739,1.49541,2.594,1,4
740,1.49801,2.5949,1,4
741,1.50061,2.5959,1,4
742,1.50322,2.5969,1,4
743,1.50582,2.5979,1,4
744,1.50842,2.5993,1,4
745,1.51103,2.6006,1,4
746,1.51364,2.6018,1,4
747,1.51625,2.6031,1,4
748,1.51886,2.6049,1,4
749,1.52147,2.6062,1,4
750,1.52409,2.608,1,4
751,1.52671,2.6094,1,4
752,1.52933,2.6113,1,4
753,1.53195,2.6131,1,4
754,1.53458,2.6153,1,4
755,1.53721,2.6174,1,4
756,1.53984,2.6199,1,4
757,1.54248,2.6224,1,4
758,1.54511,2.6251,1,4
759,1.54775,2.6279,1,4
760,1.5504,2.6306,1,4
761,1.55304,2.6336,1,4
762,1.5557,2.6366,1,4
763,1.55835,2.64,1,4
764,1.56101,2.6429,1,4
765,1.56367,2.6462,1,4
766,1.56633,2.6492,1,4
767,1.569,2.6526,1,4
768,1.57168,2.6561,1,4
769,1.57435,2.6599,1,4
770,1.57703,2.6634,1,4
771,1.57972,2.6672,1,4
772,1.58241,2.6712,1,4
773,1.5851,2.675,1,4
774,1.5878,2.679,1,4
775,1.5905,2.6832,1,4
776,1.59321,2.6876,1,4
777,1.59592,2.6921,1,4
778,1.59864,2.6964,1,4
779,1.60136,2.7007,1,4
780,1.60409,2.7053,1,4
781,1.60682,2.7099,1,4
782,1.60955,2.7143,1,4
783,1.61229,2.7192,1,4
784,1.61504,2.7239,1,4
785,1.61779,2.7288,1,4
786,1.62055,2.7335,1,4
787,1.6233,2.738,1,4
788,1.62607,2.7426,1,4
789,1.62884,2.7473,1,4
790,1.63161,2.7521,1,4
791,1.63439,2.7569,1,4
792,1.63717,2.7615,1,4
793,1.63995,2.7659,1,4
794,1.64275,2.7706,1,4
795,1.64554,2.7752,1,4
796,1.64834,2.7798,1,4
797,1.65115,2.784,1,4
798,1.65395,2.7883,1,4
799,1.65676,2.7926,1,4
800,1.65958,2.797,1,4
801,1.66239,2.8007,1,4
802,1.66522,2.8049,1,4
803,1.66804,2.8085,1,4
804,1.67087,2.8121,1,4
805,1.6737,2.8156,1,4
806,1.67653,2.8192,1,4
807,1.67937,2.8228,1,4
808,1.68221,2.8265,1,4
809,1.68506,2.8298,1,4
810,1.68791,2.8329,1,4
811,1.69076,2.8362,1,4
812,1.69361,2.8392,1,4
813,1.69646,2.8425,1,4
814,1.69932,2.8456,1,4
815,1.70218,2.8486,1,4
816,1.70505,2.8516,1,4
817,1.70792,2.8546,1,4
818,1.71079,2.8572,1,4
819,1.71366,2.8601,1,4
820,1.71653,2.8629,1,4
821,1.71941,2.8657,1,4
822,1.7223,2.8685,1,4
823,1.72518,2.8713,1,4
824,1.72806,2.8741,1,4
825,1.73095,2.8769,1,4
826,1.73384,2.8793,1,4
827,1.73674,2.8822,1,4
828,1.73964,2.8851,1,4
829,1.74254,2.888,1,4
830,1.74544,2.8906,1,4
831,1.74835,2.8934,1,4
832,1.75125,2.8959,1,4
833,1.75416,2.8984,1,4
834,1.75707,2.9007,1,4
835,1.75999,2.9031,1,4
836,1.76291,2.906,1,4
837,1.76583,2.9086,1,4
838,1.76876,2.9118,1,4
839,1.77169,2.9148,1,4
840,1.77462,2.9177,1,4
841,1.77755,2.9205,1,4
842,1.78049,2.9236,1,4
843,1.78343,2.9268,1,4
844,1.78637,2.9302,1,4
845,1.78932,2.9331,1,4
846,1.79227,2.9361,1,4
847,1.79522,2.9392,1,4
848,1.79818,2.9418,1,4
849,1.80113,2.9445,1,4
850,1.8041,2.9476,1,4
851,1.80706,2.9506,1,4
852,1.81003,2.9535,1,4
853,1.81299,2.9563,1,4
854,1.81597,2.9593,1,4
855,1.81894,2.9624,1,4
856,1.82192,2.9655,1,4
857,1.82491,2.9687,1,4
858,1.82789,2.9719,1,4
859,1.83088,2.9749,1,4
860,1.83387,2.9777,1,4
