cnt,pos,speed,Dir,Force,
1,0,1.0062,-1,7
2,0.00105,1.0152,-1,7
3,0.00211,1.0245,-1,7
4,0.00319982,1.0352,-1,7
5,0.00430989,1.0466,-1,7
6,0.00541997,1.0562,-1,7
7,0.00650978,1.0654,-1,7
8,0.00761986,1.0763,-1,7
9,0.00878,1.0889,-1,7
10,0.00993991,1.0998,-1,7
11,0.0110898,1.1088,-1,7
12,0.0122399,1.1187,-1,7
13,0.0134299,1.1321,-1,7
14,0.0146399,1.1448,-1,7
15,0.0158498,1.1538,-1,7
16,0.01704,1.1623,-1,7
17,0.01826,1.1749,-1,7
18,0.0195098,1.1888,-1,7
19,0.0207698,1.1991,-1,7
20,0.0220199,1.2074,-1,7
21,0.0232799,1.2189,-1,7
22,0.02457,1.2329,-1,7
23,0.0258698,1.2437,-1,7
24,0.0271699,1.2523,-1,7
25,0.0284798,1.2633,-1,7
26,0.02981,1.2765,-1,7
27,0.0311499,1.2885,-1,7
28,0.0324998,1.2989,-1,7
29,0.03387,1.3093,-1,7
30,0.0352299,1.3206,-1,7
31,0.0365999,1.3321,-1,7
32,0.0380099,1.3441,-1,7
33,0.0394199,1.3556,-1,7
34,0.0408299,1.3663,-1,7
35,0.0422499,1.3767,-1,7
36,0.04369,1.3885,-1,7
37,0.0451398,1.3996,-1,7
38,0.0465999,1.4098,-1,7
39,0.0480599,1.42,-1,7
40,0.0495298,1.4307,-1,7
41,0.0510199,1.4415,-1,7
42,0.0525198,1.4514,-1,7
43,0.0540299,1.4606,-1,7
44,0.0555298,1.4704,-1,7
45,0.05705,1.4804,-1,7
46,0.0585899,1.4898,-1,7
47,0.0601299,1.4991,-1,7
48,0.0616798,1.5084,-1,7
49,0.0632398,1.5173,-1,7
50,0.0647998,1.5264,-1,7
51,0.06637,1.5356,-1,7
52,0.0679598,1.5436,-1,7
53,0.0711498,1.5529,-1,7
54,0.0711498,1.5622,-1,7
55,0.0727499,1.5703,-1,7
56,0.0743499,1.5776,-1,7
57,0.0759699,1.5854,-1,7
58,0.0776,1.5925,-1,7
59,0.0792298,1.6,-1,7
60,0.0808599,1.6077,-1,7
61,0.0825,1.6137,-1,7
62,0.0841398,1.6195,-1,7
63,0.0857899,1.6247,-1,7
64,0.08743,1.6288,-1,7
65,0.0890799,1.6331,-1,7
66,0.09073,1.6375,-1,7
67,0.0923798,1.6407,-1,7
68,0.0940399,1.6441,-1,7
69,0.0956998,1.6472,-1,7
70,0.0973599,1.6496,-1,7
71,0.0990298,1.6532,-1,7
72,0.10071,1.6566,-1,7
73,0.10238,1.6592,-1,7
74,0.10406,1.6629,-1,7
75,0.10574,1.6667,-1,7
76,0.10743,1.6708,-1,7
77,0.10913,1.6754,-1,7
78,0.11083,1.6789,-1,7
79,0.11252,1.682,-1,7
80,0.11422,1.6864,-1,7
81,0.11593,1.6901,-1,7
82,0.11765,1.6938,-1,7
83,0.11936,1.6974,-1,7
84,0.12107,1.7005,-1,7
85,0.12279,1.7044,-1,7
86,0.12452,1.7082,-1,7
87,0.12625,1.7111,-1,7
88,0.12797,1.7146,-1,7
89,0.1297,1.718,-1,7
90,0.13144,1.7212,-1,7
91,0.13318,1.7243,-1,7
92,0.13491,1.7266,-1,7
93,0.13666,1.7298,-1,7
94,0.1384,1.7336,-1,7
95,0.14015,1.7371,-1,7
96,0.14191,1.7396,-1,7
97,0.14366,1.7419,-1,7
98,0.14541,1.7448,-1,7
99,0.14718,1.749,-1,7
100,0.14894,1.7517,-1,7
101,0.15071,1.7541,-1,7
102,0.15248,1.7572,-1,7
103,0.15425,1.7602,-1,7
104,0.15604,1.7635,-1,7
105,0.15782,1.766,-1,7
106,0.15959,1.7681,-1,7
107,0.16138,1.7714,-1,7
108,0.16317,1.7751,-1,7
109,0.16497,1.7787,-1,7
110,0.16677,1.7821,-1,7
111,0.16856,1.7843,-1,7
112,0.17036,1.7877,-1,7
113,0.17218,1.7919,-1,7
114,0.174,1.7959,-1,7
115,0.17581,1.799,-1,7
116,0.17761,1.802,-1,7
117,0.17944,1.8059,-1,7
118,0.18127,1.8099,-1,7
119,0.1831,1.813,-1,7
120,0.18493,1.8156,-1,7
121,0.18675,1.8192,-1,7
122,0.18859,1.8231,-1,7
123,0.19044,1.8263,-1,7
124,0.19411,1.828,-1,7
125,0.19595,1.831,-1,7
126,0.1978,1.8357,-1,7
127,0.1978,1.8387,-1,7
128,0.19966,1.8406,-1,7
129,0.2015,1.8413,-1,7
130,0.20335,1.8439,-1,7
131,0.2052,1.8473,-1,7
132,0.20706,1.8487,-1,7
133,0.20891,1.8492,-1,7
134,0.21076,1.8503,-1,7
135,0.21262,1.8522,-1,7
136,0.21448,1.853,-1,7
137,0.21633,1.8529,-1,7
138,0.21819,1.8527,-1,7
139,0.22004,1.8538,-1,7
140,0.2219,1.8553,-1,7
141,0.22376,1.8551,-1,7
142,0.2256,1.854,-1,7
143,0.22745,1.8536,-1,7
144,0.2293,1.8541,-1,7
145,0.23116,1.8541,-1,7
146,0.23301,1.8527,-1,7
147,0.23485,1.8512,-1,7
148,0.23669,1.8507,-1,7
149,0.23854,1.8501,-1,7
150,0.24038,1.8483,-1,7
151,0.24222,1.8466,-1,7
152,0.24405,1.8451,-1,7
153,0.24589,1.8439,-1,7
154,0.24772,1.842,-1,7
155,0.24955,1.8389,-1,7
156,0.25138,1.8369,-1,7
157,0.2532,1.8353,-1,7
158,0.25502,1.8325,-1,7
159,0.25683,1.8293,-1,7
160,0.25865,1.8261,-1,7
161,0.26046,1.824,-1,7
162,0.26226,1.8211,-1,7
163,0.26406,1.8171,-1,7
164,0.26586,1.8133,-1,7
165,0.26766,1.8105,-1,7
166,0.26946,1.8076,-1,7
167,0.27123,1.8033,-1,7
168,0.27301,1.7987,-1,7
169,0.27479,1.7954,-1,7
170,0.27657,1.792,-1,7
171,0.27834,1.7877,-1,7
172,0.28009,1.7829,-1,7
173,0.28184,1.7782,-1,7
174,0.28361,1.775,-1,7
175,0.28536,1.7704,-1,7
176,0.2871,1.7648,-1,7
177,0.28884,1.7604,-1,7
178,0.29057,1.7564,-1,7
179,0.29231,1.7523,-1,7
180,0.29404,1.7472,-1,7
181,0.29575,1.741,-1,7
182,0.29747,1.7372,-1,7
183,0.29918,1.734,-1,7
184,0.30089,1.7284,-1,7
185,0.30259,1.7227,-1,7
186,0.30428,1.7175,-1,7
187,0.30598,1.714,-1,7
188,0.30767,1.7104,-1,7
189,0.30935,1.7035,-1,7
190,0.3127,1.6984,-1,7
191,0.3127,1.6953,-1,7
192,0.31438,1.6919,-1,7
193,0.31606,1.6876,-1,7
194,0.31771,1.6822,-1,7
195,0.31936,1.6778,-1,7
196,0.32103,1.6758,-1,7
197,0.3227,1.6723,-1,7
198,0.32435,1.6675,-1,7
199,0.32599,1.665,-1,7
200,0.32929,1.6625,-1,7
201,0.33094,1.6593,-1,7
202,0.33257,1.6545,-1,7
203,0.33421,1.6507,-1,7
204,0.33585,1.6498,-1,7
205,0.33749,1.6482,-1,7
206,0.33912,1.6444,-1,7
207,0.34075,1.641,-1,7
208,0.34239,1.6395,-1,7
209,0.34403,1.6391,-1,7
210,0.34567,1.6374,-1,7
211,0.34729,1.6348,-1,7
212,0.34892,1.6347,-1,7
213,0.35056,1.6352,-1,7
214,0.3522,1.6346,-1,7
215,0.35384,1.6344,-1,7
216,0.35546,1.634,-1,7
217,0.3571,1.6344,-1,7
218,0.35874,1.6357,-1,7
219,0.36038,1.6354,-1,7
220,0.36202,1.6355,-1,7
221,0.36366,1.6377,-1,7
222,0.36531,1.6389,-1,7
223,0.36696,1.6397,-1,7
224,0.36861,1.6411,-1,7
225,0.37026,1.6425,-1,7
226,0.37192,1.6452,-1,7
227,0.37358,1.6482,-1,7
228,0.37524,1.65,-1,7
229,0.37691,1.6531,-1,7
230,0.37858,1.6562,-1,7
231,0.38025,1.6587,-1,7
232,0.38193,1.6625,-1,7
233,0.38362,1.6665,-1,7
234,0.38531,1.6697,-1,7
235,0.38699,1.6733,-1,7
236,0.38868,1.6767,-1,7
237,0.39039,1.6807,-1,7
238,0.3921,1.6859,-1,7
239,0.39381,1.6894,-1,7
240,0.39551,1.6929,-1,7
241,0.39723,1.6975,-1,7
242,0.39896,1.7026,-1,7
243,0.4007,1.7078,-1,7
244,0.40243,1.7121,-1,7
245,0.40415,1.7157,-1,7
246,0.4059,1.7216,-1,7
247,0.40766,1.7271,-1,7
248,0.40942,1.7314,-1,7
249,0.41117,1.7362,-1,7
250,0.41292,1.7411,-1,7
251,0.4147,1.747,-1,7
252,0.41648,1.7524,-1,7
253,0.41826,1.7559,-1,7
254,0.42004,1.7608,-1,7
255,0.42182,1.7672,-1,7
256,0.42363,1.7729,-1,7
257,0.42543,1.7775,-1,7
258,0.42722,1.7809,-1,7
259,0.42903,1.786,-1,7
260,0.43085,1.793,-1,7
261,0.43268,1.798,-1,7
262,0.43449,1.801,-1,7
263,0.43631,1.8051,-1,7
264,0.43815,1.8112,-1,7
265,0.44,1.8175,-1,7
266,0.44183,1.8206,-1,7
267,0.44366,1.8233,-1,7
268,0.44551,1.8286,-1,7
269,0.44737,1.8346,-1,7
270,0.44924,1.8386,-1,7
271,0.45108,1.8404,-1,7
272,0.45293,1.8439,-1,7
273,0.45481,1.8495,-1,7
274,0.45668,1.8536,-1,7
275,0.45855,1.8556,-1,7
276,0.46041,1.8576,-1,7
277,0.46228,1.8618,-1,7
278,0.46417,1.8661,-1,7
279,0.46606,1.8684,-1,7
280,0.46793,1.8695,-1,7
281,0.4698,1.8721,-1,7
282,0.47169,1.8759,-1,7
283,0.47359,1.8786,-1,7
284,0.47548,1.8792,-1,7
285,0.47735,1.8801,-1,7
286,0.47924,1.8829,-1,7
287,0.48114,1.8855,-1,7
288,0.48304,1.8864,-1,7
289,0.48492,1.8864,-1,7
290,0.48681,1.888,-1,7
291,0.48871,1.8908,-1,7
292,0.49061,1.8922,-1,7
293,0.49251,1.8917,-1,7
294,0.4944,1.8935,-1,7
295,0.49631,1.896,-1,7
296,0.49821,1.8979,-1,7
297,0.50011,1.8984,-1,7
298,0.50201,1.8987,-1,7
299,0.50392,1.9004,-1,7
300,0.50583,1.9025,-1,7
301,0.50964,1.9037,-1,7
302,0.51155,1.9042,-1,7
303,0.51347,1.9062,-1,7
304,0.51538,1.9075,-1,7
305,0.5173,1.9088,-1,7
306,0.51922,1.9105,-1,7
307,0.52114,1.9121,-1,7
308,0.52307,1.9148,-1,7
309,0.525,1.9175,-1,7
310,0.52693,1.9194,-1,7
311,0.52886,1.9217,-1,7
312,0.53079,1.9241,-1,7
313,0.53274,1.9275,-1,7
314,0.53469,1.9311,-1,7
315,0.53664,1.9338,-1,7
316,0.53858,1.9362,-1,7
317,0.54054,1.94,-1,7
318,0.54252,1.9451,-1,7
319,0.54449,1.949,-1,7
320,0.54645,1.9522,-1,7
321,0.54842,1.9564,-1,7
322,0.55042,1.9627,-1,7
323,0.55242,1.9684,-1,7
324,0.55442,1.9725,-1,7
325,0.55641,1.9779,-1,7
326,0.55843,1.9849,-1,7
327,0.56046,1.9924,-1,7
328,0.5625,1.9984,-1,7
329,0.56453,2.0042,-1,7
330,0.56657,2.0123,-1,7
331,0.56863,2.0208,-1,7
332,0.57071,2.0293,-1,7
333,0.57279,2.0369,-1,7
334,0.57487,2.0456,-1,7
335,0.57696,2.0548,-1,7
336,0.57908,2.0649,-1,7
337,0.58121,2.0751,-1,7
338,0.58335,2.0845,-1,7
339,0.58548,2.095,-1,7
340,0.58763,2.1058,-1,7
341,0.58981,2.1183,-1,7
342,0.59201,2.1295,-1,7
343,0.5942,2.1403,-1,7
344,0.59639,2.1521,-1,7
345,0.59862,2.1662,-1,7
346,0.60088,2.1798,-1,7
347,0.60313,2.1918,-1,7
348,0.60539,2.2043,-1,7
349,0.60767,2.2188,-1,7
350,0.60997,2.2343,-1,7
351,0.61229,2.2479,-1,7
352,0.61462,2.2615,-1,7
353,0.61695,2.2758,-1,7
354,0.61931,2.2916,-1,7
355,0.62169,2.3064,-1,7
356,0.62408,2.3209,-1,7
357,0.62649,2.3356,-1,7
358,0.62891,2.3518,-1,7
359,0.63134,2.3676,-1,7
360,0.63379,2.3823,-1,7
361,0.63627,2.3974,-1,7
362,0.63876,2.4137,-1,7
363,0.64126,2.4307,-1,7
364,0.64377,2.4464,-1,7
365,0.64631,2.4624,-1,7
366,0.64887,2.4787,-1,7
367,0.65144,2.4957,-1,7
368,0.65403,2.5125,-1,7
369,0.65664,2.5296,-1,7
370,0.65926,2.5468,-1,7
371,0.66191,2.5642,-1,7
372,0.66457,2.5812,-1,7
373,0.66725,2.5988,-1,7
374,0.66995,2.6175,-1,7
375,0.67266,2.6351,-1,7
376,0.6754,2.6529,-1,7
377,0.67815,2.6711,-1,7
378,0.68093,2.6894,-1,7
379,0.68371,2.7075,-1,7
380,0.68652,2.7259,-1,7
381,0.68935,2.7438,-1,7
382,0.69219,2.7617,-1,7
383,0.69505,2.7801,-1,7
384,0.69793,2.7978,-1,7
385,0.70082,2.8158,-1,7
386,0.70373,2.8334,-1,7
387,0.70667,2.8511,-1,7
388,0.70961,2.8687,-1,7
389,0.71258,2.8861,-1,7
390,0.71555,2.9032,-1,7
391,0.71855,2.9204,-1,7
392,0.72156,2.9373,-1,7
393,0.72459,2.9537,-1,7
394,0.72763,2.9701,-1,7
395,0.73069,2.9864,-1,7
396,0.73376,3.0025,-1,7
397,0.73685,3.0179,-1,7
398,0.73995,3.0334,-1,7
399,0.74306,3.049,-1,7
400,0.74619,3.064,-1,7
401,0.74934,3.0786,-1,7
402,0.75249,3.093,-1,7
403,0.75566,3.1071,-1,7
404,0.75884,3.121,-1,7
405,0.76203,3.1348,-1,7
406,0.76524,3.148,-1,7
407,0.76846,3.1611,-1,7
408,0.77168,3.1737,-1,7
409,0.77492,3.1856,-1,7
410,0.77817,3.1979,-1,7
411,0.78144,3.2101,-1,7
412,0.78471,3.2219,-1,7
413,0.78799,3.2334,-1,7
414,0.79129,3.245,-1,7
415,0.79459,3.2557,-1,7
416,0.7979,3.2665,-1,7
417,0.80123,3.2774,-1,7
418,0.80457,3.2881,-1,7
419,0.80791,3.299,-1,7
420,0.81127,3.3092,-1,7
421,0.81463,3.319,-1,7
422,0.818,3.3294,-1,7
423,0.82139,3.3394,-1,7
424,0.82478,3.3487,-1,7
425,0.82817,3.3582,-1,7
426,0.83158,3.3673,-1,7
427,0.83499,3.376,-1,7
428,0.83841,3.3843,-1,7
429,0.84183,3.3918,-1,7
430,0.84526,3.3994,-1,7
431,0.8487,3.4068,-1,7
432,0.85214,3.4133,-1,7
433,0.85558,3.4191,-1,7
434,0.85903,3.4249,-1,7
435,0.86247,3.4298,-1,7
436,0.86592,3.4346,-1,7
437,0.86937,3.4381,-1,7
438,0.87283,3.4417,-1,7
439,0.87628,3.4449,-1,7
440,0.87973,3.4471,-1,7
441,0.88318,3.4486,-1,7
442,0.89008,3.449,-1,7
443,0.89008,3.4491,-1,7
444,0.89352,3.4486,-1,7
445,0.89696,3.4476,-1,7
446,0.90039,3.4457,-1,7
447,0.90382,3.444,-1,7
448,0.90724,3.4408,-1,7
449,0.91066,3.4371,-1,7
450,0.91407,3.4326,-1,7
451,0.91747,3.4275,-1,7
452,0.92086,3.4225,-1,7
453,0.92425,3.4167,-1,7
454,0.92762,3.4097,-1,7
455,0.93098,3.4026,-1,7
456,0.93434,3.3949,-1,7
457,0.93768,3.3863,-1,7
458,0.94102,3.3774,-1,7
459,0.94434,3.3678,-1,7
460,0.94765,3.358,-1,7
461,0.95094,3.3477,-1,7
462,0.95423,3.3352,-1,7
463,0.9575,3.3238,-1,7
464,0.96076,3.3109,-1,7
465,0.964,3.2987,-1,7
466,0.96723,3.286,-1,7
467,0.97044,3.2728,-1,7
468,0.97364,3.2594,-1,7
469,0.97682,3.2443,-1,7
470,0.97999,3.2284,-1,7
471,0.98314,3.2127,-1,7
472,0.9894,3.1978,-1,7
473,0.9894,3.1811,-1,7
474,0.99251,3.1671,-1,7
475,0.9956,3.1518,-1,7
476,0.99867,3.1362,-1,7
477,1.00172,3.1204,-1,7
478,1.00476,3.1043,-1,7
479,1.00779,3.0898,-1,7
480,1.01079,3.0755,-1,7
481,1.01378,3.0606,-1,7
482,1.01676,3.0462,-1,7
483,1.01972,3.0317,-1,7
484,1.02266,3.0156,-1,7
485,1.02559,2.9993,-1,7
486,1.0285,2.9827,-1,7
487,1.03139,2.9664,-1,7
488,1.03426,2.9502,-1,7
489,1.03712,2.9337,-1,7
490,1.03997,2.9172,-1,7
491,1.0428,2.9011,-1,7
492,1.04561,2.8846,-1,7
493,1.0484,2.8684,-1,7
494,1.05118,2.8521,-1,7
495,1.05395,2.8361,-1,7
496,1.0567,2.8203,-1,7
497,1.05943,2.8042,-1,7
498,1.06215,2.7888,-1,7
499,1.06486,2.7736,-1,7
500,1.06755,2.7585,-1,7
501,1.07023,2.7437,-1,7
502,1.0729,2.729,-1,7
503,1.07555,2.7145,-1,7
504,1.07818,2.7003,-1,7
505,1.08082,2.6867,-1,7
506,1.08343,2.6732,-1,7
507,1.08603,2.6603,-1,7
508,1.08862,2.6471,-1,7
509,1.0912,2.6347,-1,7
510,1.09378,2.6228,-1,7
511,1.09633,2.6102,-1,7
512,1.09888,2.5987,-1,7
513,1.10143,2.5878,-1,7
514,1.10396,2.5775,-1,7
515,1.10648,2.566,-1,7
516,1.10899,2.5562,-1,7
517,1.1115,2.5468,-1,7
518,1.114,2.5374,-1,7
519,1.11648,2.528,-1,7
520,1.11897,2.5197,-1,7
521,1.12145,2.5119,-1,7
522,1.12392,2.5038,-1,7
523,1.12639,2.4963,-1,7
524,1.12885,2.4893,-1,7
525,1.13131,2.4832,-1,7
526,1.13376,2.4763,-1,7
527,1.1362,2.4704,-1,7
528,1.13865,2.4653,-1,7
529,1.14109,2.4604,-1,7
530,1.14352,2.4549,-1,7
531,1.14596,2.4506,-1,7
532,1.14839,2.447,-1,7
533,1.15082,2.4431,-1,7
534,1.15324,2.4388,-1,7
535,1.15567,2.4361,-1,7
536,1.15809,2.4338,-1,7
537,1.16051,2.4311,-1,7
538,1.16293,2.4284,-1,7
539,1.16536,2.4271,-1,7
540,1.16778,2.4261,-1,7
541,1.1702,2.4248,-1,7
542,1.17262,2.4236,-1,7
543,1.17505,2.4238,-1,7
544,1.17748,2.4243,-1,7
545,1.17991,2.4242,-1,7
546,1.18233,2.4243,-1,7
547,1.18477,2.4255,-1,7
548,1.1872,2.4269,-1,7
549,1.18963,2.4272,-1,7
550,1.19206,2.4281,-1,7
551,1.1945,2.4301,-1,7
552,1.19694,2.4322,-1,7
553,1.19938,2.4332,-1,7
554,1.20183,2.4352,-1,7
555,1.20428,2.4379,-1,7
556,1.20674,2.4407,-1,7
557,1.20919,2.4428,-1,7
558,1.21166,2.446,-1,7
559,1.21412,2.4497,-1,7
560,1.21659,2.4533,-1,7
561,1.21906,2.4561,-1,7
562,1.22154,2.4599,-1,7
563,1.22403,2.4642,-1,7
564,1.22652,2.4685,-1,7
565,1.229,2.4716,-1,7
566,1.2315,2.4757,-1,7
567,1.234,2.4803,-1,7
568,1.2365,2.4842,-1,7
569,1.239,2.4875,-1,7
570,1.24151,2.4918,-1,7
571,1.24403,2.4965,-1,7
572,1.24654,2.4998,-1,7
573,1.24906,2.5037,-1,7
574,1.25159,2.5078,-1,7
575,1.25412,2.5122,-1,7
576,1.25665,2.5155,-1,7
577,1.25919,2.5194,-1,7
578,1.26173,2.5234,-1,7
579,1.26428,2.5276,-1,7
580,1.26682,2.5309,-1,7
581,1.26938,2.5347,-1,7
582,1.27193,2.539,-1,7
583,1.27449,2.5425,-1,7
584,1.27705,2.5454,-1,7
585,1.27962,2.5491,-1,7
586,1.28219,2.5533,-1,7
587,1.28475,2.5561,-1,7
588,1.28733,2.5592,-1,7
589,1.28991,2.563,-1,7
590,1.29249,2.5666,-1,7
591,1.29507,2.5692,-1,7
592,1.29766,2.5728,-1,7
593,1.30026,2.5765,-1,7
594,1.30285,2.5798,-1,7
595,1.30545,2.5834,-1,7
596,1.30806,2.5871,-1,7
597,1.31067,2.5912,-1,7
598,1.31328,2.5947,-1,7
599,1.3159,2.5987,-1,7
600,1.31852,2.6028,-1,7
601,1.32114,2.6071,-1,7
602,1.32377,2.6108,-1,7
603,1.32641,2.6152,-1,7
604,1.32905,2.6203,-1,7
605,1.3317,2.6245,-1,7
606,1.33435,2.6291,-1,7
607,1.33701,2.6343,-1,7
608,1.33968,2.6399,-1,7
609,1.34234,2.6447,-1,7
610,1.34502,2.6507,-1,7
611,1.34771,2.6567,-1,7
612,1.3504,2.6628,-1,7
613,1.3531,2.6689,-1,7
614,1.35581,2.6753,-1,7
615,1.35852,2.6826,-1,7
616,1.36124,2.6902,-1,7
617,1.3667,2.6979,-1,7
618,1.36944,2.7055,-1,7
619,1.3722,2.7138,-1,7
620,1.37496,2.7218,-1,7
621,1.37773,2.7305,-1,7
622,1.3805,2.7391,-1,7
623,1.38329,2.748,-1,7
624,1.38609,2.7571,-1,7
625,1.38889,2.7659,-1,7
626,1.39171,2.7747,-1,7
627,1.39454,2.7834,-1,7
628,1.39737,2.793,-1,7
629,1.40022,2.8029,-1,7
630,1.40308,2.8125,-1,7
631,1.40595,2.8225,-1,7
632,1.40883,2.8331,-1,7
633,1.41173,2.8438,-1,7
634,1.41464,2.855,-1,7
635,1.41756,2.8663,-1,7
636,1.42049,2.878,-1,7
637,1.42344,2.8905,-1,7
638,1.4264,2.9026,-1,7
639,1.42937,2.9151,-1,7
640,1.43236,2.9283,-1,7
641,1.43537,2.9415,-1,7
642,1.43839,2.9556,-1,7
643,1.44142,2.9696,-1,7
644,1.44448,2.9837,-1,7
645,1.44754,2.9986,-1,7
646,1.45063,3.0139,-1,7
647,1.45373,3.029,-1,7
648,1.45685,3.0448,-1,7
649,1.45998,3.0606,-1,7
650,1.46313,3.0772,-1,7
651,1.46631,3.094,-1,7
652,1.4695,3.1107,-1,7
653,1.4727,3.1279,-1,7
654,1.47593,3.1455,-1,7
655,1.47917,3.1631,-1,7
656,1.48243,3.1804,-1,7
657,1.48571,3.1985,-1,7
658,1.48901,3.2168,-1,7
659,1.49233,3.2353,-1,7
660,1.49567,3.2538,-1,7
661,1.49903,3.2728,-1,7
662,1.50241,3.2916,-1,7
663,1.50581,3.3109,-1,7
664,1.50923,3.3302,-1,7
665,1.51267,3.3499,-1,7
666,1.51613,3.37,-1,7
667,1.51962,3.3901,-1,7
668,1.52312,3.4104,-1,7
669,1.52664,3.4311,-1,7
670,1.53018,3.4511,-1,7
671,1.53375,3.4713,-1,7
672,1.53733,3.4919,-1,7
673,1.54093,3.5122,-1,7
674,1.54456,3.5325,-1,7
675,1.5482,3.5527,-1,7
676,1.55186,3.5728,-1,7
677,1.55555,3.5929,-1,7
678,1.55924,3.6126,-1,7
679,1.5667,3.6337,-1,7
680,1.57045,3.6546,-1,7
681,1.57421,3.6752,-1,7
682,1.578,3.6952,-1,7
683,1.5818,3.7153,-1,7
684,1.58562,3.735,-1,7
685,1.58946,3.7544,-1,7
686,1.59331,3.7731,-1,7
687,1.59717,3.791,-1,7
688,1.60105,3.8086,-1,7
689,1.60493,3.8239,-1,7
690,1.60884,3.8393,-1,7
691,1.61276,3.8542,-1,7
692,1.61668,3.8685,-1,7
693,1.62062,3.8819,-1,7
694,1.62457,3.8944,-1,7
695,1.62852,3.9065,-1,7
696,1.63249,3.9183,-1,7
697,1.63647,3.9299,-1,7
698,1.64046,3.941,-1,7
699,1.64444,3.9509,-1,7
700,1.64844,3.9606,-1,7
701,1.65245,3.9694,-1,7
702,1.65646,3.9781,-1,7
703,1.66048,3.9858,-1,7
704,1.6645,3.9937,-1,7
705,1.66853,4.0008,-1,7
706,1.67256,4.0073,-1,7
707,1.6766,4.0129,-1,7
708,1.68063,4.0177,-1,7
709,1.68467,4.0228,-1,7
710,1.68871,4.0267,-1,7
711,1.69275,4.0301,-1,7
712,1.6968,4.0331,-1,7
713,1.70083,4.0354,-1,7
714,1.70487,4.0369,-1,7
715,1.70891,4.0378,-1,7
716,1.71294,4.0377,-1,7
717,1.71697,4.0371,-1,7
718,1.72099,4.0363,-1,7
719,1.72502,4.0347,-1,7
720,1.72903,4.0322,-1,7
721,1.73305,4.0295,-1,7
722,1.73705,4.0259,-1,7
723,1.74105,4.0219,-1,7
724,1.74504,4.0171,-1,7
725,1.74903,4.0118,-1,7
726,1.753,4.0065,-1,7
727,1.75697,4.0006,-1,7
728,1.76093,3.9938,-1,7
729,1.76488,3.9863,-1,7
730,1.76882,3.9776,-1,7
731,1.77275,3.9681,-1,7
732,1.77667,3.9591,-1,7
733,1.78058,3.9503,-1,7
734,1.78447,3.9408,-1,7
735,1.78836,3.9309,-1,7
736,1.79223,3.9203,-1,7
737,1.79609,3.9094,-1,7
738,1.79994,3.8985,-1,7
739,1.80378,3.8874,-1,7
740,1.8076,3.877,-1,7
741,1.81141,3.8664,-1,7
742,1.81521,3.8544,-1,7
743,1.81899,3.8416,-1,7
744,1.82276,3.8291,-1,7
745,1.82652,3.8166,-1,7
746,1.83027,3.8037,-1,7
747,1.834,3.7908,-1,7
748,1.83772,3.7779,-1,7
749,1.84143,3.7651,-1,7
750,1.84512,3.752,-1,7
751,1.8488,3.7388,-1,7
752,1.85247,3.726,-1,7
753,1.85613,3.7133,-1,7
754,1.85977,3.7006,-1,7
755,1.86341,3.6881,-1,7
756,1.86703,3.6763,-1,7
757,1.87064,3.6643,-1,7
758,1.87425,3.6526,-1,7
759,1.87783,3.6406,-1,7
760,1.88141,3.6292,-1,7
761,1.88498,3.6177,-1,7
762,1.88854,3.6064,-1,7
763,1.89208,3.5957,-1,7
764,1.89562,3.5853,-1,7
765,1.89915,3.5744,-1,7
766,1.90267,3.5636,-1,7
767,1.90617,3.553,-1,7
768,1.90967,3.5423,-1,7
769,1.91316,3.5322,-1,7
770,1.91664,3.5223,-1,7
771,1.92011,3.5131,-1,7
772,1.92357,3.5036,-1,7
773,1.92703,3.4943,-1,7
774,1.93047,3.4849,-1,7
775,1.93391,3.4762,-1,7
776,1.93734,3.4675,-1,7
777,1.94077,3.4593,-1,7
778,1.94418,3.4514,-1,7
779,1.94759,3.4436,-1,7
780,1.951,3.4361,-1,7
781,1.95439,3.4283,-1,7
782,1.95778,3.421,-1,7
783,1.96117,3.4138,-1,7
784,1.96454,3.4067,-1,7
785,1.96791,3.4001,-1,7
786,1.97128,3.3933,-1,7
787,1.97464,3.3869,-1,7
788,1.97799,3.3805,-1,7
789,1.98134,3.3744,-1,7
790,1.98468,3.3682,-1,7
791,1.98802,3.3624,-1,7
792,1.99135,3.3568,-1,7
793,1.99468,3.3514,-1,7
794,1.998,3.3462,-1,7
795,2.00132,3.3406,-1,7
796,2.00464,3.3363,-1,7
797,2.00796,3.3319,-1,7
798,2.01126,3.3274,-1,7
799,2.01457,3.3234,-1,7
800,2.01788,3.3198,-1,7
801,2.02118,3.3162,-1,7
802,2.02448,3.313,-1,7
803,2.02778,3.3099,-1,7
804,2.03108,3.3073,-1,7
805,2.03437,3.3052,-1,7
806,2.03767,3.3027,-1,7
807,2.04096,3.3002,-1,7
808,2.04425,3.2988,-1,7
809,2.04754,3.297,-1,7
810,2.05084,3.2954,-1,7
811,2.05412,3.294,-1,7
812,2.05741,3.2926,-1,7
813,2.0607,3.2919,-1,7
814,2.06399,3.2909,-1,7
815,2.06727,3.2897,-1,7
816,2.07055,3.2885,-1,7
817,2.07384,3.2878,-1,7
818,2.07712,3.2866,-1,7
819,2.0804,3.2854,-1,7
820,2.08367,3.2839,-1,7
821,2.08695,3.2826,-1,7
822,2.09023,3.2817,-1,7
823,2.0935,3.2799,-1,7
824,2.09676,3.278,-1,7
825,2.10329,3.276,-1,7
826,2.10329,3.2742,-1,7
827,2.10655,3.2718,-1,7
828,2.10981,3.2693,-1,7
829,2.11307,3.2664,-1,7
830,2.11632,3.2638,-1,7
831,2.12281,3.2609,-1,7
832,2.12605,3.2571,-1,7
833,2.12929,3.2535,-1,7
834,2.13252,3.2502,-1,7
835,2.13575,3.2466,-1,7
836,2.13897,3.2426,-1,7
837,2.1422,3.2387,-1,7
838,2.14542,3.2352,-1,7
839,2.14863,3.2316,-1,7
