cnt,pos,speed,Dir,Force,
1,2.91076,1.012,-1,4
2,2.91278,1.009,-1,4
3,2.91377,0.990,-1,4
4,2.91476,0.990,-1,4
5,2.91577,1.009,-1,4
6,2.91680,1.027,-1,4
7,2.91782,1.023,-1,4
8,2.91883,1.010,-1,4
9,2.91984,1.011,-1,4
10,2.92087,1.033,-1,4
11,2.92192,1.045,-1,4
12,2.92296,1.037,-1,4
13,2.92398,1.026,-1,4
14,2.92501,1.030,-1,4
15,2.92606,1.048,-1,4
16,2.92712,1.057,-1,4
17,2.92817,1.053,-1,4
18,2.92921,1.045,-1,4
19,2.93027,1.052,-1,4
20,2.93133,1.060,-1,4
21,2.93239,1.067,-1,4
22,2.93346,1.063,-1,4
23,2.93452,1.065,-1,4
24,2.93559,1.069,-1,4
25,2.93666,1.072,-1,4
26,2.93774,1.076,-1,4
27,2.93881,1.077,-1,4
28,2.93989,1.078,-1,4
29,2.94097,1.079,-1,4
30,2.94205,1.078,-1,4
31,2.94313,1.083,-1,4
32,2.94423,1.093,-1,4
33,2.94532,1.092,-1,4
34,2.94640,1.084,-1,4
35,2.94748,1.080,-1,4
36,2.94857,1.088,-1,4
37,2.94967,1.099,-1,4
38,2.95076,1.096,-1,4
39,2.95185,1.087,-1,4
40,2.95294,1.089,-1,4
41,2.95404,1.098,-1,4
42,2.95514,1.100,-1,4
43,2.95623,1.090,-1,4
44,2.95731,1.085,-1,4
45,2.95951,1.104,-1,4
46,2.96061,1.100,-1,4
47,2.96170,1.089,-1,4
48,2.96279,1.089,-1,4
49,2.96388,1.095,-1,4
50,2.96498,1.097,-1,4
51,2.96607,1.091,-1,4
52,2.96716,1.090,-1,4
53,2.96826,1.095,-1,4
54,2.96935,1.095,-1,4
55,2.97044,1.084,-1,4
56,2.97152,1.088,-1,4
57,2.97261,1.088,-1,4
58,2.97370,1.091,-1,4
59,2.97478,1.084,-1,4
60,2.97586,1.080,-1,4
61,2.97695,1.084,-1,4
62,2.97803,1.085,-1,4
63,2.97911,1.078,-1,4
64,2.98125,1.071,-1,4
65,2.98233,1.078,-1,4
66,2.98341,1.077,-1,4
67,2.98447,1.065,-1,4
68,2.98553,1.059,-1,4
69,2.98660,1.067,-1,4
70,2.98767,1.067,-1,4
71,2.98872,1.058,-1,4
72,2.98977,1.046,-1,4
73,2.99082,1.052,-1,4
74,2.99188,1.058,-1,4
75,2.99293,1.055,-1,4
76,2.99397,1.040,-1,4
77,2.99501,1.033,-1,4
78,2.99605,1.042,-1,4
79,2.99709,1.045,-1,4
80,2.99813,1.034,-1,4
81,2.99915,1.023,-1,4
82,3.00018,1.026,-1,4
83,3.00121,1.036,-1,4
84,3.00224,1.029,-1,4
85,3.00325,1.011,-1,4
86,3.00426,1.007,-1,4
87,3.00528,1.016,-1,4
88,3.00630,1.021,-1,4
89,3.00731,1.009,-1,4
90,3.00830,0.995,-1,4
91,3.00930,0.995,-1,4
92,3.01030,1.005,-1,4
93,3.01130,1.002,-1,4
94,3.01229,0.984,-1,4
95,3.01326,0.976,-1,4
96,3.01425,0.983,-1,4
97,3.01524,0.996,-1,4
98,3.01623,0.985,-1,4
99,3.01719,0.966,-1,4
100,3.01815,0.958,-1,4
101,3.01912,0.970,-1,4
102,3.02010,0.977,-1,4
103,3.02106,0.965,-1,4
104,3.02201,0.946,-1,4
105,3.02296,0.948,-1,4
106,3.02392,0.964,-1,4
107,3.02582,0.942,-1,4
108,3.02674,0.921,-1,4
109,3.02767,0.924,-1,4
110,3.02861,0.939,-1,4
111,3.02955,0.943,-1,4
112,3.03047,0.922,-1,4
113,3.03138,0.905,-1,4
114,3.03229,0.912,-1,4
115,3.03322,0.925,-1,4
116,3.03414,0.922,-1,4
117,3.03504,0.901,-1,4
118,3.03592,0.886,-1,4
119,3.03682,0.895,-1,4
120,3.03773,0.913,-1,4
121,3.03864,0.910,-1,4
122,3.03953,0.887,-1,4
123,3.04040,0.869,-1,4
124,3.04128,0.878,-1,4
125,3.04217,0.894,-1,4
126,3.04306,0.891,-1,4
127,3.04393,0.870,-1,4
128,3.04478,0.854,-1,4
129,3.04565,0.862,-1,4
130,3.04652,0.878,-1,4
131,3.04740,0.877,-1,4
132,3.04826,0.858,-1,4
133,3.04910,0.839,-1,4
134,3.04994,0.844,-1,4
135,3.05080,0.859,-1,4
136,3.05166,0.861,-1,4
137,3.05334,0.828,-1,4
138,3.05334,0.830,-1,4
139,3.05417,0.830,-1,4
140,3.05501,0.843,-1,4
141,3.05585,0.845,-1,4
142,3.05669,0.832,-1,4
143,3.05750,0.817,-1,4
144,3.05832,0.816,-1,4
145,3.05914,0.824,-1,4
146,3.05997,0.817,-1,4
147,3.06159,0.808,-1,4
148,3.06240,0.806,-1,4
149,3.06321,0.812,-1,4
150,3.06402,0.811,-1,4
151,3.06482,0.802,-1,4
152,3.06562,0.795,-1,4
153,3.06642,0.796,-1,4
154,3.06721,0.799,-1,4
155,3.06801,0.794,-1,4
156,3.06880,0.788,-1,4
157,3.06958,0.785,-1,4
158,3.07037,0.790,-1,4
159,3.07116,0.789,-1,4
160,3.07194,0.780,-1,4
161,3.07271,0.771,-1,4
162,3.07348,0.769,-1,4
163,3.07425,0.774,-1,4
164,3.07503,0.778,-1,4
165,3.07580,0.771,-1,4
166,3.07657,0.763,-1,4
167,3.07733,0.762,-1,4
168,3.07887,0.771,-1,4
169,3.07887,0.768,-1,4
170,3.07964,0.759,-1,4
171,3.08039,0.759,-1,4
172,3.08115,0.755,-1,4
173,3.08191,0.760,-1,4
174,3.08267,0.758,-1,4
175,3.08419,0.754,-1,4
176,3.08494,0.755,-1,4
177,3.08570,0.759,-1,4
178,3.08646,0.758,-1,4
179,3.08721,0.751,-1,4
180,3.08796,0.747,-1,4
181,3.08871,0.752,-1,4
182,3.08946,0.755,-1,4
183,3.09022,0.754,-1,4
184,3.09097,0.748,-1,4
185,3.09171,0.743,-1,4
186,3.09245,0.746,-1,4
187,3.09321,0.751,-1,4
188,3.09396,0.754,-1,4
189,3.09471,0.748,-1,4
190,3.09545,0.742,-1,4
191,3.09619,0.743,-1,4
192,3.09694,0.749,-1,4
193,3.09769,0.749,-1,4
194,3.09844,0.747,-1,4
195,3.09918,0.746,-1,4
196,3.09993,0.744,-1,4
197,3.10067,0.746,-1,4
198,3.10143,0.748,-1,4
199,3.10292,0.747,-1,4
200,3.10367,0.749,-1,4
201,3.10442,0.750,-1,4
202,3.10517,0.750,-1,4
203,3.10592,0.747,-1,4
204,3.10667,0.749,-1,4
205,3.10742,0.752,-1,4
206,3.10818,0.757,-1,4
207,3.10893,0.758,-1,4
208,3.10969,0.755,-1,4
209,3.11044,0.749,-1,4
210,3.11119,0.751,-1,4
211,3.11195,0.757,-1,4
212,3.11271,0.761,-1,4
213,3.11347,0.758,-1,4
214,3.11422,0.751,-1,4
215,3.11497,0.751,-1,4
216,3.11573,0.758,-1,4
217,3.11649,0.762,-1,4
218,3.11725,0.763,-1,4
219,3.11801,0.762,-1,4
220,3.11877,0.758,-1,4
221,3.11953,0.758,-1,4
222,3.12029,0.766,-1,4
223,3.12106,0.766,-1,4
224,3.12182,0.767,-1,4
225,3.12259,0.765,-1,4
226,3.12335,0.769,-1,4
227,3.12490,0.771,-1,4
228,3.12567,0.772,-1,4
229,3.12644,0.772,-1,4
230,3.12721,0.775,-1,4
231,3.12799,0.777,-1,4
232,3.12877,0.778,-1,4
233,3.12954,0.775,-1,4
234,3.13032,0.776,-1,4
235,3.13110,0.783,-1,4
236,3.13189,0.789,-1,4
237,3.13268,0.788,-1,4
238,3.13346,0.784,-1,4
239,3.13424,0.781,-1,4
240,3.13503,0.784,-1,4
241,3.13582,0.794,-1,4
242,3.13662,0.799,-1,4
243,3.13741,0.793,-1,4
244,3.13820,0.788,-1,4
245,3.13899,0.789,-1,4
246,3.13979,0.797,-1,4
247,3.14059,0.804,-1,4
248,3.14140,0.802,-1,4
249,3.14219,0.797,-1,4
250,3.14299,0.795,-1,4
251,3.14379,0.799,-1,4
252,3.14459,0.806,-1,4
253,3.14540,0.808,-1,4
254,3.14621,0.807,-1,4
255,3.14701,0.801,-1,4
256,3.14781,0.803,-1,4
257,3.14862,0.807,-1,4
258,3.14943,0.810,-1,4
259,3.15024,0.809,-1,4
260,3.15105,0.809,-1,4
261,3.15186,0.809,-1,4
262,3.15348,0.809,-1,4
263,3.15429,0.810,-1,4
264,3.15510,0.816,-1,4
265,3.15592,0.817,-1,4
266,3.15673,0.816,-1,4
267,3.15755,0.813,-1,4
268,3.15836,0.813,-1,4
269,3.15918,0.818,-1,4
270,3.16000,0.825,-1,4
271,3.16083,0.823,-1,4
272,3.16164,0.818,-1,4
273,3.16246,0.814,-1,4
274,3.16328,0.820,-1,4
275,3.16411,0.827,-1,4
276,3.16493,0.829,-1,4
277,3.16576,0.824,-1,4
278,3.16658,0.819,-1,4
279,3.16740,0.820,-1,4
280,3.16822,0.826,-1,4
281,3.16905,0.830,-1,4
282,3.16988,0.828,-1,4
283,3.17070,0.822,-1,4
284,3.17153,0.822,-1,4
285,3.17235,0.825,-1,4
286,3.17318,0.829,-1,4
287,3.17401,0.829,-1,4
288,3.17484,0.827,-1,4
289,3.17566,0.823,-1,4
290,3.17648,0.822,-1,4
291,3.17731,0.824,-1,4
292,3.17813,0.828,-1,4
293,3.17896,0.830,-1,4
294,3.17979,0.828,-1,4
295,3.18062,0.824,-1,4
296,3.18144,0.822,-1,4
297,3.18226,0.823,-1,4
298,3.18309,0.828,-1,4
299,3.18392,0.829,-1,4
300,3.18474,0.824,-1,4
301,3.18556,0.819,-1,4
302,3.18638,0.824,-1,4
303,3.18803,0.827,-1,4
304,3.18886,0.824,-1,4
305,3.18968,0.820,-1,4
306,3.19049,0.818,-1,4
307,3.19131,0.819,-1,4
308,3.19214,0.823,-1,4
309,3.19296,0.823,-1,4
310,3.19378,0.820,-1,4
311,3.19460,0.819,-1,4
312,3.19542,0.820,-1,4
313,3.19624,0.821,-1,4
314,3.19706,0.821,-1,4
315,3.19788,0.821,-1,4
316,3.19870,0.818,-1,4
317,3.19951,0.816,-1,4
318,3.20033,0.815,-1,4
319,3.20114,0.817,-1,4
320,3.20196,0.819,-1,4
321,3.20278,0.819,-1,4
322,3.20360,0.813,-1,4
323,3.20523,0.813,-1,4
324,3.20604,0.815,-1,4
325,3.20686,0.815,-1,4
326,3.20767,0.812,-1,4
327,3.20848,0.809,-1,4
328,3.20929,0.808,-1,4
329,3.21009,0.809,-1,4
330,3.21090,0.811,-1,4
331,3.21172,0.812,-1,4
332,3.21253,0.811,-1,4
333,3.21333,0.805,-1,4
334,3.21414,0.805,-1,4
335,3.21494,0.807,-1,4
336,3.21575,0.807,-1,4
337,3.21656,0.806,-1,4
338,3.21736,0.804,-1,4
339,3.21816,0.801,-1,4
340,3.21897,0.804,-1,4
341,3.21977,0.804,-1,4
342,3.22058,0.802,-1,4
343,3.22218,0.801,-1,4
344,3.22298,0.800,-1,4
345,3.22378,0.799,-1,4
346,3.22457,0.796,-1,4
347,3.22537,0.799,-1,4
348,3.22618,0.803,-1,4
349,3.22698,0.801,-1,4
350,3.22777,0.795,-1,4
351,3.22857,0.794,-1,4
352,3.22936,0.795,-1,4
353,3.23016,0.799,-1,4
354,3.23096,0.798,-1,4
355,3.23175,0.792,-1,4
356,3.23254,0.789,-1,4
357,3.23333,0.791,-1,4
358,3.23412,0.794,-1,4
359,3.23492,0.795,-1,4
360,3.23571,0.790,-1,4
361,3.23649,0.788,-1,4
362,3.23728,0.788,-1,4
363,3.23807,0.786,-1,4
364,3.23885,0.785,-1,4
365,3.23964,0.784,-1,4
366,3.24042,0.784,-1,4
367,3.24120,0.785,-1,4
368,3.24199,0.785,-1,4
369,3.24277,0.784,-1,4
370,3.24356,0.782,-1,4
371,3.24434,0.784,-1,4
372,3.24512,0.780,-1,4
373,3.24668,0.781,-1,4
374,3.24746,0.780,-1,4
375,3.24825,0.781,-1,4
376,3.24903,0.784,-1,4
377,3.24981,0.785,-1,4
378,3.25059,0.781,-1,4
379,3.25138,0.781,-1,4
380,3.25216,0.781,-1,4
381,3.25294,0.780,-1,4
382,3.25372,0.781,-1,4
383,3.25450,0.781,-1,4
384,3.25528,0.779,-1,4
385,3.25606,0.778,-1,4
386,3.25683,0.778,-1,4
387,3.25761,0.779,-1,4
388,3.25840,0.783,-1,4
389,3.25918,0.781,-1,4
390,3.25996,0.779,-1,4
391,3.26073,0.777,-1,4
392,3.26151,0.778,-1,4
393,3.26229,0.777,-1,4
394,3.26306,0.777,-1,4
395,3.26461,0.774,-1,4
396,3.26461,0.774,-1,4
397,3.26539,0.775,-1,4
398,3.26616,0.775,-1,4
399,3.26694,0.775,-1,4
400,3.26771,0.775,-1,4
401,3.26849,0.777,-1,4
402,3.27004,0.774,-1,4
403,3.27081,0.773,-1,4
404,3.27159,0.772,-1,4
405,3.27236,0.778,-1,4
406,3.27314,0.782,-1,4
407,3.27392,0.778,-1,4
408,3.27470,0.777,-1,4
409,3.27548,0.778,-1,4
410,3.27626,0.780,-1,4
411,3.27704,0.783,-1,4
412,3.27782,0.782,-1,4
413,3.27860,0.779,-1,4
414,3.27938,0.779,-1,4
415,3.28016,0.779,-1,4
416,3.28094,0.783,-1,4
417,3.28172,0.783,-1,4
418,3.28251,0.787,-1,4
419,3.28330,0.785,-1,4
420,3.28408,0.783,-1,4
421,3.28486,0.782,-1,4
422,3.28565,0.784,-1,4
423,3.28643,0.787,-1,4
424,3.28722,0.787,-1,4
425,3.28879,0.785,-1,4
426,3.28958,0.786,-1,4
427,3.29037,0.788,-1,4
428,3.29116,0.792,-1,4
429,3.29195,0.791,-1,4
430,3.29274,0.788,-1,4
431,3.29352,0.788,-1,4
432,3.29431,0.789,-1,4
433,3.29510,0.791,-1,4
434,3.29590,0.792,-1,4
435,3.29669,0.796,-1,4
436,3.29749,0.796,-1,4
437,3.29828,0.795,-1,4
438,3.29908,0.794,-1,4
439,3.29987,0.794,-1,4
440,3.30067,0.797,-1,4
441,3.30147,0.801,-1,4
442,3.30227,0.800,-1,4
443,3.30307,0.797,-1,4
444,3.30386,0.798,-1,4
445,3.30467,0.803,-1,4
446,3.30548,0.808,-1,4
447,3.30628,0.807,-1,4
448,3.30709,0.804,-1,4
449,3.30789,0.802,-1,4
450,3.30869,0.805,-1,4
451,3.30950,0.808,-1,4
452,3.31031,0.810,-1,4
453,3.31112,0.809,-1,4
454,3.31193,0.811,-1,4
455,3.31274,0.811,-1,4
456,3.31356,0.813,-1,4
457,3.31437,0.814,-1,4
458,3.31519,0.816,-1,4
459,3.31600,0.817,-1,4
460,3.31682,0.817,-1,4
461,3.31764,0.815,-1,4
462,3.31845,0.816,-1,4
463,3.31927,0.819,-1,4
464,3.32010,0.826,-1,4
465,3.32092,0.826,-1,4
466,3.32174,0.822,-1,4
467,3.32256,0.819,-1,4
468,3.32339,0.825,-1,4
469,3.32422,0.830,-1,4
470,3.32505,0.831,-1,4
471,3.32588,0.827,-1,4
472,3.32670,0.827,-1,4
473,3.32754,0.831,-1,4
474,3.32837,0.837,-1,4
475,3.32921,0.837,-1,4
476,3.33004,0.835,-1,4
477,3.33088,0.836,-1,4
478,3.33172,0.840,-1,4
479,3.33256,0.839,-1,4
480,3.33340,0.841,-1,4
481,3.33424,0.841,-1,4
482,3.33509,0.847,-1,4
483,3.33594,0.847,-1,4
484,3.33678,0.847,-1,4
485,3.33763,0.848,-1,4
486,3.33848,0.852,-1,4
487,3.33934,0.856,-1,4
488,3.34019,0.854,-1,4
489,3.34104,0.850,-1,4
490,3.34189,0.850,-1,4
491,3.34275,0.856,-1,4
492,3.34361,0.864,-1,4
493,3.34447,0.862,-1,4
494,3.34533,0.857,-1,4
495,3.34619,0.857,-1,4
496,3.34705,0.861,-1,4
497,3.34792,0.868,-1,4
498,3.34879,0.867,-1,4
499,3.34965,0.862,-1,4
500,3.35051,0.861,-1,4
501,3.35137,0.865,-1,4
502,3.35225,0.873,-1,4
503,3.35312,0.875,-1,4
504,3.35399,0.870,-1,4
505,3.35486,0.869,-1,4
506,3.35573,0.871,-1,4
507,3.35661,0.874,-1,4
508,3.35748,0.877,-1,4
509,3.35836,0.877,-1,4
510,3.35924,0.876,-1,4
511,3.36011,0.878,-1,4
512,3.36099,0.879,-1,4
513,3.36187,0.881,-1,4
514,3.36276,0.885,-1,4
515,3.36364,0.883,-1,4
516,3.36452,0.882,-1,4
517,3.36540,0.880,-1,4
518,3.36629,0.882,-1,4
519,3.36807,0.893,-1,4
520,3.36807,0.889,-1,4
521,3.36896,0.889,-1,4
522,3.36984,0.884,-1,4
523,3.37073,0.885,-1,4
524,3.37162,0.894,-1,4
525,3.37252,0.898,-1,4
526,3.37341,0.892,-1,4
527,3.37429,0.885,-1,4
528,3.37518,0.887,-1,4
529,3.37698,0.903,-1,4
530,3.37788,0.898,-1,4
531,3.37877,0.890,-1,4
532,3.37966,0.888,-1,4
533,3.38055,0.897,-1,4
534,3.38146,0.904,-1,4
535,3.38236,0.904,-1,4
536,3.38326,0.895,-1,4
537,3.38415,0.891,-1,4
538,3.38505,0.898,-1,4
539,3.38596,0.911,-1,4
540,3.38686,0.909,-1,4
541,3.38776,0.898,-1,4
542,3.38866,0.894,-1,4
543,3.38956,0.903,-1,4
544,3.39047,0.913,-1,4
545,3.39138,0.912,-1,4
546,3.39229,0.904,-1,4
547,3.39319,0.900,-1,4
548,3.39409,0.904,-1,4
549,3.39592,0.918,-1,4
550,3.39683,0.910,-1,4
551,3.39773,0.902,-1,4
552,3.39773,0.905,-1,4
553,3.39864,0.905,-1,4
554,3.39955,0.914,-1,4
555,3.40047,0.920,-1,4
556,3.40139,0.915,-1,4
557,3.40230,0.907,-1,4
558,3.40320,0.904,-1,4
559,3.40411,0.911,-1,4
560,3.40503,0.922,-1,4
561,3.40596,0.922,-1,4
562,3.40687,0.910,-1,4
563,3.40777,0.908,-1,4
564,3.40869,0.915,-1,4
565,3.40961,0.925,-1,4
566,3.41054,0.927,-1,4
567,3.41146,0.919,-1,4
568,3.41237,0.914,-1,4
569,3.41421,0.930,-1,4
570,3.41515,0.935,-1,4
571,3.41608,0.930,-1,4
572,3.41700,0.919,-1,4
573,3.41791,0.914,-1,4
574,3.41884,0.930,-1,4
575,3.41978,0.941,-1,4
576,3.42072,0.939,-1,4
577,3.42165,0.926,-1,4
578,3.42257,0.919,-1,4
579,3.42350,0.932,-1,4
580,3.42445,0.949,-1,4
581,3.42540,0.937,-1,4
582,3.42634,0.937,-1,4
583,3.42726,0.924,-1,4
584,3.42819,0.932,-1,4
585,3.42915,0.952,-1,4
586,3.43010,0.959,-1,4
587,3.43105,0.950,-1,4
588,3.43199,0.933,-1,4
589,3.43293,0.940,-1,4
590,3.43389,0.960,-1,4
591,3.43486,0.970,-1,4
592,3.43582,0.960,-1,4
593,3.43676,0.943,-1,4
594,3.43771,0.945,-1,4
595,3.43867,0.965,-1,4
596,3.43965,0.982,-1,4
597,3.44063,0.978,-1,4
598,3.44159,0.961,-1,4
599,3.44255,0.956,-1,4
600,3.44352,0.971,-1,4
601,3.44451,0.989,-1,4
602,3.44550,0.976,-1,4
603,3.44744,0.973,-1,4
604,3.44744,0.987,-1,4
605,3.44943,0.999,-1,4
606,3.44943,0.999,-1,4
607,3.45043,0.989,-1,4
608,3.45142,0.989,-1,4
609,3.45241,0.988,-1,4
610,3.45341,1.011,-1,4
611,3.45442,1.012,-1,4
612,3.45643,1.003,-1,4
613,3.45744,1.004,-1,4
614,3.45845,1.013,-1,4
615,3.45947,1.021,-1,4
616,3.46049,1.019,-1,4
617,3.46151,1.020,-1,4
618,3.46254,1.024,-1,4
619,3.46357,1.029,-1,4
620,3.46460,1.030,-1,4
621,3.46563,1.031,-1,4
622,3.46666,1.033,-1,4
623,3.46770,1.041,-1,4
624,3.46874,1.042,-1,4
625,3.46978,1.042,-1,4
626,3.47083,1.052,-1,4
627,3.47188,1.052,-1,4
628,3.47293,1.056,-1,4
629,3.47399,1.052,-1,4
630,3.47609,1.055,-1,4
631,3.47716,1.065,-1,4
632,3.47823,1.068,-1,4
633,3.47929,1.064,-1,4
634,3.48035,1.062,-1,4
635,3.48142,1.071,-1,4
636,3.48250,1.078,-1,4
637,3.48358,1.076,-1,4
638,3.48465,1.072,-1,4
639,3.48572,1.073,-1,4
640,3.48680,1.082,-1,4
641,3.48789,1.088,-1,4
642,3.48897,1.083,-1,4
643,3.49006,1.082,-1,4
644,3.49114,1.085,-1,4
645,3.49223,1.088,-1,4
646,3.49332,1.087,-1,4
647,3.49441,1.089,-1,4
648,3.49550,1.095,-1,4
649,3.49660,1.100,-1,4
650,3.49770,1.096,-1,4
651,3.49879,1.090,-1,4
652,3.49988,1.100,-1,4
653,3.50208,1.104,-1,4
654,3.50318,1.100,-1,4
655,3.50428,1.098,-1,4
656,3.50538,1.100,-1,4
657,3.50648,1.101,-1,4
658,3.50758,1.097,-1,4
659,3.50868,1.099,-1,4
660,3.50978,1.106,-1,4
661,3.51089,1.106,-1,4
662,3.51199,1.100,-1,4
663,3.51308,1.094,-1,4
664,3.51418,1.096,-1,4
665,3.51528,1.101,-1,4
666,3.51638,1.100,-1,4
667,3.51748,1.095,-1,4
668,3.51857,1.095,-1,4
669,3.51967,1.099,-1,4
670,3.52076,1.095,-1,4
671,3.52185,1.087,-1,4
672,3.52294,1.085,-1,4
673,3.52403,1.091,-1,4
674,3.52512,1.095,-1,4
675,3.52621,1.087,-1,4
676,3.52729,1.081,-1,4
677,3.52837,1.082,-1,4
678,3.52946,1.085,-1,4
679,3.53054,1.079,-1,4
680,3.53161,1.072,-1,4
681,3.53269,1.077,-1,4
682,3.53377,1.079,-1,4
683,3.53484,1.075,-1,4
684,3.53591,1.064,-1,4
685,3.53803,1.063,-1,4
686,3.53910,1.066,-1,4
687,3.54015,1.059,-1,4
688,3.54121,1.051,-1,4
689,3.54226,1.053,-1,4
690,3.54332,1.056,-1,4
691,3.54436,1.047,-1,4
692,3.54540,1.035,-1,4
693,3.54643,1.034,-1,4
694,3.54747,1.042,-1,4
695,3.54852,1.041,-1,4
696,3.54955,1.032,-1,4
697,3.55057,1.021,-1,4
698,3.55159,1.024,-1,4
699,3.55262,1.028,-1,4
700,3.55364,1.019,-1,4
701,3.55465,1.006,-1,4
702,3.55565,1.008,-1,4
703,3.55667,1.017,-1,4
704,3.55769,1.016,-1,4
705,3.55869,1.001,-1,4
706,3.55967,0.987,-1,4
707,3.56066,0.990,-1,4
708,3.56167,1.002,-1,4
709,3.56266,0.994,-1,4
710,3.56364,0.980,-1,4
711,3.56461,0.972,-1,4
712,3.56559,0.982,-1,4
713,3.56658,0.987,-1,4
714,3.56755,0.974,-1,4
715,3.56946,0.953,-1,4
716,3.57043,0.966,-1,4
717,3.57140,0.969,-1,4
718,3.57235,0.955,-1,4
719,3.57329,0.939,-1,4
720,3.57423,0.939,-1,4
721,3.57519,0.953,-1,4
722,3.57614,0.950,-1,4
723,3.57707,0.934,-1,4
724,3.57799,0.917,-1,4
725,3.57891,0.923,-1,4
726,3.57985,0.941,-1,4
727,3.58079,0.937,-1,4
728,3.58171,0.916,-1,4
729,3.58261,0.902,-1,4
730,3.58352,0.909,-1,4
731,3.58444,0.923,-1,4
732,3.58536,0.920,-1,4
733,3.58626,0.900,-1,4
734,3.58715,0.887,-1,4
735,3.58804,0.897,-1,4
736,3.58896,0.911,-1,4
737,3.58986,0.908,-1,4
738,3.59075,0.887,-1,4
739,3.59162,0.872,-1,4
740,3.59250,0.880,-1,4
741,3.59340,0.895,-1,4
742,3.59429,0.893,-1,4
743,3.59517,0.879,-1,4
744,3.59603,0.863,-1,4
745,3.59690,0.879,-1,4
746,3.59866,0.884,-1,4
747,3.59953,0.867,-1,4
748,3.60038,0.850,-1,4
749,3.60123,0.850,-1,4
750,3.60209,0.863,-1,4
751,3.60297,0.874,-1,4
752,3.60383,0.863,-1,4
753,3.60468,0.846,-1,4
754,3.60552,0.840,-1,4
755,3.60636,0.847,-1,4
756,3.60722,0.859,-1,4
757,3.60808,0.855,-1,4
758,3.60892,0.839,-1,4
759,3.60975,0.831,-1,4
760,3.61059,0.840,-1,4
761,3.61144,0.851,-1,4
762,3.61229,0.849,-1,4
763,3.61313,0.837,-1,4
764,3.61395,0.829,-1,4
765,3.61478,0.830,-1,4
766,3.61562,0.838,-1,4
767,3.61730,0.834,-1,4
768,3.61812,0.827,-1,4
769,3.61895,0.827,-1,4
770,3.61978,0.833,-1,4
771,3.62062,0.834,-1,4
772,3.62145,0.830,-1,4
773,3.62228,0.826,-1,4
774,3.62310,0.824,-1,4
775,3.62392,0.826,-1,4
776,3.62475,0.826,-1,4
777,3.62558,0.825,-1,4
778,3.62640,0.825,-1,4
779,3.62723,0.826,-1,4
780,3.62805,0.825,-1,4
781,3.62887,0.822,-1,4
782,3.62969,0.818,-1,4
783,3.63051,0.820,-1,4
784,3.63134,0.825,-1,4
785,3.63216,0.825,-1,4
786,3.63298,0.818,-1,4
787,3.63379,0.818,-1,4
788,3.63461,0.818,-1,4
789,3.63544,0.826,-1,4
790,3.63626,0.826,-1,4
791,3.63708,0.820,-1,4
792,3.63790,0.814,-1,4
793,3.63871,0.815,-1,4
794,3.63953,0.822,-1,4
795,3.64036,0.827,-1,4
796,3.64119,0.819,-1,4
797,3.64282,0.818,-1,4
798,3.64364,0.823,-1,4
799,3.64447,0.827,-1,4
800,3.64530,0.828,-1,4
801,3.64612,0.823,-1,4
802,3.64694,0.818,-1,4
803,3.64776,0.819,-1,4
804,3.64859,0.826,-1,4
805,3.64942,0.830,-1,4
806,3.65025,0.831,-1,4
807,3.65107,0.826,-1,4
808,3.65190,0.827,-1,4
809,3.65273,0.827,-1,4
810,3.65356,0.830,-1,4
811,3.65439,0.831,-1,4
812,3.65522,0.831,-1,4
813,3.65605,0.830,-1,4
814,3.65688,0.829,-1,4
815,3.65771,0.830,-1,4
816,3.65854,0.834,-1,4
817,3.65938,0.838,-1,4
818,3.66022,0.839,-1,4
819,3.66105,0.834,-1,4
820,3.66188,0.831,-1,4
821,3.66272,0.831,-1,4
822,3.66355,0.838,-1,4
823,3.66440,0.844,-1,4
824,3.66524,0.842,-1,4
825,3.66607,0.835,-1,4
826,3.66691,0.836,-1,4
827,3.66860,0.850,-1,4
828,3.66945,0.848,-1,4
829,3.67029,0.842,-1,4
830,3.67113,0.838,-1,4
831,3.67197,0.842,-1,4
832,3.67283,0.852,-1,4
833,3.67368,0.856,-1,4
834,3.67454,0.853,-1,4
835,3.67538,0.846,-1,4
836,3.67623,0.846,-1,4
837,3.67708,0.852,-1,4
838,3.67794,0.859,-1,4
839,3.67880,0.856,-1,4
840,3.67965,0.851,-1,4
841,3.68049,0.846,-1,4
842,3.68135,0.853,-1,4
843,3.68221,0.861,-1,4
844,3.68307,0.864,-1,4
845,3.68393,0.860,-1,4
846,3.68479,0.853,-1,4
847,3.68564,0.852,-1,4
848,3.68650,0.858,-1,4
849,3.68736,0.863,-1,4
850,3.68822,0.864,-1,4
851,3.68908,0.860,-1,4
852,3.68994,0.857,-1,4
853,3.69080,0.859,-1,4
854,3.69166,0.865,-1,4
855,3.69253,0.870,-1,4
856,3.69340,0.866,-1,4
857,3.69426,0.859,-1,4
858,3.69512,0.858,-1,4
859,3.69685,0.872,-1,4
860,3.69773,0.875,-1,4
861,3.69860,0.871,-1,4
862,3.69946,0.863,-1,4
863,3.70032,0.862,-1,4
864,3.70119,0.869,-1,4
865,3.70207,0.876,-1,4
866,3.70294,0.877,-1,4
867,3.70381,0.866,-1,4
868,3.70467,0.861,-1,4
869,3.70554,0.869,-1,4
870,3.70642,0.879,-1,4
871,3.70730,0.883,-1,4
872,3.70818,0.874,-1,4
873,3.70904,0.862,-1,4
