cnt,pos,speed,Dir,Force,
1,3.11027,1.974,-1,3
2,3.11224,1.970,-1,3
3,3.11421,1.970,-1,3
4,3.11618,1.973,-1,3
5,3.11816,1.973,-1,3
6,3.12013,1.972,-1,3
7,3.12209,1.963,-1,3
8,3.12405,1.959,-1,3
9,3.12601,1.959,-1,3
10,3.12797,1.961,-1,3
11,3.12993,1.953,-1,3
12,3.13187,1.946,-1,3
13,3.13382,1.946,-1,3
14,3.13576,1.941,-1,3
15,3.13770,1.937,-1,3
16,3.13963,1.934,-1,3
17,3.14156,1.930,-1,3
18,3.14348,1.924,-1,3
19,3.14540,1.918,-1,3
20,3.14732,1.913,-1,3
21,3.14922,1.907,-1,3
22,3.15302,1.899,-1,3
23,3.15302,1.889,-1,3
24,3.15491,1.882,-1,3
25,3.15679,1.882,-1,3
26,3.16054,1.869,-1,3
27,3.16054,1.867,-1,3
28,3.16240,1.867,-1,3
29,3.16611,1.849,-1,3
30,3.16795,1.842,-1,3
31,3.16979,1.835,-1,3
32,3.17162,1.832,-1,3
33,3.17345,1.829,-1,3
34,3.17526,1.817,-1,3
35,3.17707,1.809,-1,3
36,3.17887,1.801,-1,3
37,3.18068,1.804,-1,3
38,3.18248,1.800,-1,3
39,3.18426,1.787,-1,3
40,3.18604,1.776,-1,3
41,3.18781,1.773,-1,3
42,3.18959,1.776,-1,3
43,3.19136,1.774,-1,3
44,3.19312,1.759,-1,3
45,3.19487,1.746,-1,3
46,3.19661,1.746,-1,3
47,3.19836,1.751,-1,3
48,3.20012,1.751,-1,3
49,3.20185,1.735,-1,3
50,3.20357,1.719,-1,3
51,3.20529,1.719,-1,3
52,3.20701,1.725,-1,3
53,3.20874,1.726,-1,3
54,3.21045,1.708,-1,3
55,3.21214,1.689,-1,3
56,3.21383,1.695,-1,3
57,3.21553,1.702,-1,3
58,3.21723,1.696,-1,3
59,3.21891,1.679,-1,3
60,3.22058,1.667,-1,3
61,3.22225,1.671,-1,3
62,3.22393,1.678,-1,3
63,3.22559,1.667,-1,3
64,3.22724,1.651,-1,3
65,3.22889,1.650,-1,3
66,3.23055,1.655,-1,3
67,3.23220,1.655,-1,3
68,3.23384,1.640,-1,3
69,3.23547,1.630,-1,3
70,3.23711,1.637,-1,3
71,3.23875,1.644,-1,3
72,3.24038,1.630,-1,3
73,3.24200,1.619,-1,3
74,3.24362,1.618,-1,3
75,3.24525,1.631,-1,3
76,3.24689,1.634,-1,3
77,3.24850,1.617,-1,3
78,3.25011,1.605,-1,3
79,3.25172,1.613,-1,3
80,3.25335,1.628,-1,3
81,3.25498,1.626,-1,3
82,3.25659,1.610,-1,3
83,3.25818,1.597,-1,3
84,3.25979,1.611,-1,3
85,3.26142,1.625,-1,3
86,3.26304,1.619,-1,3
87,3.26464,1.603,-1,3
88,3.26624,1.599,-1,3
89,3.26785,1.611,-1,3
90,3.26948,1.629,-1,3
91,3.27110,1.623,-1,3
92,3.27271,1.604,-1,3
93,3.27431,1.605,-1,3
94,3.27594,1.624,-1,3
95,3.27757,1.635,-1,3
96,3.27920,1.626,-1,3
97,3.28081,1.610,-1,3
98,3.28242,1.617,-1,3
99,3.28407,1.645,-1,3
100,3.28573,1.657,-1,3
101,3.28737,1.644,-1,3
102,3.28900,1.631,-1,3
103,3.29064,1.643,-1,3
104,3.29231,1.671,-1,3
105,3.29400,1.683,-1,3
106,3.29567,1.669,-1,3
107,3.29732,1.657,-1,3
108,3.29900,1.674,-1,3
109,3.30070,1.702,-1,3
110,3.30241,1.710,-1,3
111,3.30411,1.699,-1,3
112,3.30580,1.690,-1,3
113,3.30751,1.708,-1,3
114,3.30924,1.733,-1,3
115,3.31097,1.735,-1,3
116,3.31270,1.727,-1,3
117,3.31443,1.725,-1,3
118,3.31617,1.742,-1,3
119,3.31793,1.763,-1,3
120,3.31970,1.768,-1,3
121,3.32147,1.768,-1,3
122,3.32324,1.789,-1,3
123,3.32503,1.802,-1,3
124,3.32683,1.802,-1,3
125,3.32864,1.809,-1,3
126,3.33045,1.809,-1,3
127,3.33227,1.821,-1,3
128,3.33410,1.830,-1,3
129,3.33593,1.834,-1,3
130,3.33777,1.838,-1,3
131,3.33961,1.844,-1,3
132,3.34147,1.854,-1,3
133,3.34333,1.859,-1,3
134,3.34519,1.865,-1,3
135,3.34707,1.877,-1,3
136,3.34896,1.889,-1,3
137,3.35086,1.897,-1,3
138,3.35276,1.899,-1,3
139,3.35467,1.910,-1,3
140,3.35659,1.923,-1,3
141,3.35852,1.933,-1,3
142,3.36046,1.942,-1,3
143,3.36241,1.946,-1,3
144,3.36437,1.958,-1,3
145,3.36634,1.972,-1,3
146,3.36832,1.982,-1,3
147,3.37031,1.992,-1,3
148,3.37231,1.997,-1,3
149,3.37431,2.004,-1,3
150,3.37633,2.017,-1,3
151,3.37836,2.031,-1,3
152,3.38040,2.044,-1,3
153,3.38246,2.051,-1,3
154,3.38451,2.055,-1,3
155,3.38658,2.081,-1,3
156,3.38866,2.081,-1,3
157,3.39075,2.100,-1,3
158,3.39285,2.100,-1,3
159,3.39496,2.123,-1,3
160,3.39922,2.139,-1,3
161,3.40137,2.151,-1,3
162,3.40354,2.162,-1,3
163,3.40570,2.169,-1,3
164,3.40789,2.185,-1,3
165,3.41009,2.198,-1,3
166,3.41230,2.211,-1,3
167,3.41452,2.219,-1,3
168,3.41675,2.232,-1,3
169,3.41900,2.246,-1,3
170,3.42125,2.257,-1,3
171,3.42352,2.268,-1,3
172,3.42580,2.283,-1,3
173,3.42810,2.296,-1,3
174,3.43041,2.307,-1,3
175,3.43272,2.316,-1,3
176,3.43504,2.319,-1,3
177,3.43736,2.323,-1,3
178,3.43969,2.322,-1,3
179,3.44202,2.336,-1,3
180,3.44438,2.353,-1,3
181,3.44674,2.369,-1,3
182,3.44912,2.378,-1,3
183,3.45391,2.400,-1,3
184,3.45633,2.419,-1,3
185,3.45633,2.437,-1,3
186,3.46122,2.449,-1,3
187,3.46368,2.460,-1,3
188,3.46615,2.471,-1,3
189,3.46863,2.478,-1,3
190,3.47111,2.481,-1,3
191,3.47360,2.488,-1,3
192,3.47609,2.495,-1,3
193,3.47860,2.510,-1,3
194,3.48113,2.524,-1,3
195,3.48367,2.539,-1,3
196,3.48621,2.544,-1,3
197,3.48876,2.554,-1,3
198,3.49133,2.569,-1,3
199,3.49392,2.589,-1,3
200,3.49653,2.605,-1,3
201,3.49914,2.617,-1,3
202,3.50177,2.626,-1,3
203,3.50441,2.635,-1,3
204,3.50705,2.649,-1,3
205,3.50972,2.663,-1,3
206,3.51239,2.678,-1,3
207,3.51509,2.692,-1,3
208,3.51779,2.700,-1,3
209,3.52050,2.713,-1,3
210,3.52323,2.725,-1,3
211,3.52596,2.737,-1,3
212,3.52871,2.745,-1,3
213,3.53147,2.757,-1,3
214,3.53423,2.765,-1,3
215,3.53700,2.772,-1,3
216,3.53978,2.781,-1,3
217,3.54257,2.788,-1,3
218,3.54537,2.801,-1,3
219,3.54818,2.806,-1,3
220,3.55100,2.816,-1,3
221,3.55382,2.828,-1,3
222,3.55666,2.833,-1,3
223,3.55950,2.843,-1,3
224,3.56520,2.855,-1,3
225,3.56807,2.863,-1,3
226,3.57093,2.867,-1,3
227,3.57380,2.869,-1,3
228,3.57668,2.873,-1,3
229,3.57955,2.878,-1,3
230,3.58243,2.878,-1,3
231,3.58531,2.879,-1,3
232,3.58819,2.881,-1,3
233,3.59107,2.879,-1,3
234,3.59396,2.885,-1,3
235,3.59684,2.884,-1,3
236,3.59973,2.889,-1,3
237,3.60261,2.884,-1,3
238,3.60549,2.881,-1,3
239,3.60838,2.882,-1,3
240,3.61126,2.880,-1,3
241,3.61414,2.883,-1,3
242,3.61702,2.879,-1,3
243,3.61989,2.872,-1,3
244,3.62276,2.866,-1,3
245,3.62562,2.866,-1,3
246,3.62848,2.861,-1,3
247,3.63134,2.855,-1,3
248,3.63419,2.848,-1,3
249,3.63703,2.842,-1,3
250,3.63987,2.837,-1,3
251,3.64270,2.831,-1,3
252,3.64552,2.827,-1,3
253,3.64834,2.818,-1,3
254,3.65115,2.805,-1,3
255,3.65674,2.794,-1,3
256,3.65952,2.784,-1,3
257,3.66230,2.781,-1,3
258,3.66508,2.772,-1,3
259,3.66784,2.760,-1,3
260,3.67059,2.755,-1,3
261,3.67334,2.748,-1,3
262,3.67608,2.737,-1,3
263,3.67881,2.730,-1,3
264,3.68153,2.720,-1,3
265,3.68424,2.703,-1,3
266,3.68694,2.703,-1,3
267,3.68964,2.695,-1,3
268,3.69232,2.687,-1,3
269,3.69500,2.678,-1,3
270,3.69767,2.664,-1,3
271,3.70032,2.656,-1,3
272,3.70297,2.650,-1,3
273,3.70561,2.640,-1,3
274,3.70824,2.628,-1,3
275,3.71086,2.618,-1,3
276,3.71347,2.608,-1,3
277,3.71606,2.595,-1,3
278,3.71865,2.589,-1,3
279,3.72123,2.577,-1,3
280,3.72380,2.567,-1,3
281,3.72635,2.556,-1,3
282,3.72890,2.548,-1,3
283,3.73144,2.536,-1,3
284,3.73396,2.514,-1,3
285,3.73898,2.506,-1,3
286,3.74148,2.497,-1,3
287,3.74396,2.482,-1,3
288,3.74644,2.472,-1,3
289,3.74890,2.465,-1,3
290,3.75136,2.456,-1,3
291,3.75380,2.441,-1,3
292,3.75623,2.433,-1,3
293,3.75865,2.420,-1,3
294,3.76106,2.410,-1,3
295,3.76346,2.399,-1,3
296,3.76585,2.392,-1,3
297,3.76823,2.381,-1,3
298,3.77060,2.369,-1,3
299,3.77296,2.358,-1,3
300,3.77531,2.348,-1,3
301,3.77764,2.337,-1,3
302,3.77997,2.330,-1,3
303,3.78229,2.316,-1,3
304,3.78459,2.304,-1,3
305,3.78689,2.297,-1,3
306,3.78918,2.287,-1,3
307,3.79145,2.273,-1,3
308,3.79372,2.266,-1,3
309,3.79598,2.261,-1,3
310,3.79823,2.247,-1,3
311,3.80046,2.237,-1,3
312,3.80269,2.232,-1,3
313,3.80492,2.225,-1,3
314,3.80713,2.212,-1,3
315,3.80933,2.202,-1,3
316,3.81153,2.196,-1,3
317,3.81372,2.191,-1,3
318,3.81590,2.179,-1,3
319,3.81807,2.173,-1,3
320,3.82024,2.166,-1,3
321,3.82240,2.159,-1,3
322,3.82455,2.151,-1,3
323,3.82670,2.147,-1,3
324,3.82883,2.138,-1,3
325,3.83097,2.131,-1,3
326,3.83309,2.126,-1,3
327,3.83521,2.122,-1,3
328,3.83733,2.116,-1,3
329,3.83944,2.106,-1,3
330,3.84154,2.104,-1,3
331,3.84364,2.102,-1,3
332,3.84574,2.095,-1,3
333,3.84782,2.084,-1,3
334,3.84991,2.086,-1,3
335,3.85199,2.084,-1,3
336,3.85407,2.077,-1,3
337,3.85614,2.067,-1,3
338,3.85821,2.069,-1,3
339,3.86028,2.070,-1,3
340,3.86234,2.064,-1,3
341,3.86440,2.057,-1,3
342,3.86645,2.058,-1,3
343,3.86851,2.059,-1,3
344,3.87056,2.053,-1,3
345,3.87261,2.049,-1,3
346,3.87467,2.052,-1,3
347,3.87672,2.052,-1,3
348,3.87876,2.046,-1,3
349,3.88081,2.050,-1,3
350,3.88287,2.052,-1,3
351,3.88491,2.049,-1,3
352,3.88696,2.048,-1,3
353,3.88902,2.054,-1,3
354,3.89107,2.059,-1,3
355,3.89313,2.052,-1,3
356,3.89518,2.055,-1,3
357,3.89725,2.064,-1,3
358,3.89932,2.070,-1,3
359,3.90138,2.067,-1,3
360,3.90345,2.068,-1,3
361,3.90553,2.076,-1,3
362,3.90762,2.089,-1,3
363,3.90970,2.086,-1,3
364,3.91179,2.088,-1,3
365,3.91388,2.093,-1,3
366,3.91599,2.109,-1,3
367,3.91810,2.111,-1,3
368,3.92022,2.112,-1,3
369,3.92233,2.119,-1,3
370,3.92446,2.130,-1,3
371,3.92660,2.139,-1,3
372,3.92875,2.145,-1,3
373,3.93090,2.152,-1,3
374,3.93306,2.157,-1,3
375,3.93523,2.171,-1,3
376,3.93741,2.183,-1,3
377,3.93960,2.189,-1,3
378,3.94179,2.193,-1,3
379,3.94400,2.210,-1,3
380,3.94623,2.226,-1,3
381,3.94847,2.235,-1,3
382,3.95071,2.241,-1,3
383,3.95296,2.256,-1,3
384,3.95523,2.271,-1,3
385,3.95752,2.287,-1,3
386,3.96213,2.309,-1,3
387,3.96213,2.323,-1,3
388,3.96445,2.323,-1,3
389,3.96914,2.355,-1,3
390,3.96914,2.355,-1,3
391,3.97151,2.382,-1,3
392,3.97389,2.382,-1,3
393,3.97629,2.411,-1,3
394,3.98112,2.426,-1,3
395,3.98357,2.444,-1,3
396,3.98602,2.455,-1,3
397,3.98849,2.470,-1,3
398,3.99098,2.488,-1,3
399,3.99349,2.507,-1,3
400,3.99601,2.521,-1,3
401,3.99854,2.533,-1,3
402,4.00109,2.550,-1,3
403,4.00366,2.571,-1,3
404,4.00625,2.585,-1,3
405,4.00885,2.598,-1,3
406,4.01146,2.617,-1,3
407,4.01409,2.630,-1,3
408,4.01674,2.647,-1,3
409,4.01940,2.662,-1,3
410,4.02208,2.677,-1,3
411,4.02477,2.690,-1,3
412,4.02747,2.702,-1,3
413,4.03019,2.717,-1,3
414,4.03292,2.735,-1,3
415,4.03567,2.743,-1,3
416,4.03842,2.756,-1,3
417,4.04119,2.769,-1,3
418,4.04397,2.782,-1,3
419,4.04677,2.793,-1,3
420,4.04958,2.810,-1,3
421,4.05239,2.816,-1,3
422,4.05522,2.828,-1,3
423,4.05807,2.848,-1,3
424,4.06093,2.857,-1,3
425,4.06379,2.866,-1,3
426,4.06956,2.889,-1,3
427,4.07246,2.905,-1,3
428,4.07537,2.911,-1,3
429,4.07830,2.924,-1,3
430,4.08123,2.934,-1,3
431,4.08417,2.941,-1,3
432,4.08713,2.958,-1,3
433,4.09010,2.965,-1,3
434,4.09307,2.972,-1,3
435,4.09605,2.983,-1,3
436,4.09904,2.992,-1,3
437,4.10205,3.006,-1,3
438,4.10506,3.015,-1,3
439,4.10808,3.019,-1,3
440,4.11111,3.028,-1,3
441,4.11415,3.042,-1,3
442,4.11720,3.052,-1,3
443,4.12027,3.062,-1,3
444,4.12333,3.063,-1,3
445,4.12641,3.077,-1,3
446,4.12949,3.087,-1,3
447,4.13259,3.099,-1,3
448,4.13570,3.107,-1,3
449,4.13881,3.113,-1,3
450,4.14193,3.120,-1,3
451,4.14507,3.136,-1,3
452,4.14821,3.143,-1,3
453,4.15136,3.151,-1,3
454,4.15452,3.157,-1,3
455,4.15768,3.164,-1,3
456,4.16086,3.176,-1,3
457,4.16404,3.185,-1,3
458,4.17042,3.193,-1,3
459,4.17363,3.204,-1,3
460,4.17363,3.211,-1,3
461,4.17684,3.211,-1,3
462,4.18006,3.222,-1,3
463,4.18328,3.222,-1,3
464,4.18974,3.233,-1,3
465,4.19298,3.239,-1,3
466,4.19622,3.245,-1,3
467,4.19947,3.249,-1,3
468,4.20598,3.259,-1,3
469,4.20598,3.268,-1,3
470,4.20925,3.268,-1,3
471,4.21252,3.271,-1,3
472,4.21580,3.276,-1,3
473,4.21908,3.282,-1,3
474,4.22236,3.286,-1,3
475,4.22565,3.289,-1,3
476,4.22895,3.299,-1,3
477,4.23226,3.303,-1,3
478,4.23556,3.307,-1,3
479,4.23887,3.311,-1,3
480,4.24219,3.318,-1,3
481,4.24551,3.323,-1,3
482,4.24884,3.328,-1,3
483,4.25217,3.330,-1,3
484,4.25551,3.334,-1,3
485,4.25884,3.338,-1,3
486,4.26219,3.345,-1,3
487,4.26554,3.350,-1,3
488,4.26889,3.354,-1,3
489,4.27224,3.351,-1,3
490,4.27561,3.360,-1,3
491,4.27897,3.369,-1,3
492,4.28234,3.370,-1,3
493,4.28572,3.376,-1,3
494,4.28910,3.377,-1,3
495,4.29248,3.388,-1,3
496,4.29587,3.390,-1,3
497,4.29927,3.397,-1,3
498,4.30267,3.410,-1,3
499,4.30949,3.412,-1,3
500,4.30949,3.422,-1,3
501,4.31291,3.422,-1,3
502,4.31977,3.430,-1,3
503,4.31977,3.441,-1,3
504,4.32321,3.446,-1,3
505,4.32666,3.453,-1,3
506,4.33357,3.455,-1,3
507,4.33703,3.464,-1,3
508,4.34050,3.470,-1,3
509,4.34398,3.478,-1,3
510,4.34746,3.483,-1,3
511,4.35095,3.487,-1,3
512,4.35444,3.495,-1,3
513,4.35794,3.501,-1,3
514,4.36145,3.506,-1,3
515,4.36497,3.516,-1,3
516,4.36849,3.519,-1,3
517,4.37201,3.526,-1,3
518,4.37554,3.530,-1,3
519,4.37908,3.537,-1,3
520,4.38262,3.544,-1,3
521,4.38617,3.551,-1,3
522,4.38973,3.555,-1,3
523,4.39329,3.560,-1,3
524,4.39685,3.564,-1,3
525,4.40042,3.571,-1,3
526,4.40400,3.576,-1,3
527,4.40758,3.582,-1,3
528,4.41117,3.589,-1,3
529,4.41835,3.598,-1,3
530,4.42196,3.601,-1,3
531,4.42556,3.607,-1,3
532,4.42917,3.609,-1,3
533,4.43279,3.614,-1,3
534,4.43640,3.617,-1,3
535,4.44002,3.620,-1,3
536,4.44365,3.627,-1,3
537,4.44728,3.633,-1,3
538,4.45092,3.633,-1,3
539,4.45455,3.638,-1,3
540,4.45819,3.638,-1,3
541,4.46183,3.639,-1,3
542,4.46547,3.647,-1,3
543,4.46912,3.644,-1,3
544,4.47276,3.647,-1,3
545,4.47641,3.645,-1,3
546,4.48006,3.647,-1,3
547,4.48370,3.649,-1,3
548,4.48736,3.651,-1,3
549,4.49101,3.650,-1,3
550,4.49466,3.651,-1,3
551,4.49830,3.647,-1,3
552,4.50195,3.648,-1,3
553,4.50560,3.652,-1,3
554,4.50925,3.651,-1,3
555,4.51290,3.648,-1,3
556,4.51655,3.644,-1,3
557,4.52020,3.648,-1,3
558,4.52384,3.646,-1,3
559,4.52749,3.646,-1,3
560,4.53113,3.640,-1,3
561,4.53476,3.637,-1,3
562,4.53840,3.633,-1,3
563,4.54203,3.633,-1,3
564,4.54566,3.630,-1,3
565,4.54928,3.625,-1,3
566,4.55290,3.618,-1,3
567,4.55651,3.613,-1,3
568,4.56012,3.609,-1,3
569,4.56373,3.603,-1,3
570,4.56733,3.599,-1,3
571,4.57092,3.593,-1,3
572,4.57450,3.584,-1,3
573,4.57808,3.579,-1,3
574,4.58166,3.575,-1,3
575,4.58522,3.565,-1,3
576,4.58878,3.560,-1,3
577,4.59233,3.549,-1,3
578,4.59587,3.543,-1,3
579,4.59941,3.537,-1,3
580,4.60294,3.529,-1,3
581,4.60646,3.523,-1,3
582,4.60997,3.509,-1,3
583,4.61347,3.501,-1,3
584,4.61697,3.493,-1,3
585,4.62045,3.483,-1,3
586,4.62392,3.475,-1,3
587,4.62739,3.464,-1,3
588,4.63084,3.453,-1,3
589,4.63428,3.441,-1,3
590,4.63771,3.432,-1,3
591,4.64113,3.421,-1,3
592,4.64455,3.413,-1,3
593,4.64795,3.398,-1,3
594,4.65133,3.388,-1,3
595,4.65472,3.383,-1,3
596,4.65809,3.370,-1,3
597,4.66144,3.358,-1,3
598,4.66479,3.342,-1,3
599,4.66812,3.334,-1,3
600,4.67144,3.323,-1,3
601,4.67476,3.313,-1,3
602,4.67806,3.300,-1,3
603,4.68134,3.288,-1,3
604,4.68462,3.276,-1,3
605,4.68788,3.263,-1,3
606,4.69113,3.253,-1,3
607,4.69438,3.242,-1,3
608,4.69760,3.227,-1,3
609,4.70082,3.217,-1,3
610,4.70403,3.206,-1,3
611,4.70722,3.193,-1,3
612,4.71040,3.182,-1,3
613,4.71357,3.170,-1,3
614,4.71673,3.160,-1,3
615,4.71988,3.144,-1,3
616,4.72301,3.136,-1,3
617,4.72613,3.123,-1,3
618,4.72924,3.109,-1,3
619,4.73235,3.103,-1,3
620,4.73544,3.088,-1,3
621,4.73851,3.077,-1,3
622,4.74158,3.066,-1,3
623,4.74463,3.052,-1,3
624,4.74767,3.044,-1,3
625,4.75071,3.032,-1,3
626,4.75372,3.018,-1,3
627,4.75673,3.009,-1,3
628,4.75973,2.994,-1,3
629,4.76271,2.985,-1,3
630,4.76568,2.973,-1,3
631,4.76865,2.963,-1,3
632,4.77159,2.940,-1,3
633,4.77746,2.930,-1,3
634,4.78038,2.919,-1,3
635,4.78329,2.906,-1,3
636,4.78619,2.898,-1,3
637,4.78907,2.887,-1,3
638,4.79195,2.878,-1,3
639,4.79482,2.870,-1,3
640,4.79768,2.854,-1,3
641,4.80053,2.850,-1,3
642,4.80337,2.840,-1,3
643,4.80620,2.830,-1,3
644,4.80902,2.821,-1,3
645,4.81183,2.815,-1,3
646,4.81463,2.802,-1,3
647,4.81743,2.795,-1,3
648,4.82021,2.783,-1,3
649,4.82299,2.778,-1,3
650,4.82576,2.771,-1,3
651,4.82852,2.760,-1,3
652,4.83127,2.753,-1,3
653,4.83402,2.745,-1,3
654,4.83675,2.736,-1,3
655,4.83948,2.728,-1,3
656,4.84221,2.725,-1,3
657,4.84492,2.715,-1,3
658,4.84763,2.706,-1,3
659,4.85033,2.701,-1,3
660,4.85303,2.697,-1,3
661,4.85572,2.691,-1,3
662,4.85840,2.683,-1,3
663,4.86108,2.672,-1,3
664,4.86642,2.668,-1,3
665,4.86909,2.669,-1,3
666,4.87174,2.659,-1,3
667,4.87440,2.651,-1,3
668,4.87705,2.651,-1,3
669,4.87970,2.651,-1,3
670,4.88235,2.648,-1,3
671,4.88498,2.638,-1,3
672,4.88762,2.640,-1,3
673,4.89026,2.637,-1,3
674,4.89290,2.636,-1,3
675,4.89553,2.635,-1,3
676,4.89817,2.633,-1,3
677,4.90080,2.632,-1,3
678,4.90343,2.631,-1,3
679,4.90607,2.637,-1,3
680,4.90870,2.633,-1,3
681,4.91133,2.635,-1,3
682,4.91397,2.636,-1,3
683,4.91661,2.638,-1,3
684,4.91925,2.640,-1,3
685,4.92189,2.643,-1,3
686,4.92454,2.645,-1,3
687,4.92719,2.649,-1,3
688,4.92984,2.656,-1,3
689,4.93250,2.655,-1,3
690,4.93516,2.662,-1,3
691,4.93783,2.669,-1,3
692,4.94050,2.670,-1,3
693,4.94317,2.678,-1,3
694,4.94586,2.684,-1,3
695,4.94855,2.687,-1,3
696,4.95124,2.694,-1,3
697,4.95394,2.702,-1,3
698,4.95665,2.705,-1,3
699,4.95936,2.711,-1,3
700,4.96208,2.719,-1,3
701,4.96481,2.728,-1,3
702,4.96754,2.733,-1,3
703,4.97027,2.735,-1,3
704,4.97302,2.744,-1,3
705,4.97577,2.754,-1,3
706,4.97853,2.760,-1,3
707,4.98130,2.765,-1,3
708,4.98407,2.776,-1,3
709,4.98685,2.781,-1,3
710,4.98964,2.790,-1,3
711,4.99244,2.799,-1,3
712,4.99525,2.807,-1,3
713,4.99806,2.811,-1,3
714,5.00088,2.821,-1,3
715,5.00371,2.832,-1,3
716,5.00655,2.840,-1,3
717,5.01225,2.855,-1,3
718,5.01512,2.868,-1,3
719,5.01800,2.874,-1,3
720,5.02088,2.885,-1,3
721,5.02377,2.893,-1,3
722,5.02667,2.901,-1,3
723,5.02959,2.914,-1,3
724,5.03251,2.924,-1,3
725,5.03544,2.930,-1,3
726,5.03839,2.945,-1,3
727,5.04134,2.953,-1,3
728,5.04430,2.964,-1,3
729,5.04728,2.972,-1,3
730,5.05026,2.987,-1,3
731,5.05326,2.996,-1,3
732,5.05626,3.006,-1,3
733,5.05928,3.019,-1,3
734,5.06231,3.030,-1,3
735,5.06536,3.041,-1,3
736,5.06841,3.056,-1,3
737,5.07148,3.066,-1,3
738,5.07455,3.077,-1,3
739,5.07765,3.093,-1,3
740,5.08075,3.107,-1,3
741,5.08387,3.118,-1,3
742,5.08700,3.131,-1,3
743,5.09015,3.146,-1,3
744,5.09331,3.160,-1,3
745,5.09648,3.171,-1,3
746,5.09966,3.184,-1,3
747,5.10607,3.211,-1,3
748,5.10607,3.225,-1,3
749,5.11253,3.239,-1,3
750,5.11253,3.251,-1,3
751,5.11579,3.262,-1,3
752,5.11905,3.262,-1,3
753,5.12232,3.272,-1,3
754,5.12561,3.302,-1,3
755,5.13223,3.314,-1,3
756,5.13555,3.323,-1,3
757,5.13889,3.338,-1,3
758,5.14224,3.352,-1,3
759,5.14560,3.364,-1,3
760,5.14898,3.377,-1,3
761,5.15237,3.389,-1,3
762,5.15577,3.400,-1,3
763,5.15918,3.414,-1,3
764,5.16261,3.429,-1,3
765,5.16605,3.438,-1,3
766,5.16950,3.453,-1,3
767,5.17297,3.464,-1,3
768,5.17644,3.475,-1,3
769,5.17993,3.488,-1,3
770,5.18343,3.498,-1,3
771,5.18694,3.510,-1,3
772,5.19046,3.524,-1,3
773,5.19399,3.533,-1,3
774,5.19754,3.547,-1,3
775,5.20110,3.557,-1,3
776,5.20467,3.569,-1,3
777,5.20825,3.580,-1,3
778,5.21184,3.594,-1,3
779,5.21545,3.620,-1,3
780,5.21906,3.631,-1,3
781,5.22270,3.641,-1,3
782,5.22634,3.641,-1,3
783,5.23366,3.667,-1,3
784,5.23366,3.678,-1,3
785,5.23733,3.678,-1,3
786,5.24102,3.699,-1,3
787,5.24472,3.713,-1,3
788,5.25216,3.723,-1,3
789,5.25590,3.738,-1,3
790,5.25964,3.746,-1,3
791,5.26340,3.756,-1,3
792,5.26717,3.770,-1,3
793,5.27095,3.779,-1,3
794,5.27474,3.793,-1,3
795,5.27855,3.804,-1,3
796,5.28236,3.811,-1,3
797,5.28618,3.823,-1,3
798,5.29001,3.835,-1,3
799,5.29386,3.845,-1,3
800,5.29772,3.856,-1,3
801,5.30158,3.864,-1,3
802,5.30545,3.869,-1,3
803,5.30933,3.880,-1,3
804,5.31322,3.892,-1,3
805,5.31712,3.902,-1,3
806,5.32103,3.907,-1,3
807,5.32494,3.913,-1,3
808,5.32886,3.918,-1,3
809,5.33279,3.929,-1,3
810,5.33673,3.939,-1,3
811,5.34068,3.947,-1,3
812,5.34463,3.949,-1,3
813,5.34858,3.956,-1,3
814,5.35255,3.965,-1,3
815,5.35652,3.968,-1,3
816,5.36050,3.981,-1,3
817,5.36448,3.985,-1,3
818,5.36847,3.989,-1,3
819,5.37246,3.993,-1,3
820,5.37647,4.002,-1,3
821,5.38047,4.006,-1,3
822,5.38448,4.009,-1,3
823,5.38849,4.012,-1,3
824,5.39251,4.020,-1,3
825,5.39654,4.024,-1,3
826,5.40056,4.028,-1,3
827,5.40459,4.026,-1,3
828,5.40863,4.035,-1,3
829,5.41266,4.035,-1,3
830,5.41670,4.042,-1,3
831,5.42075,4.047,-1,3
832,5.42480,4.046,-1,3
833,5.42885,4.051,-1,3
834,5.43291,4.058,-1,3
835,5.43696,4.059,-1,3
836,5.44102,4.061,-1,3
837,5.44509,4.070,-1,3
838,5.44916,4.068,-1,3
839,5.45323,4.073,-1,3
840,5.45731,4.074,-1,3
841,5.46139,4.077,-1,3
842,5.46546,4.077,-1,3
843,5.46954,4.079,-1,3
844,5.47362,4.079,-1,3
845,5.47770,4.082,-1,3
846,5.48178,4.081,-1,3
847,5.48586,4.077,-1,3
848,5.48994,4.078,-1,3
849,5.49402,4.080,-1,3
850,5.49810,4.078,-1,3
851,5.50217,4.077,-1,3
852,5.50625,4.079,-1,3
853,5.51033,4.074,-1,3
854,5.51440,4.071,-1,3
855,5.51846,4.066,-1,3
856,5.52253,4.067,-1,3
857,5.52660,4.064,-1,3
858,5.53066,4.061,-1,3
859,5.53471,4.052,-1,3
860,5.53876,4.049,-1,3
861,5.54280,4.047,-1,3
862,5.54685,4.041,-1,3
863,5.55088,4.035,-1,3
864,5.55491,4.027,-1,3
865,5.55893,4.023,-1,3
866,5.56295,4.022,-1,3
867,5.56697,4.013,-1,3
868,5.57097,4.008,-1,3
869,5.57497,3.999,-1,3
870,5.57897,3.995,-1,3
871,5.58296,3.986,-1,3
872,5.58694,3.983,-1,3
873,5.59091,3.975,-1,3
