cnt,pos,speed,Dir,Force,
1,3.12122,2.941,-1,4
2,3.12415,2.930,-1,4
3,3.12706,2.915,-1,4
4,3.12997,2.902,-1,4
5,3.13285,2.889,-1,4
6,3.13573,2.877,-1,4
7,3.13859,2.854,-1,4
8,3.14142,2.838,-1,4
9,3.14425,2.822,-1,4
10,3.14984,2.788,-1,4
11,3.15261,2.769,-1,4
12,3.15536,2.756,-1,4
13,3.15810,2.738,-1,4
14,3.16082,2.719,-1,4
15,3.16352,2.702,-1,4
16,3.16621,2.685,-1,4
17,3.16887,2.667,-1,4
18,3.17152,2.645,-1,4
19,3.17415,2.633,-1,4
20,3.17677,2.616,-1,4
21,3.17937,2.599,-1,4
22,3.18195,2.580,-1,4
23,3.18451,2.564,-1,4
24,3.18706,2.547,-1,4
25,3.18959,2.528,-1,4
26,3.19209,2.509,-1,4
27,3.19459,2.494,-1,4
28,3.19706,2.475,-1,4
29,3.20196,2.439,-1,4
30,3.20438,2.423,-1,4
31,3.20679,2.404,-1,4
32,3.20917,2.388,-1,4
33,3.21154,2.368,-1,4
34,3.21389,2.351,-1,4
35,3.21623,2.331,-1,4
36,3.21854,2.316,-1,4
37,3.22084,2.297,-1,4
38,3.22312,2.279,-1,4
39,3.22763,2.244,-1,4
40,3.22985,2.229,-1,4
41,3.23206,2.209,-1,4
42,3.23426,2.194,-1,4
43,3.23643,2.175,-1,4
44,3.23859,2.161,-1,4
45,3.24073,2.141,-1,4
46,3.24286,2.124,-1,4
47,3.24496,2.105,-1,4
48,3.24705,2.089,-1,4
49,3.25118,2.056,-1,4
50,3.25322,2.036,-1,4
51,3.25523,2.017,-1,4
52,3.25724,2.004,-1,4
53,3.25922,1.985,-1,4
54,3.26119,1.967,-1,4
55,3.26314,1.947,-1,4
56,3.26507,1.930,-1,4
57,3.26698,1.917,-1,4
58,3.26888,1.901,-1,4
59,3.27076,1.881,-1,4
60,3.27262,1.859,-1,4
61,3.27447,1.843,-1,4
62,3.27630,1.834,-1,4
63,3.27811,1.812,-1,4
64,3.27990,1.791,-1,4
65,3.28168,1.775,-1,4
66,3.28344,1.762,-1,4
67,3.28519,1.746,-1,4
68,3.28691,1.723,-1,4
69,3.28861,1.705,-1,4
70,3.29030,1.690,-1,4
71,3.29198,1.677,-1,4
72,3.29364,1.662,-1,4
73,3.29529,1.649,-1,4
74,3.29693,1.635,-1,4
75,3.29855,1.627,-1,4
76,3.30176,1.597,-1,4
77,3.30335,1.587,-1,4
78,3.30493,1.579,-1,4
79,3.30649,1.564,-1,4
80,3.30804,1.549,-1,4
81,3.30957,1.531,-1,4
82,3.31110,1.524,-1,4
83,3.31262,1.522,-1,4
84,3.31413,1.512,-1,4
85,3.31562,1.484,-1,4
86,3.31709,1.469,-1,4
87,3.32002,1.470,-1,4
88,3.32149,1.462,-1,4
89,3.32293,1.441,-1,4
90,3.32435,1.423,-1,4
91,3.32577,1.423,-1,4
92,3.32721,1.435,-1,4
93,3.32864,1.433,-1,4
94,3.33005,1.412,-1,4
95,3.33145,1.399,-1,4
96,3.33286,1.406,-1,4
97,3.33428,1.419,-1,4
98,3.33570,1.421,-1,4
99,3.33711,1.413,-1,4
100,3.33851,1.413,-1,4
101,3.33993,1.431,-1,4
102,3.34280,1.437,-1,4
103,3.34422,1.427,-1,4
104,3.34565,1.424,-1,4
105,3.34707,1.429,-1,4
106,3.34852,1.441,-1,4
107,3.34996,1.447,-1,4
108,3.35141,1.449,-1,4
109,3.35285,1.442,-1,4
110,3.35430,1.444,-1,4
111,3.35575,1.457,-1,4
112,3.35722,1.465,-1,4
113,3.35869,1.472,-1,4
114,3.36017,1.480,-1,4
115,3.36166,1.483,-1,4
116,3.36467,1.515,-1,4
117,3.36620,1.530,-1,4
118,3.36774,1.542,-1,4
119,3.36930,1.559,-1,4
120,3.37087,1.576,-1,4
121,3.37246,1.587,-1,4
122,3.37407,1.610,-1,4
123,3.37570,1.628,-1,4
124,3.37734,1.641,-1,4
125,3.37899,1.652,-1,4
126,3.38065,1.665,-1,4
127,3.38234,1.686,-1,4
128,3.38405,1.711,-1,4
129,3.38577,1.723,-1,4
130,3.38751,1.734,-1,4
131,3.38926,1.755,-1,4
132,3.39105,1.784,-1,4
133,3.39285,1.823,-1,4
134,3.39652,1.839,-1,4
135,3.39839,1.876,-1,4
136,3.40030,1.907,-1,4
137,3.40223,1.926,-1,4
138,3.40417,1.941,-1,4
139,3.40614,1.968,-1,4
140,3.40814,2.007,-1,4
141,3.41017,2.029,-1,4
142,3.41221,2.041,-1,4
143,3.41427,2.063,-1,4
144,3.41637,2.136,-1,4
145,3.42066,2.153,-1,4
146,3.42284,2.173,-1,4
147,3.42504,2.206,-1,4
148,3.42729,2.249,-1,4
149,3.42957,2.275,-1,4
150,3.43187,2.298,-1,4
151,3.43419,2.324,-1,4
152,3.43655,2.357,-1,4
153,3.43894,2.393,-1,4
154,3.44136,2.418,-1,4
155,3.44379,2.433,-1,4
156,3.44626,2.465,-1,4
157,3.44875,2.499,-1,4
158,3.45383,2.548,-1,4
159,3.45383,2.575,-1,4
160,3.45640,2.609,-1,4
161,3.46165,2.639,-1,4
162,3.46433,2.673,-1,4
163,3.46433,2.697,-1,4
164,3.46975,2.728,-1,4
165,3.47251,2.759,-1,4
166,3.47530,2.791,-1,4
167,3.47812,2.817,-1,4
168,3.48096,2.842,-1,4
169,3.48383,2.870,-1,4
170,3.48673,2.900,-1,4
171,3.48966,2.925,-1,4
172,3.49260,2.948,-1,4
173,3.49558,2.976,-1,4
174,3.49858,2.999,-1,4
175,3.50466,3.054,-1,4
176,3.50773,3.074,-1,4
177,3.51083,3.094,-1,4
178,3.51395,3.125,-1,4
179,3.51710,3.145,-1,4
180,3.52026,3.167,-1,4
181,3.52345,3.184,-1,4
182,3.52665,3.204,-1,4
183,3.52987,3.217,-1,4
184,3.53311,3.242,-1,4
185,3.53637,3.256,-1,4
186,3.53964,3.269,-1,4
187,3.54292,3.285,-1,4
188,3.54622,3.300,-1,4
189,3.54954,3.317,-1,4
190,3.55287,3.331,-1,4
191,3.55621,3.345,-1,4
192,3.55957,3.360,-1,4
193,3.56295,3.374,-1,4
194,3.56634,3.388,-1,4
195,3.56974,3.407,-1,4
196,3.57658,3.428,-1,4
197,3.58003,3.443,-1,4
198,3.58348,3.456,-1,4
199,3.58695,3.464,-1,4
200,3.59042,3.476,-1,4
201,3.59391,3.484,-1,4
202,3.59741,3.501,-1,4
203,3.60092,3.509,-1,4
204,3.60443,3.515,-1,4
205,3.60796,3.527,-1,4
206,3.61504,3.548,-1,4
207,3.61860,3.557,-1,4
208,3.62217,3.567,-1,4
209,3.62574,3.573,-1,4
210,3.62933,3.587,-1,4
211,3.63292,3.596,-1,4
212,3.63653,3.606,-1,4
213,3.64014,3.611,-1,4
214,3.64376,3.619,-1,4
215,3.64739,3.630,-1,4
216,3.65103,3.637,-1,4
217,3.65467,3.643,-1,4
218,3.65832,3.650,-1,4
219,3.66198,3.659,-1,4
220,3.66564,3.663,-1,4
221,3.66931,3.672,-1,4
222,3.67299,3.679,-1,4
223,3.67668,3.684,-1,4
224,3.68037,3.689,-1,4
225,3.68407,3.701,-1,4
226,3.68777,3.700,-1,4
227,3.69519,3.713,-1,4
228,3.69891,3.720,-1,4
229,3.70263,3.724,-1,4
230,3.70636,3.726,-1,4
231,3.71009,3.730,-1,4
232,3.71382,3.737,-1,4
233,3.71756,3.738,-1,4
234,3.72130,3.739,-1,4
235,3.72504,3.742,-1,4
236,3.73252,3.741,-1,4
237,3.73627,3.743,-1,4
238,3.74001,3.741,-1,4
239,3.74375,3.744,-1,4
240,3.74749,3.738,-1,4
241,3.75123,3.738,-1,4
242,3.75496,3.737,-1,4
243,3.75870,3.734,-1,4
244,3.76243,3.733,-1,4
245,3.76616,3.726,-1,4
246,3.76988,3.721,-1,4
247,3.77360,3.719,-1,4
248,3.77732,3.719,-1,4
249,3.78103,3.711,-1,4
250,3.78474,3.704,-1,4
251,3.78844,3.704,-1,4
252,3.79214,3.696,-1,4
253,3.79583,3.690,-1,4
254,3.80320,3.678,-1,4
255,3.80687,3.673,-1,4
256,3.81054,3.670,-1,4
257,3.81420,3.662,-1,4
258,3.81786,3.656,-1,4
259,3.82151,3.647,-1,4
260,3.82515,3.643,-1,4
261,3.82879,3.634,-1,4
262,3.83241,3.627,-1,4
263,3.83603,3.621,-1,4
264,3.83964,3.602,-1,4
265,3.84684,3.595,-1,4
266,3.85043,3.588,-1,4
267,3.85401,3.581,-1,4
268,3.85758,3.573,-1,4
269,3.86115,3.564,-1,4
270,3.86470,3.554,-1,4
271,3.86825,3.547,-1,4
272,3.87179,3.541,-1,4
273,3.87532,3.531,-1,4
274,3.88236,3.516,-1,4
275,3.88587,3.510,-1,4
276,3.88937,3.501,-1,4
277,3.89287,3.494,-1,4
278,3.89635,3.484,-1,4
279,3.89983,3.480,-1,4
280,3.90330,3.471,-1,4
281,3.90676,3.460,-1,4
282,3.91022,3.457,-1,4
283,3.91367,3.450,-1,4
284,3.91711,3.442,-1,4
285,3.92054,3.431,-1,4
286,3.92397,3.426,-1,4
287,3.92739,3.419,-1,4
288,3.93080,3.413,-1,4
289,3.93420,3.404,-1,4
290,3.93760,3.397,-1,4
291,3.94099,3.390,-1,4
292,3.94438,3.386,-1,4
293,3.95113,3.372,-1,4
294,3.95449,3.363,-1,4
295,3.95785,3.358,-1,4
296,3.96120,3.354,-1,4
297,3.96455,3.347,-1,4
298,3.96789,3.342,-1,4
299,3.97123,3.335,-1,4
300,3.97456,3.329,-1,4
301,3.97788,3.323,-1,4
302,3.98120,3.317,-1,4
303,3.98781,3.306,-1,4
304,3.99111,3.300,-1,4
305,3.99441,3.298,-1,4
306,3.99770,3.290,-1,4
307,4.00099,3.285,-1,4
308,4.00426,3.279,-1,4
309,4.00754,3.277,-1,4
310,4.01081,3.272,-1,4
311,4.01408,3.267,-1,4
312,4.01734,3.260,-1,4
313,4.02059,3.255,-1,4
314,4.02385,3.253,-1,4
315,4.02710,3.252,-1,4
316,4.03034,3.245,-1,4
317,4.03358,3.237,-1,4
318,4.03681,3.234,-1,4
319,4.04005,3.233,-1,4
320,4.04327,3.228,-1,4
321,4.04649,3.218,-1,4
322,4.05293,3.215,-1,4
323,4.05614,3.210,-1,4
324,4.05935,3.209,-1,4
325,4.06255,3.201,-1,4
326,4.06574,3.194,-1,4
327,4.06894,3.195,-1,4
328,4.07213,3.194,-1,4
329,4.07532,3.188,-1,4
330,4.07850,3.183,-1,4
331,4.08168,3.180,-1,4
332,4.08486,3.178,-1,4
333,4.09121,3.172,-1,4
334,4.09438,3.171,-1,4
335,4.09755,3.167,-1,4
336,4.10072,3.169,-1,4
337,4.10388,3.165,-1,4
338,4.10705,3.164,-1,4
339,4.11021,3.161,-1,4
340,4.11336,3.155,-1,4
341,4.11652,3.159,-1,4
342,4.11968,3.155,-1,4
343,4.12283,3.154,-1,4
344,4.12598,3.149,-1,4
345,4.12913,3.146,-1,4
346,4.13227,3.146,-1,4
347,4.13542,3.146,-1,4
348,4.13856,3.143,-1,4
349,4.14170,3.138,-1,4
350,4.14483,3.134,-1,4
351,4.14797,3.133,-1,4
352,4.15110,3.130,-1,4
353,4.15422,3.128,-1,4
354,4.16047,3.120,-1,4
355,4.16047,3.120,-1,4
356,4.16359,3.118,-1,4
357,4.16671,3.118,-1,4
358,4.17293,3.110,-1,4
359,4.17293,3.109,-1,4
360,4.17915,3.105,-1,4
361,4.18225,3.101,-1,4
362,4.18535,3.099,-1,4
363,4.18844,3.095,-1,4
364,4.19463,3.090,-1,4
365,4.19771,3.086,-1,4
366,4.20080,3.084,-1,4
367,4.20387,3.078,-1,4
368,4.20695,3.075,-1,4
369,4.21002,3.076,-1,4
370,4.21310,3.071,-1,4
371,4.21616,3.067,-1,4
372,4.21923,3.065,-1,4
373,4.22229,3.059,-1,4
374,4.22535,3.058,-1,4
375,4.22841,3.058,-1,4
376,4.23146,3.053,-1,4
377,4.23451,3.053,-1,4
378,4.23756,3.049,-1,4
379,4.24061,3.048,-1,4
380,4.24366,3.046,-1,4
381,4.24973,3.040,-1,4
382,4.25277,3.037,-1,4
383,4.25581,3.036,-1,4
384,4.25884,3.034,-1,4
385,4.26187,3.029,-1,4
386,4.26490,3.025,-1,4
387,4.26792,3.025,-1,4
388,4.27094,3.024,-1,4
389,4.27397,3.022,-1,4
390,4.27698,3.016,-1,4
391,4.28000,3.013,-1,4
392,4.28301,3.014,-1,4
393,4.28602,3.011,-1,4
394,4.28903,3.005,-1,4
395,4.29204,3.006,-1,4
396,4.29504,3.003,-1,4
397,4.30105,3.001,-1,4
398,4.30405,3.005,-1,4
399,4.30705,3.000,-1,4
400,4.31005,2.998,-1,4
401,4.31305,2.999,-1,4
402,4.31605,2.996,-1,4
403,4.32204,2.995,-1,4
404,4.32503,2.993,-1,4
405,4.32503,2.993,-1,4
406,4.32802,2.992,-1,4
407,4.33101,2.992,-1,4
408,4.33401,2.993,-1,4
409,4.33700,2.992,-1,4
410,4.33999,2.988,-1,4
411,4.34298,2.991,-1,4
412,4.34896,2.988,-1,4
413,4.35195,2.994,-1,4
414,4.35494,2.989,-1,4
415,4.35793,2.987,-1,4
416,4.36092,2.994,-1,4
417,4.36392,2.994,-1,4
418,4.36691,2.995,-1,4
419,4.36991,2.997,-1,4
420,4.37290,2.995,-1,4
421,4.37590,2.998,-1,4
422,4.37890,3.007,-1,4
423,4.38191,3.007,-1,4
424,4.38792,3.009,-1,4
425,4.39094,3.013,-1,4
426,4.39395,3.017,-1,4
427,4.39698,3.023,-1,4
428,4.40000,3.027,-1,4
429,4.40303,3.028,-1,4
430,4.40606,3.031,-1,4
431,4.40910,3.040,-1,4
432,4.41215,3.046,-1,4
433,4.41520,3.051,-1,4
434,4.41825,3.054,-1,4
435,4.42131,3.060,-1,4
436,4.42438,3.067,-1,4
437,4.42745,3.076,-1,4
438,4.43054,3.082,-1,4
439,4.43362,3.097,-1,4
440,4.43982,3.105,-1,4
441,4.44293,3.112,-1,4
442,4.44606,3.122,-1,4
443,4.44919,3.131,-1,4
444,4.45232,3.138,-1,4
445,4.45548,3.151,-1,4
446,4.45864,3.161,-1,4
447,4.46181,3.171,-1,4
448,4.46499,3.181,-1,4
449,4.46818,3.192,-1,4
450,4.47139,3.204,-1,4
451,4.47460,3.217,-1,4
452,4.47783,3.230,-1,4
453,4.48107,3.238,-1,4
454,4.48432,3.255,-1,4
455,4.48759,3.270,-1,4
456,4.49087,3.280,-1,4
457,4.49417,3.297,-1,4
458,4.49748,3.313,-1,4
459,4.50081,3.328,-1,4
460,4.50752,3.364,-1,4
461,4.51090,3.381,-1,4
462,4.51430,3.397,-1,4
463,4.51772,3.414,-1,4
464,4.52115,3.430,-1,4
465,4.52460,3.454,-1,4
466,4.52807,3.465,-1,4
467,4.53155,3.487,-1,4
468,4.53506,3.506,-1,4
469,4.53858,3.523,-1,4
470,4.54213,3.548,-1,4
471,4.54928,3.584,-1,4
472,4.55288,3.602,-1,4
473,4.55651,3.625,-1,4
474,4.56015,3.645,-1,4
475,4.56382,3.665,-1,4
476,4.56750,3.680,-1,4
477,4.57120,3.703,-1,4
478,4.57492,3.722,-1,4
479,4.57867,3.746,-1,4
480,4.58243,3.763,-1,4
481,4.58621,3.785,-1,4
482,4.59002,3.806,-1,4
483,4.59384,3.823,-1,4
484,4.59769,3.846,-1,4
485,4.60156,3.866,-1,4
486,4.60544,3.884,-1,4
487,4.60934,3.903,-1,4
488,4.61326,3.923,-1,4
489,4.61720,3.938,-1,4
490,4.62116,3.978,-1,4
491,4.62914,3.996,-1,4
492,4.63315,4.011,-1,4
493,4.63718,4.029,-1,4
494,4.64122,4.045,-1,4
495,4.64529,4.065,-1,4
496,4.64936,4.077,-1,4
497,4.65346,4.094,-1,4
498,4.65756,4.107,-1,4
499,4.66582,4.140,-1,4
500,4.66998,4.152,-1,4
501,4.67414,4.163,-1,4
502,4.67831,4.173,-1,4
503,4.68250,4.190,-1,4
504,4.68670,4.199,-1,4
505,4.69091,4.208,-1,4
506,4.69513,4.218,-1,4
507,4.69936,4.229,-1,4
508,4.70359,4.237,-1,4
509,4.71209,4.252,-1,4
510,4.71209,4.256,-1,4
511,4.71635,4.267,-1,4
512,4.72062,4.267,-1,4
513,4.72489,4.273,-1,4
514,4.72917,4.279,-1,4
515,4.73345,4.280,-1,4
516,4.73774,4.290,-1,4
517,4.74203,4.296,-1,4
518,4.75062,4.294,-1,4
519,4.75492,4.300,-1,4
520,4.75922,4.301,-1,4
521,4.76352,4.304,-1,4
522,4.76783,4.304,-1,4
523,4.77213,4.302,-1,4
524,4.77643,4.304,-1,4
525,4.78074,4.304,-1,4
526,4.78504,4.302,-1,4
527,4.78934,4.300,-1,4
528,4.79364,4.298,-1,4
529,4.80223,4.294,-1,4
530,4.80653,4.293,-1,4
531,4.81081,4.288,-1,4
532,4.81510,4.290,-1,4
533,4.81939,4.282,-1,4
534,4.82366,4.278,-1,4
535,4.82794,4.273,-1,4
536,4.83220,4.268,-1,4
537,4.83647,4.261,-1,4
538,4.84072,4.257,-1,4
539,4.84497,4.251,-1,4
540,4.84922,4.244,-1,4
541,4.85346,4.238,-1,4
542,4.85768,4.226,-1,4
543,4.86190,4.213,-1,4
544,4.86612,4.208,-1,4
545,4.87032,4.199,-1,4
546,4.87452,4.191,-1,4
547,4.88290,4.185,-1,4
548,4.88708,4.177,-1,4
549,4.89124,4.166,-1,4
550,4.89540,4.157,-1,4
551,4.89955,4.150,-1,4
552,4.90369,4.141,-1,4
553,4.90782,4.132,-1,4
554,4.91194,4.121,-1,4
555,4.91605,4.109,-1,4
556,4.92015,4.100,-1,4
557,4.92424,4.091,-1,4
558,4.92833,4.083,-1,4
559,4.93240,4.074,-1,4
560,4.93646,4.061,-1,4
561,4.94051,4.048,-1,4
562,4.94455,4.042,-1,4
563,4.94858,4.032,-1,4
564,4.95261,4.022,-1,4
565,4.95662,4.011,-1,4
566,4.96062,4.001,-1,4
567,4.96460,3.986,-1,4
568,4.96858,3.980,-1,4
569,4.97255,3.956,-1,4
570,4.98045,3.943,-1,4
571,4.98045,3.931,-1,4
572,4.98438,3.920,-1,4
573,4.98830,3.910,-1,4
574,4.99221,3.910,-1,4
575,4.99611,3.897,-1,4
576,4.99999,3.885,-1,4
577,5.00772,3.860,-1,4
578,5.01158,3.853,-1,4
579,5.01542,3.843,-1,4
580,5.01925,3.827,-1,4
581,5.02306,3.815,-1,4
582,5.02687,3.806,-1,4
583,5.03066,3.791,-1,4
584,5.03444,3.782,-1,4
585,5.03821,3.767,-1,4
586,5.04196,3.754,-1,4
587,5.04570,3.739,-1,4
588,5.04943,3.727,-1,4
589,5.05683,3.696,-1,4
590,5.06052,3.685,-1,4
591,5.06419,3.672,-1,4
592,5.06785,3.661,-1,4
593,5.07150,3.649,-1,4
594,5.07514,3.640,-1,4
595,5.07877,3.628,-1,4
596,5.08238,3.614,-1,4
597,5.08599,3.602,-1,4
598,5.08958,3.594,-1,4
599,5.09315,3.577,-1,4
600,5.09672,3.565,-1,4
601,5.10027,3.550,-1,4
602,5.10381,3.540,-1,4
603,5.10734,3.529,-1,4
604,5.11085,3.516,-1,4
605,5.11435,3.500,-1,4
606,5.11784,3.486,-1,4
607,5.12132,3.478,-1,4
608,5.12824,3.452,-1,4
609,5.13167,3.436,-1,4
610,5.13510,3.427,-1,4
611,5.13851,3.414,-1,4
612,5.14192,3.403,-1,4
613,5.14531,3.391,-1,4
614,5.14868,3.376,-1,4
615,5.15205,3.362,-1,4
616,5.15540,3.356,-1,4
617,5.15875,3.344,-1,4
618,5.16540,3.320,-1,4
619,5.16871,3.309,-1,4
620,5.17201,3.298,-1,4
621,5.17530,3.289,-1,4
622,5.17857,3.276,-1,4
623,5.18184,3.270,-1,4
624,5.18510,3.259,-1,4
625,5.18835,3.247,-1,4
626,5.19159,3.239,-1,4
627,5.19482,3.231,-1,4
628,5.19804,3.219,-1,4
629,5.20125,3.211,-1,4
630,5.20445,3.204,-1,4
631,5.20765,3.196,-1,4
632,5.21084,3.189,-1,4
633,5.21402,3.182,-1,4
634,5.21720,3.176,-1,4
635,5.22037,3.170,-1,4
636,5.22353,3.164,-1,4
637,5.22669,3.154,-1,4
638,5.23299,3.148,-1,4
639,5.23613,3.142,-1,4
640,5.23927,3.143,-1,4
641,5.24241,3.138,-1,4
642,5.24555,3.134,-1,4
643,5.24868,3.129,-1,4
644,5.25180,3.128,-1,4
645,5.25493,3.124,-1,4
646,5.25805,3.123,-1,4
647,5.26429,3.121,-1,4
648,5.26741,3.118,-1,4
649,5.27053,3.118,-1,4
650,5.27365,3.120,-1,4
651,5.27677,3.123,-1,4
652,5.27989,3.121,-1,4
653,5.28302,3.124,-1,4
654,5.28614,3.126,-1,4
655,5.28927,3.127,-1,4
656,5.29241,3.137,-1,4
657,5.29555,3.140,-1,4
658,5.29869,3.139,-1,4
659,5.30183,3.145,-1,4
660,5.30498,3.153,-1,4
661,5.30814,3.159,-1,4
662,5.31131,3.165,-1,4
663,5.31448,3.169,-1,4
664,5.31766,3.178,-1,4
665,5.32084,3.195,-1,4
666,5.32724,3.202,-1,4
667,5.33044,3.207,-1,4
668,5.33366,3.219,-1,4
669,5.33689,3.227,-1,4
670,5.34013,3.238,-1,4
671,5.34338,3.251,-1,4
672,5.34663,3.255,-1,4
673,5.34990,3.266,-1,4
674,5.35318,3.280,-1,4
675,5.35647,3.291,-1,4
676,5.35977,3.304,-1,4
677,5.36308,3.326,-1,4
678,5.36975,3.342,-1,4
679,5.37311,3.358,-1,4
680,5.37648,3.368,-1,4
681,5.37986,3.383,-1,4
682,5.38326,3.400,-1,4
683,5.38667,3.413,-1,4
684,5.39011,3.431,-1,4
685,5.39355,3.442,-1,4
686,5.39700,3.453,-1,4
687,5.40047,3.468,-1,4
688,5.40395,3.482,-1,4
689,5.40745,3.500,-1,4
690,5.41097,3.518,-1,4
691,5.41450,3.533,-1,4
692,5.41805,3.551,-1,4
693,5.42162,3.569,-1,4
694,5.42521,3.589,-1,4
695,5.42882,3.621,-1,4
696,5.43608,3.640,-1,4
697,5.43974,3.660,-1,4
698,5.44342,3.679,-1,4
699,5.44712,3.698,-1,4
700,5.45083,3.712,-1,4
701,5.45456,3.737,-1,4
702,5.45832,3.752,-1,4
703,5.46209,3.772,-1,4
704,5.46588,3.791,-1,4
705,5.47352,3.828,-1,4
706,5.47736,3.846,-1,4
707,5.48123,3.864,-1,4
708,5.48511,3.881,-1,4
709,5.48901,3.900,-1,4
710,5.49293,3.920,-1,4
711,5.49687,3.939,-1,4
712,5.50082,3.955,-1,4
713,5.50479,3.974,-1,4
714,5.50878,3.987,-1,4
715,5.51279,4.012,-1,4
716,5.51682,4.026,-1,4
717,5.52086,4.043,-1,4
718,5.52492,4.060,-1,4
719,5.52900,4.079,-1,4
720,5.53310,4.095,-1,4
721,5.53721,4.111,-1,4
722,5.54134,4.129,-1,4
723,5.54548,4.144,-1,4
724,5.54965,4.163,-1,4
725,5.55383,4.181,-1,4
726,5.56223,4.209,-1,4
727,5.56646,4.226,-1,4
728,5.57070,4.245,-1,4
729,5.57497,4.263,-1,4
730,5.57924,4.275,-1,4
731,5.58353,4.293,-1,4
732,5.58784,4.309,-1,4
733,5.59216,4.322,-1,4
734,5.59651,4.356,-1,4
735,5.60523,4.370,-1,4
736,5.60962,4.386,-1,4
737,5.61402,4.402,-1,4
738,5.61844,4.414,-1,4
739,5.62286,4.428,-1,4
740,5.62731,4.446,-1,4
741,5.63177,4.462,-1,4
742,5.63625,4.473,-1,4
743,5.64073,4.486,-1,4
744,5.64523,4.501,-1,4
745,5.64975,4.519,-1,4
746,5.65428,4.531,-1,4
747,5.65883,4.545,-1,4
748,5.66338,4.556,-1,4
749,5.66795,4.569,-1,4
750,5.67253,4.584,-1,4
751,5.67713,4.598,-1,4
752,5.68174,4.603,-1,4
753,5.68635,4.612,-1,4
754,5.69097,4.628,-1,4
755,5.69561,4.636,-1,4
756,5.70026,4.645,-1,4
757,5.70491,4.650,-1,4
758,5.70957,4.662,-1,4
759,5.71424,4.667,-1,4
760,5.71891,4.678,-1,4
761,5.72360,4.684,-1,4
762,5.72829,4.693,-1,4
763,5.73299,4.696,-1,4
764,5.73769,4.707,-1,4
765,5.74711,4.713,-1,4
766,5.75182,4.716,-1,4
767,5.75654,4.719,-1,4
768,5.76127,4.723,-1,4
769,5.76599,4.723,-1,4
770,5.77071,4.725,-1,4
771,5.77544,4.726,-1,4
772,5.78017,4.731,-1,4
773,5.78490,4.731,-1,4
774,5.78964,4.729,-1,4
775,5.79910,4.732,-1,4
776,5.80383,4.732,-1,4
777,5.80856,4.734,-1,4
778,5.81329,4.730,-1,4
779,5.81802,4.725,-1,4
780,5.82274,4.721,-1,4
781,5.82745,4.717,-1,4
782,5.83217,4.719,-1,4
783,5.83689,4.716,-1,4
784,5.84160,4.708,-1,4
785,5.84630,4.700,-1,4
786,5.85099,4.697,-1,4
787,5.85568,4.691,-1,4
788,5.86037,4.689,-1,4
789,5.86506,4.683,-1,4
790,5.86974,4.678,-1,4
791,5.87440,4.666,-1,4
792,5.87906,4.661,-1,4
793,5.88372,4.657,-1,4
794,5.88837,4.650,-1,4
795,5.89301,4.639,-1,4
796,5.89763,4.626,-1,4
797,5.90225,4.619,-1,4
798,5.90687,4.615,-1,4
799,5.91147,4.603,-1,4
800,5.92065,4.585,-1,4
801,5.92065,4.571,-1,4
802,5.92978,4.564,-1,4
803,5.93433,4.552,-1,4
804,5.93888,4.547,-1,4
805,5.94341,4.529,-1,4
806,5.94793,4.521,-1,4
807,5.95244,4.507,-1,4
808,5.95694,4.501,-1,4
809,5.96143,4.489,-1,4
810,5.96590,4.476,-1,4
811,5.97036,4.460,-1,4
812,5.97481,4.448,-1,4
813,5.97925,4.442,-1,4
814,5.98810,4.414,-1,4
815,5.99250,4.399,-1,4
816,5.99689,4.391,-1,4
817,6.00127,4.382,-1,4
818,6.00564,4.370,-1,4
819,6.01000,4.357,-1,4
820,6.01434,4.342,-1,4
821,6.01867,4.331,-1,4
822,6.02299,4.319,-1,4
823,6.02730,4.307,-1,4
824,6.03159,4.295,-1,4
825,6.03587,4.280,-1,4
826,6.04014,4.268,-1,4
827,6.04439,4.251,-1,4
828,6.04863,4.239,-1,4
829,6.05286,4.229,-1,4
830,6.05708,4.217,-1,4
831,6.06128,4.201,-1,4
832,6.06546,4.187,-1,4
833,6.06964,4.177,-1,4
834,6.07380,4.162,-1,4
835,6.08209,4.137,-1,4
836,6.08621,4.124,-1,4
837,6.09032,4.108,-1,4
838,6.09442,4.097,-1,4
839,6.09850,4.082,-1,4
840,6.10257,4.066,-1,4
841,6.10662,4.048,-1,4
842,6.11065,4.035,-1,4
843,6.11468,4.025,-1,4
844,6.11869,4.014,-1,4
845,6.12269,3.998,-1,4
846,6.12667,3.984,-1,4
847,6.13064,3.972,-1,4
848,6.13461,3.962,-1,4
849,6.13856,3.949,-1,4
850,6.14249,3.939,-1,4
851,6.14642,3.928,-1,4
852,6.15034,3.900,-1,4
853,6.15812,3.887,-1,4
854,6.16200,3.878,-1,4
855,6.16587,3.868,-1,4
856,6.16972,3.855,-1,4
857,6.17356,3.841,-1,4
858,6.17739,3.829,-1,4
859,6.18121,3.818,-1,4
860,6.18502,3.805,-1,4
861,6.18881,3.797,-1,4
862,6.19260,3.787,-1,4
863,6.19637,3.769,-1,4
864,6.20013,3.762,-1,4
865,6.20388,3.752,-1,4
866,6.20762,3.740,-1,4
867,6.21135,3.731,-1,4
868,6.21507,3.717,-1,4
869,6.21878,3.711,-1,4
870,6.22248,3.701,-1,4
871,6.22617,3.689,-1,4
872,6.22985,3.682,-1,4
873,6.23352,3.669,-1,4
