cnt,pos,speed,Dir,Force,
2,-3.21181,1.005,-1,4
3,-3.21281,1.002,-1,4
4,-3.21481,1.000,-1,4
5,-3.21582,1.009,-1,4
6,-3.21683,1.014,-1,4
7,-3.21785,1.015,-1,4
8,-3.21886,1.011,-1,4
9,-3.21987,1.014,-1,4
10,-3.22090,1.024,-1,4
11,-3.22192,1.024,-1,4
12,-3.22396,1.025,-1,4
13,-3.22500,1.030,-1,4
14,-3.22603,1.034,-1,4
15,-3.22706,1.033,-1,4
16,-3.22809,1.032,-1,4
17,-3.22913,1.037,-1,4
18,-3.23017,1.040,-1,4
19,-3.23121,1.041,-1,4
20,-3.23225,1.040,-1,4
21,-3.23330,1.042,-1,4
22,-3.23434,1.048,-1,4
23,-3.23540,1.054,-1,4
24,-3.23645,1.049,-1,4
25,-3.23750,1.049,-1,4
26,-3.23855,1.050,-1,4
27,-3.23960,1.054,-1,4
28,-3.24066,1.057,-1,4
29,-3.24171,1.057,-1,4
30,-3.24277,1.059,-1,4
31,-3.24384,1.065,-1,4
32,-3.24490,1.067,-1,4
33,-3.24597,1.063,-1,4
34,-3.24703,1.060,-1,4
35,-3.24809,1.064,-1,4
36,-3.24916,1.068,-1,4
37,-3.25023,1.071,-1,4
38,-3.25130,1.072,-1,4
39,-3.25237,1.075,-1,4
40,-3.25345,1.081,-1,4
41,-3.25454,1.080,-1,4
42,-3.25561,1.075,-1,4
43,-3.25669,1.077,-1,4
44,-3.25777,1.083,-1,4
45,-3.25886,1.090,-1,4
46,-3.25995,1.090,-1,4
47,-3.26104,1.088,-1,4
48,-3.26213,1.091,-1,4
49,-3.26322,1.095,-1,4
50,-3.26432,1.098,-1,4
51,-3.26542,1.098,-1,4
52,-3.26652,1.101,-1,4
53,-3.26763,1.106,-1,4
54,-3.26873,1.105,-1,4
55,-3.26983,1.102,-1,4
56,-3.27094,1.106,-1,4
57,-3.27205,1.113,-1,4
58,-3.27317,1.120,-1,4
59,-3.27429,1.117,-1,4
60,-3.27540,1.114,-1,4
61,-3.27652,1.118,-1,4
62,-3.27764,1.122,-1,4
63,-3.27877,1.122,-1,4
64,-3.27989,1.124,-1,4
65,-3.28102,1.129,-1,4
66,-3.28216,1.136,-1,4
67,-3.28442,1.130,-1,4
68,-3.28555,1.132,-1,4
69,-3.28669,1.138,-1,4
70,-3.28783,1.145,-1,4
71,-3.28898,1.144,-1,4
72,-3.29013,1.148,-1,4
73,-3.29128,1.156,-1,4
74,-3.29244,1.155,-1,4
75,-3.29359,1.151,-1,4
76,-3.29474,1.155,-1,4
77,-3.29591,1.162,-1,4
78,-3.29707,1.169,-1,4
79,-3.29824,1.167,-1,4
80,-3.29941,1.171,-1,4
81,-3.30059,1.178,-1,4
82,-3.30177,1.180,-1,4
83,-3.30295,1.177,-1,4
84,-3.30413,1.181,-1,4
85,-3.30532,1.190,-1,4
86,-3.30651,1.194,-1,4
87,-3.30771,1.195,-1,4
88,-3.30890,1.198,-1,4
89,-3.31011,1.202,-1,4
90,-3.31131,1.205,-1,4
91,-3.31252,1.207,-1,4
92,-3.31373,1.210,-1,4
93,-3.31495,1.223,-1,4
94,-3.31618,1.223,-1,4
95,-3.31740,1.222,-1,4
96,-3.31862,1.225,-1,4
97,-3.31986,1.234,-1,4
98,-3.32110,1.242,-1,4
99,-3.32234,1.241,-1,4
100,-3.32359,1.247,-1,4
101,-3.32483,1.248,-1,4
102,-3.32608,1.250,-1,4
103,-3.32734,1.254,-1,4
104,-3.32860,1.267,-1,4
105,-3.32988,1.275,-1,4
106,-3.33115,1.270,-1,4
107,-3.33242,1.270,-1,4
108,-3.33369,1.274,-1,4
109,-3.33498,1.286,-1,4
110,-3.33627,1.294,-1,4
111,-3.33757,1.297,-1,4
112,-3.33887,1.301,-1,4
113,-3.34017,1.299,-1,4
114,-3.34147,1.301,-1,4
115,-3.34278,1.312,-1,4
116,-3.34411,1.324,-1,4
117,-3.34543,1.327,-1,4
118,-3.34676,1.327,-1,4
119,-3.34809,1.330,-1,4
120,-3.34943,1.336,-1,4
121,-3.35077,1.341,-1,4
122,-3.35212,1.352,-1,4
123,-3.35348,1.360,-1,4
124,-3.35484,1.360,-1,4
125,-3.35620,1.359,-1,4
126,-3.35757,1.373,-1,4
127,-3.36031,1.373,-1,4
128,-3.36169,1.376,-1,4
129,-3.36307,1.380,-1,4
130,-3.36445,1.380,-1,4
131,-3.36584,1.387,-1,4
132,-3.36723,1.396,-1,4
133,-3.36863,1.402,-1,4
134,-3.37004,1.403,-1,4
135,-3.37144,1.407,-1,4
136,-3.37286,1.413,-1,4
137,-3.37428,1.420,-1,4
138,-3.37571,1.434,-1,4
139,-3.37715,1.444,-1,4
140,-3.37860,1.442,-1,4
141,-3.38004,1.442,-1,4
142,-3.38149,1.454,-1,4
143,-3.38296,1.468,-1,4
144,-3.38444,1.477,-1,4
145,-3.38593,1.489,-1,4
146,-3.38741,1.484,-1,4
147,-3.38889,1.484,-1,4
148,-3.39039,1.494,-1,4
149,-3.39189,1.505,-1,4
150,-3.39341,1.514,-1,4
151,-3.39492,1.516,-1,4
152,-3.39644,1.520,-1,4
153,-3.39796,1.521,-1,4
154,-3.39950,1.539,-1,4
155,-3.40105,1.553,-1,4
156,-3.40261,1.556,-1,4
157,-3.40417,1.557,-1,4
158,-3.40573,1.562,-1,4
159,-3.40731,1.578,-1,4
160,-3.40890,1.598,-1,4
161,-3.41051,1.603,-1,4
162,-3.41211,1.599,-1,4
163,-3.41371,1.603,-1,4
164,-3.41534,1.626,-1,4
165,-3.41698,1.641,-1,4
166,-3.41862,1.646,-1,4
167,-3.42026,1.641,-1,4
168,-3.42191,1.647,-1,4
169,-3.42358,1.672,-1,4
170,-3.42527,1.690,-1,4
171,-3.42696,1.687,-1,4
172,-3.42864,1.684,-1,4
173,-3.43034,1.696,-1,4
174,-3.43206,1.723,-1,4
175,-3.43380,1.741,-1,4
176,-3.43554,1.733,-1,4
177,-3.43727,1.730,-1,4
178,-3.43901,1.745,-1,4
179,-3.44078,1.772,-1,4
180,-3.44257,1.791,-1,4
181,-3.44435,1.780,-1,4
182,-3.44613,1.776,-1,4
183,-3.44792,1.821,-1,4
184,-3.44974,1.830,-1,4
185,-3.45339,1.822,-1,4
186,-3.45521,1.819,-1,4
187,-3.45706,1.842,-1,4
188,-3.45892,1.864,-1,4
189,-3.46079,1.872,-1,4
190,-3.46266,1.865,-1,4
191,-3.46452,1.867,-1,4
192,-3.46641,1.885,-1,4
193,-3.46831,1.901,-1,4
194,-3.47022,1.912,-1,4
195,-3.47214,1.915,-1,4
196,-3.47405,1.914,-1,4
197,-3.47597,1.922,-1,4
198,-3.47791,1.941,-1,4
199,-3.47987,1.957,-1,4
200,-3.48183,1.960,-1,4
201,-3.48378,1.954,-1,4
202,-3.48575,1.964,-1,4
203,-3.48773,1.985,-1,4
204,-3.48974,2.005,-1,4
205,-3.49174,2.003,-1,4
206,-3.49374,1.996,-1,4
207,-3.49575,2.009,-1,4
208,-3.49778,2.031,-1,4
209,-3.49982,2.044,-1,4
210,-3.50186,2.042,-1,4
211,-3.50391,2.042,-1,4
212,-3.50596,2.050,-1,4
213,-3.50803,2.070,-1,4
214,-3.51011,2.080,-1,4
215,-3.51219,2.083,-1,4
216,-3.51427,2.080,-1,4
217,-3.51636,2.087,-1,4
218,-3.51847,2.109,-1,4
219,-3.52059,2.122,-1,4
220,-3.52271,2.123,-1,4
221,-3.52483,2.119,-1,4
222,-3.52696,2.129,-1,4
223,-3.52911,2.150,-1,4
224,-3.53127,2.161,-1,4
225,-3.53343,2.162,-1,4
226,-3.53559,2.163,-1,4
227,-3.53777,2.177,-1,4
228,-3.53996,2.187,-1,4
229,-3.54216,2.202,-1,4
230,-3.54437,2.206,-1,4
231,-3.54658,2.209,-1,4
232,-3.54879,2.216,-1,4
233,-3.55102,2.232,-1,4
234,-3.55551,2.245,-1,4
235,-3.55776,2.248,-1,4
236,-3.56002,2.256,-1,4
237,-3.56228,2.266,-1,4
238,-3.56456,2.275,-1,4
239,-3.56684,2.289,-1,4
240,-3.57142,2.290,-1,4
241,-3.57372,2.300,-1,4
242,-3.57604,2.316,-1,4
243,-3.57836,2.322,-1,4
244,-3.58068,2.322,-1,4
245,-3.58535,2.339,-1,4
246,-3.58769,2.347,-1,4
247,-3.59005,2.356,-1,4
248,-3.59241,2.355,-1,4
249,-3.59477,2.360,-1,4
250,-3.59951,2.378,-1,4
251,-3.60190,2.386,-1,4
252,-3.60429,2.388,-1,4
253,-3.60908,2.401,-1,4
254,-3.61149,2.405,-1,4
255,-3.61391,2.417,-1,4
256,-3.61633,2.422,-1,4
257,-3.61875,2.422,-1,4
258,-3.62118,2.429,-1,4
259,-3.62606,2.441,-1,4
260,-3.63096,2.453,-1,4
261,-3.63096,2.456,-1,4
262,-3.63341,2.456,-1,4
263,-3.63587,2.462,-1,4
264,-3.63834,2.467,-1,4
265,-3.64081,2.468,-1,4
266,-3.64328,2.471,-1,4
267,-3.64576,2.479,-1,4
268,-3.65072,2.483,-1,4
269,-3.65321,2.487,-1,4
270,-3.65820,2.492,-1,4
271,-3.66069,2.497,-1,4
272,-3.66319,2.500,-1,4
273,-3.66569,2.498,-1,4
274,-3.66819,2.498,-1,4
275,-3.67070,2.508,-1,4
276,-3.67571,2.504,-1,4
277,-3.67821,2.507,-1,4
278,-3.68324,2.512,-1,4
279,-3.68324,2.514,-1,4
280,-3.68575,2.514,-1,4
281,-3.68827,2.514,-1,4
282,-3.69078,2.513,-1,4
283,-3.69330,2.518,-1,4
284,-3.69833,2.517,-1,4
285,-3.70085,2.516,-1,4
286,-3.70588,2.516,-1,4
287,-3.70840,2.520,-1,4
288,-3.71343,2.514,-1,4
289,-3.71595,2.516,-1,4
290,-3.71847,2.519,-1,4
291,-3.72099,2.516,-1,4
292,-3.72350,2.510,-1,4
293,-3.72601,2.514,-1,4
294,-3.73103,2.511,-1,4
295,-3.73354,2.510,-1,4
296,-3.73855,2.504,-1,4
297,-3.74106,2.504,-1,4
298,-3.74356,2.502,-1,4
299,-3.74606,2.498,-1,4
300,-3.74856,2.499,-1,4
301,-3.75354,2.492,-1,4
302,-3.75604,2.494,-1,4
303,-3.75853,2.490,-1,4
304,-3.76101,2.482,-1,4
305,-3.76349,2.484,-1,4
306,-3.76597,2.483,-1,4
307,-3.76845,2.478,-1,4
308,-3.77093,2.474,-1,4
309,-3.77340,2.474,-1,4
310,-3.77834,2.470,-1,4
311,-3.78081,2.466,-1,4
312,-3.78572,2.457,-1,4
313,-3.78818,2.455,-1,4
314,-3.79063,2.451,-1,4
315,-3.79308,2.451,-1,4
316,-3.79553,2.450,-1,4
317,-3.79797,2.442,-1,4
318,-3.80285,2.439,-1,4
319,-3.80528,2.433,-1,4
320,-3.80771,2.429,-1,4
321,-3.81014,2.428,-1,4
322,-3.81257,2.428,-1,4
323,-3.81499,2.421,-1,4
324,-3.81741,2.416,-1,4
325,-3.81982,2.416,-1,4
326,-3.82465,2.409,-1,4
327,-3.82705,2.404,-1,4
328,-3.82945,2.404,-1,4
329,-3.83186,2.402,-1,4
330,-3.83425,2.398,-1,4
331,-3.83665,2.395,-1,4
332,-3.83904,2.395,-1,4
333,-3.84143,2.389,-1,4
334,-3.84382,2.387,-1,4
335,-3.84858,2.381,-1,4
336,-3.85096,2.382,-1,4
337,-3.85570,2.367,-1,4
338,-3.85807,2.371,-1,4
339,-3.86044,2.366,-1,4
340,-3.86280,2.354,-1,4
341,-3.86752,2.363,-1,4
342,-3.86987,2.353,-1,4
343,-3.87457,2.346,-1,4
344,-3.87692,2.349,-1,4
345,-3.87926,2.342,-1,4
346,-3.88160,2.343,-1,4
347,-3.88394,2.337,-1,4
348,-3.88628,2.337,-1,4
349,-3.89094,2.335,-1,4
350,-3.89094,2.329,-1,4
351,-3.89560,2.327,-1,4
352,-3.89793,2.328,-1,4
353,-3.90025,2.319,-1,4
354,-3.90489,2.321,-1,4
355,-3.90721,2.323,-1,4
356,-3.90953,2.314,-1,4
357,-3.91184,2.308,-1,4
358,-3.91416,2.319,-1,4
359,-3.91647,2.316,-1,4
360,-3.92109,2.307,-1,4
361,-3.92340,2.309,-1,4
362,-3.92570,2.308,-1,4
363,-3.92801,2.307,-1,4
364,-3.93031,2.303,-1,4
365,-3.93262,2.307,-1,4
366,-3.93492,2.303,-1,4
367,-3.93723,2.305,-1,4
368,-3.94183,2.300,-1,4
369,-3.94414,2.302,-1,4
370,-3.94644,2.308,-1,4
371,-3.94874,2.300,-1,4
372,-3.95104,2.298,-1,4
373,-3.95335,2.309,-1,4
374,-3.95796,2.300,-1,4
375,-3.96026,2.302,-1,4
376,-3.96257,2.307,-1,4
377,-3.96718,2.305,-1,4
378,-3.96948,2.304,-1,4
379,-3.97179,2.309,-1,4
380,-3.97410,2.308,-1,4
381,-3.97640,2.307,-1,4
382,-3.97871,2.307,-1,4
383,-3.98102,2.311,-1,4
384,-3.98565,2.316,-1,4
385,-3.98796,2.308,-1,4
386,-3.99027,2.320,-1,4
387,-3.99491,2.314,-1,4
388,-3.99722,2.313,-1,4
389,-3.99954,2.322,-1,4
390,-4.00186,2.322,-1,4
391,-4.00418,2.319,-1,4
392,-4.00883,2.327,-1,4
393,-4.01116,2.325,-1,4
394,-4.01348,2.326,-1,4
395,-4.01581,2.327,-1,4
396,-4.01814,2.332,-1,4
397,-4.02280,2.330,-1,4
398,-4.02513,2.333,-1,4
399,-4.02746,2.333,-1,4
400,-4.02980,2.335,-1,4
401,-4.03447,2.337,-1,4
402,-4.03681,2.339,-1,4
403,-4.03916,2.342,-1,4
404,-4.04150,2.345,-1,4
405,-4.04384,2.342,-1,4
406,-4.04619,2.350,-1,4
407,-4.04854,2.351,-1,4
408,-4.05089,2.351,-1,4
409,-4.05324,2.350,-1,4
410,-4.05560,2.358,-1,4
411,-4.05796,2.361,-1,4
412,-4.06269,2.363,-1,4
413,-4.06505,2.364,-1,4
414,-4.06742,2.370,-1,4
415,-4.06979,2.370,-1,4
416,-4.07216,2.374,-1,4
417,-4.07454,2.377,-1,4
418,-4.07692,2.387,-1,4
419,-4.08169,2.384,-1,4
420,-4.08408,2.387,-1,4
421,-4.08887,2.395,-1,4
422,-4.09126,2.397,-1,4
423,-4.09367,2.405,-1,4
424,-4.09608,2.406,-1,4
425,-4.09848,2.406,-1,4
426,-4.10089,2.412,-1,4
427,-4.10574,2.422,-1,4
428,-4.11059,2.429,-1,4
429,-4.11059,2.434,-1,4
430,-4.11302,2.434,-1,4
431,-4.11546,2.437,-1,4
432,-4.11791,2.444,-1,4
433,-4.12035,2.446,-1,4
434,-4.12280,2.451,-1,4
435,-4.12526,2.455,-1,4
436,-4.12772,2.465,-1,4
437,-4.13266,2.473,-1,4
438,-4.13761,2.475,-1,4
439,-4.14009,2.484,-1,4
440,-4.14258,2.491,-1,4
441,-4.14508,2.494,-1,4
442,-4.14757,2.495,-1,4
443,-4.15007,2.501,-1,4
444,-4.15509,2.512,-1,4
445,-4.15760,2.517,-1,4
446,-4.16265,2.521,-1,4
447,-4.16518,2.530,-1,4
448,-4.16771,2.533,-1,4
449,-4.17025,2.538,-1,4
450,-4.17279,2.544,-1,4
451,-4.17534,2.546,-1,4
452,-4.17789,2.551,-1,4
453,-4.18045,2.562,-1,4
454,-4.18557,2.563,-1,4
455,-4.18814,2.571,-1,4
456,-4.19072,2.578,-1,4
457,-4.19330,2.578,-1,4
458,-4.19588,2.581,-1,4
459,-4.19847,2.590,-1,4
460,-4.20106,2.594,-1,4
461,-4.20626,2.601,-1,4
462,-4.20886,2.602,-1,4
463,-4.21147,2.608,-1,4
464,-4.21408,2.613,-1,4
465,-4.21670,2.623,-1,4
466,-4.22194,2.623,-1,4
467,-4.22194,2.623,-1,4
468,-4.22457,2.626,-1,4
469,-4.22720,2.633,-1,4
470,-4.22984,2.637,-1,4
471,-4.23512,2.645,-1,4
472,-4.23777,2.651,-1,4
473,-4.24042,2.651,-1,4
474,-4.24574,2.660,-1,4
475,-4.24840,2.664,-1,4
476,-4.25107,2.669,-1,4
477,-4.25374,2.672,-1,4
478,-4.25642,2.674,-1,4
479,-4.25910,2.681,-1,4
480,-4.26447,2.689,-1,4
481,-4.26716,2.693,-1,4
482,-4.26986,2.694,-1,4
483,-4.27256,2.699,-1,4
484,-4.27526,2.705,-1,4
485,-4.27797,2.708,-1,4
486,-4.28068,2.710,-1,4
487,-4.28612,2.722,-1,4
488,-4.28884,2.721,-1,4
489,-4.29157,2.728,-1,4
490,-4.29430,2.732,-1,4
491,-4.29704,2.735,-1,4
492,-4.29978,2.739,-1,4
493,-4.30252,2.749,-1,4
494,-4.30527,2.749,-1,4
495,-4.31078,2.756,-1,4
496,-4.31354,2.762,-1,4
497,-4.31906,2.765,-1,4
498,-4.32184,2.773,-1,4
499,-4.32461,2.774,-1,4
500,-4.33017,2.785,-1,4
501,-4.33296,2.788,-1,4
502,-4.33574,2.789,-1,4
503,-4.33854,2.794,-1,4
504,-4.34134,2.798,-1,4
505,-4.34414,2.800,-1,4
506,-4.34694,2.807,-1,4
507,-4.34975,2.808,-1,4
508,-4.35257,2.814,-1,4
509,-4.35538,2.815,-1,4
510,-4.36103,2.825,-1,4
511,-4.36386,2.829,-1,4
512,-4.36668,2.829,-1,4
513,-4.36952,2.835,-1,4
514,-4.37235,2.834,-1,4
515,-4.37519,2.840,-1,4
516,-4.38089,2.847,-1,4
517,-4.38373,2.845,-1,4
518,-4.38944,2.856,-1,4
519,-4.39230,2.860,-1,4
520,-4.39516,2.861,-1,4
521,-4.39802,2.860,-1,4
522,-4.40089,2.867,-1,4
523,-4.40376,2.868,-1,4
524,-4.40663,2.872,-1,4
525,-4.41238,2.872,-1,4
526,-4.41525,2.877,-1,4
527,-4.41814,2.883,-1,4
528,-4.42102,2.884,-1,4
529,-4.42391,2.885,-1,4
530,-4.42968,2.889,-1,4
531,-4.43257,2.891,-1,4
532,-4.43547,2.898,-1,4
533,-4.43837,2.899,-1,4
534,-4.44127,2.900,-1,4
535,-4.44417,2.900,-1,4
536,-4.44708,2.906,-1,4
537,-4.45290,2.912,-1,4
538,-4.45581,2.911,-1,4
539,-4.46163,2.913,-1,4
540,-4.46163,2.917,-1,4
541,-4.46455,2.917,-1,4
542,-4.46746,2.917,-1,4
543,-4.47038,2.921,-1,4
544,-4.47331,2.925,-1,4
545,-4.47916,2.927,-1,4
546,-4.48209,2.929,-1,4
547,-4.48795,2.934,-1,4
548,-4.49088,2.933,-1,4
549,-4.49382,2.937,-1,4
550,-4.49676,2.937,-1,4
551,-4.49969,2.938,-1,4
552,-4.50264,2.942,-1,4
553,-4.50558,2.943,-1,4
554,-4.51147,2.947,-1,4
555,-4.51736,2.948,-1,4
556,-4.52031,2.952,-1,4
557,-4.52326,2.948,-1,4
558,-4.52621,2.952,-1,4
559,-4.52917,2.956,-1,4
560,-4.53213,2.955,-1,4
561,-4.53508,2.956,-1,4
562,-4.53804,2.957,-1,4
563,-4.54100,2.959,-1,4
564,-4.54692,2.961,-1,4
565,-4.54988,2.966,-1,4
566,-4.55285,2.963,-1,4
567,-4.55581,2.965,-1,4
568,-4.55878,2.967,-1,4
569,-4.56175,2.969,-1,4
570,-4.56472,2.969,-1,4
571,-4.56769,2.969,-1,4
572,-4.57363,2.974,-1,4
573,-4.57957,2.969,-1,4
574,-4.58254,2.972,-1,4
575,-4.58552,2.973,-1,4
576,-4.58849,2.975,-1,4
577,-4.59146,2.971,-1,4
578,-4.59444,2.972,-1,4
579,-4.59741,2.971,-1,4
580,-4.60038,2.973,-1,4
581,-4.60335,2.973,-1,4
582,-4.60633,2.973,-1,4
583,-4.60929,2.966,-1,4
584,-4.61227,2.974,-1,4
585,-4.61524,2.970,-1,4
586,-4.61820,2.968,-1,4
587,-4.62117,2.967,-1,4
588,-4.62414,2.969,-1,4
589,-4.62711,2.967,-1,4
590,-4.63007,2.966,-1,4
591,-4.63303,2.963,-1,4
592,-4.63600,2.962,-1,4
593,-4.64191,2.957,-1,4
594,-4.64487,2.960,-1,4
595,-4.64782,2.954,-1,4
596,-4.65078,2.951,-1,4
597,-4.65667,2.945,-1,4
598,-4.65961,2.944,-1,4
599,-4.66255,2.943,-1,4
600,-4.66549,2.938,-1,4
601,-4.66842,2.933,-1,4
602,-4.67429,2.932,-1,4
603,-4.68014,2.924,-1,4
604,-4.68306,2.921,-1,4
605,-4.68598,2.918,-1,4
606,-4.68890,2.920,-1,4
607,-4.69181,2.907,-1,4
608,-4.69472,2.905,-1,4
609,-4.70053,2.906,-1,4
610,-4.70343,2.899,-1,4
611,-4.70633,2.899,-1,4
612,-4.70922,2.891,-1,4
613,-4.71211,2.887,-1,4
614,-4.71499,2.884,-1,4
615,-4.71787,2.881,-1,4
616,-4.72075,2.877,-1,4
617,-4.72362,2.872,-1,4
618,-4.72649,2.870,-1,4
619,-4.72935,2.863,-1,4
620,-4.73221,2.863,-1,4
621,-4.73793,2.853,-1,4
622,-4.74078,2.850,-1,4
623,-4.74647,2.845,-1,4
624,-4.74931,2.842,-1,4
625,-4.75215,2.835,-1,4
626,-4.75499,2.839,-1,4
627,-4.76065,2.830,-1,4
628,-4.76347,2.826,-1,4
629,-4.76630,2.821,-1,4
630,-4.77193,2.818,-1,4
631,-4.77193,2.812,-1,4
632,-4.77755,2.807,-1,4
633,-4.78036,2.807,-1,4
634,-4.78597,2.802,-1,4
635,-4.78597,2.791,-1,4
636,-4.78876,2.791,-1,4
637,-4.79434,2.791,-1,4
638,-4.79713,2.786,-1,4
639,-4.79991,2.780,-1,4
640,-4.80268,2.772,-1,4
641,-4.80823,2.771,-1,4
642,-4.81100,2.770,-1,4
643,-4.81376,2.762,-1,4
644,-4.81652,2.758,-1,4
645,-4.81927,2.758,-1,4
646,-4.82203,2.754,-1,4
647,-4.82478,2.750,-1,4
648,-4.82752,2.746,-1,4
649,-4.83027,2.742,-1,4
650,-4.83574,2.736,-1,4
651,-4.83848,2.734,-1,4
652,-4.84121,2.731,-1,4
653,-4.84393,2.726,-1,4
654,-4.84666,2.723,-1,4
655,-4.84938,2.725,-1,4
656,-4.85481,2.710,-1,4
657,-4.85752,2.712,-1,4
658,-4.86023,2.705,-1,4
659,-4.86563,2.699,-1,4
660,-4.86833,2.697,-1,4
661,-4.87102,2.694,-1,4
662,-4.87372,2.692,-1,4
663,-4.87641,2.690,-1,4
664,-4.87909,2.687,-1,4
665,-4.88446,2.681,-1,4
666,-4.88714,2.675,-1,4
667,-4.89248,2.672,-1,4
668,-4.89516,2.673,-1,4
669,-4.89783,2.669,-1,4
670,-4.90049,2.668,-1,4
671,-4.90316,2.663,-1,4
672,-4.90582,2.661,-1,4
673,-4.90848,2.664,-1,4
674,-4.91114,2.661,-1,4
675,-4.91380,2.659,-1,4
676,-4.91646,2.654,-1,4
677,-4.91911,2.653,-1,4
678,-4.92176,2.652,-1,4
679,-4.92441,2.652,-1,4
680,-4.92971,2.649,-1,4
681,-4.93236,2.645,-1,4
682,-4.93501,2.648,-1,4
683,-4.93765,2.645,-1,4
684,-4.94030,2.644,-1,4
685,-4.94558,2.639,-1,4
686,-4.94822,2.641,-1,4
687,-4.95086,2.640,-1,4
688,-4.95350,2.642,-1,4
689,-4.95614,2.638,-1,4
690,-4.95878,2.638,-1,4
691,-4.96142,2.638,-1,4
692,-4.96669,2.637,-1,4
693,-4.96933,2.636,-1,4
694,-4.97197,2.638,-1,4
695,-4.97460,2.634,-1,4
696,-4.97987,2.635,-1,4
697,-4.97987,2.638,-1,4
698,-4.98251,2.635,-1,4
699,-4.98778,2.633,-1,4
700,-4.99041,2.636,-1,4
701,-4.99568,2.635,-1,4
702,-4.99832,2.634,-1,4
703,-5.00095,2.635,-1,4
704,-5.00359,2.633,-1,4
705,-5.00622,2.637,-1,4
706,-5.00886,2.636,-1,4
707,-5.01149,2.636,-1,4
708,-5.01413,2.636,-1,4
709,-5.01940,2.638,-1,4
710,-5.02204,2.640,-1,4
711,-5.02732,2.639,-1,4
712,-5.02997,2.645,-1,4
713,-5.03261,2.640,-1,4
714,-5.03525,2.644,-1,4
715,-5.03790,2.649,-1,4
716,-5.04055,2.649,-1,4
717,-5.04585,2.652,-1,4
718,-5.04850,2.655,-1,4
719,-5.05382,2.659,-1,4
720,-5.05648,2.662,-1,4
721,-5.05914,2.663,-1,4
722,-5.06181,2.666,-1,4
723,-5.06448,2.670,-1,4
724,-5.06715,2.672,-1,4
725,-5.06983,2.676,-1,4
726,-5.07251,2.677,-1,4
727,-5.07787,2.686,-1,4
728,-5.08056,2.686,-1,4
729,-5.08326,2.695,-1,4
730,-5.08595,2.699,-1,4
731,-5.08865,2.699,-1,4
732,-5.09136,2.703,-1,4
733,-5.09407,2.712,-1,4
734,-5.09678,2.715,-1,4
735,-5.09950,2.718,-1,4
736,-5.10495,2.729,-1,4
737,-5.10769,2.734,-1,4
738,-5.11318,2.747,-1,4
739,-5.11593,2.754,-1,4
740,-5.11868,2.754,-1,4
741,-5.12145,2.765,-1,4
742,-5.12422,2.772,-1,4
743,-5.12978,2.786,-1,4
744,-5.13258,2.796,-1,4
745,-5.13538,2.798,-1,4
746,-5.13818,2.805,-1,4
747,-5.14100,2.818,-1,4
748,-5.14382,2.822,-1,4
749,-5.14665,2.832,-1,4
750,-5.14949,2.839,-1,4
751,-5.15234,2.848,-1,4
752,-5.15520,2.856,-1,4
753,-5.15806,2.875,-1,4
754,-5.16382,2.884,-1,4
755,-5.16671,2.891,-1,4
756,-5.17253,2.911,-1,4
757,-5.17544,2.917,-1,4
758,-5.17837,2.931,-1,4
759,-5.18132,2.943,-1,4
760,-5.18427,2.949,-1,4
761,-5.19019,2.970,-1,4
762,-5.19317,2.980,-1,4
763,-5.19616,2.990,-1,4
764,-5.19916,2.999,-1,4
765,-5.20217,3.008,-1,4
766,-5.20519,3.016,-1,4
767,-5.21126,3.040,-1,4
768,-5.21430,3.047,-1,4
769,-5.21736,3.056,-1,4
770,-5.22043,3.066,-1,4
771,-5.22350,3.086,-1,4
772,-5.22658,3.092,-1,4
773,-5.23278,3.098,-1,4
774,-5.23589,3.111,-1,4
775,-5.23900,3.118,-1,4
776,-5.24213,3.128,-1,4
777,-5.24527,3.136,-1,4
778,-5.25156,3.147,-1,4
779,-5.25472,3.162,-1,4
780,-5.26106,3.174,-1,4
781,-5.26424,3.178,-1,4
782,-5.26743,3.190,-1,4
783,-5.27382,3.205,-1,4
784,-5.27703,3.205,-1,4
785,-5.28024,3.220,-1,4
786,-5.28346,3.220,-1,4
787,-5.28668,3.227,-1,4
788,-5.28991,3.229,-1,4
789,-5.29315,3.234,-1,4
790,-5.29639,3.238,-1,4
791,-5.29963,3.242,-1,4
792,-5.30613,3.252,-1,4
793,-5.30938,3.255,-1,4
794,-5.31264,3.257,-1,4
795,-5.31917,3.270,-1,4
796,-5.32245,3.275,-1,4
797,-5.32572,3.272,-1,4
798,-5.32899,3.274,-1,4
799,-5.33227,3.279,-1,4
800,-5.33556,3.285,-1,4
801,-5.34213,3.285,-1,4
802,-5.34541,3.293,-1,4
803,-5.34871,3.293,-1,4
804,-5.35201,3.299,-1,4
805,-5.35530,3.296,-1,4
806,-5.35860,3.299,-1,4
807,-5.36190,3.299,-1,4
808,-5.36520,3.303,-1,4
809,-5.36851,3.309,-1,4
810,-5.37513,3.307,-1,4
811,-5.38175,3.314,-1,4
812,-5.38507,3.316,-1,4
813,-5.38838,3.315,-1,4
814,-5.39170,3.318,-1,4
815,-5.39502,3.320,-1,4
816,-5.39835,3.325,-1,4
817,-5.40167,3.325,-1,4
818,-5.40500,3.325,-1,4
819,-5.40832,3.328,-1,4
820,-5.41165,3.328,-1,4
821,-5.41832,3.335,-1,4
822,-5.42166,3.335,-1,4
823,-5.42499,3.338,-1,4
824,-5.42834,3.341,-1,4
825,-5.43168,3.345,-1,4
826,-5.43503,3.345,-1,4
827,-5.43837,3.345,-1,4
828,-5.44507,3.354,-1,4
829,-5.44843,3.355,-1,4
830,-5.45514,3.358,-1,4
831,-5.45850,3.361,-1,4
832,-5.46187,3.366,-1,4
833,-5.46524,3.369,-1,4
834,-5.46861,3.370,-1,4
835,-5.47198,3.376,-1,4
836,-5.47874,3.381,-1,4
837,-5.48550,3.384,-1,4
