cnt,pos,speed,Dir,Force,
2,0.40704,1.001,-1,0
3,0.40905,1.002,-1,0
4,0.41005,0.998,-1,0
5,0.41104,0.996,-1,0
6,0.41203,0.991,-1,0
7,0.41303,0.994,-1,0
8,0.41403,1.000,-1,0
9,0.41503,1.004,-1,0
10,0.41604,1.012,-1,0
11,0.41705,1.009,-1,0
12,0.41806,1.005,-1,0
13,0.41906,1.005,-1,0
14,0.42007,1.004,-1,0
15,0.42108,1.009,-1,0
16,0.42209,1.015,-1,0
17,0.42311,1.016,-1,0
18,0.42412,1.016,-1,0
19,0.42514,1.017,-1,0
20,0.42615,1.014,-1,0
21,0.42717,1.017,-1,0
22,0.42819,1.022,-1,0
23,0.42922,1.023,-1,0
24,0.43024,1.022,-1,0
25,0.43126,1.024,-1,0
26,0.43228,1.024,-1,0
27,0.43331,1.023,-1,0
28,0.43433,1.026,-1,0
29,0.43536,1.030,-1,0
30,0.43639,1.031,-1,0
31,0.43742,1.031,-1,0
32,0.43846,1.031,-1,0
33,0.43949,1.032,-1,0
34,0.44052,1.034,-1,0
35,0.44156,1.037,-1,0
36,0.44260,1.041,-1,0
37,0.44364,1.042,-1,0
38,0.44468,1.041,-1,0
39,0.44573,1.041,-1,0
40,0.44677,1.042,-1,0
41,0.44781,1.045,-1,0
42,0.44886,1.048,-1,0
43,0.44991,1.051,-1,0
44,0.45096,1.052,-1,0
45,0.45201,1.051,-1,0
46,0.45306,1.051,-1,0
47,0.45412,1.053,-1,0
48,0.45517,1.055,-1,0
49,0.45623,1.059,-1,0
50,0.45729,1.059,-1,0
51,0.45835,1.062,-1,0
52,0.45941,1.059,-1,0
53,0.46047,1.059,-1,0
54,0.46153,1.060,-1,0
55,0.46259,1.065,-1,0
56,0.46366,1.068,-1,0
57,0.46473,1.071,-1,0
58,0.46580,1.070,-1,0
59,0.46687,1.067,-1,0
60,0.46794,1.068,-1,0
61,0.46901,1.068,-1,0
62,0.47008,1.074,-1,0
63,0.47116,1.078,-1,0
64,0.47224,1.079,-1,0
65,0.47331,1.077,-1,0
66,0.47439,1.077,-1,0
67,0.47547,1.077,-1,0
68,0.47655,1.077,-1,0
69,0.47763,1.081,-1,0
70,0.47871,1.086,-1,0
71,0.47980,1.087,-1,0
72,0.48089,1.086,-1,0
73,0.48197,1.086,-1,0
74,0.48306,1.084,-1,0
75,0.48414,1.085,-1,0
76,0.48523,1.088,-1,0
77,0.48632,1.090,-1,0
78,0.48741,1.094,-1,0
79,0.48851,1.093,-1,0
80,0.48960,1.093,-1,0
81,0.49069,1.092,-1,0
82,0.49178,1.092,-1,0
83,0.49288,1.094,-1,0
84,0.49397,1.096,-1,0
85,0.49507,1.096,-1,0
86,0.49616,1.095,-1,0
87,0.49726,1.095,-1,0
88,0.49835,1.092,-1,0
89,0.49944,1.091,-1,0
90,0.50053,1.089,-1,0
91,0.50162,1.089,-1,0
92,0.50271,1.094,-1,0
93,0.50381,1.098,-1,0
94,0.50491,1.101,-1,0
95,0.50602,1.101,-1,0
96,0.50711,1.099,-1,0
97,0.50821,1.098,-1,0
98,0.50931,1.098,-1,0
99,0.51041,1.102,-1,0
100,0.51152,1.105,-1,0
101,0.51263,1.108,-1,0
102,0.51374,1.110,-1,0
103,0.51484,1.109,-1,0
104,0.51595,1.108,-1,0
105,0.51706,1.109,-1,0
106,0.51817,1.111,-1,0
107,0.51929,1.115,-1,0
108,0.52041,1.118,-1,0
109,0.52152,1.119,-1,0
110,0.52264,1.117,-1,0
111,0.52376,1.116,-1,0
112,0.52487,1.118,-1,0
113,0.52599,1.119,-1,0
114,0.52711,1.122,-1,0
115,0.52824,1.125,-1,0
116,0.52936,1.125,-1,0
117,0.53049,1.127,-1,0
118,0.53162,1.127,-1,0
119,0.53274,1.124,-1,0
120,0.53387,1.125,-1,0
121,0.53500,1.128,-1,0
122,0.53613,1.131,-1,0
123,0.53726,1.131,-1,0
124,0.53839,1.128,-1,0
125,0.53951,1.128,-1,0
126,0.54064,1.126,-1,0
127,0.54176,1.124,-1,0
128,0.54289,1.124,-1,0
129,0.54402,1.129,-1,0
130,0.54515,1.132,-1,0
131,0.54628,1.134,-1,0
132,0.54741,1.133,-1,0
133,0.54855,1.132,-1,0
134,0.54968,1.131,-1,0
135,0.55081,1.132,-1,0
136,0.55194,1.134,-1,0
137,0.55308,1.138,-1,0
138,0.55422,1.142,-1,0
139,0.55537,1.143,-1,0
140,0.55651,1.140,-1,0
141,0.55765,1.139,-1,0
142,0.55879,1.141,-1,0
143,0.55993,1.142,-1,0
144,0.56108,1.147,-1,0
145,0.56222,1.149,-1,0
146,0.56337,1.150,-1,0
147,0.56452,1.148,-1,0
148,0.56567,1.147,-1,0
149,0.56682,1.148,-1,0
150,0.56797,1.153,-1,0
151,0.56913,1.157,-1,0
152,0.57029,1.160,-1,0
153,0.57145,1.158,-1,0
154,0.57260,1.157,-1,0
155,0.57376,1.156,-1,0
156,0.57492,1.158,-1,0
157,0.57608,1.162,-1,0
158,0.57725,1.166,-1,0
159,0.57841,1.168,-1,0
160,0.57958,1.166,-1,0
161,0.58074,1.165,-1,0
162,0.58191,1.166,-1,0
163,0.58308,1.169,-1,0
164,0.58425,1.172,-1,0
165,0.58543,1.176,-1,0
166,0.58660,1.178,-1,0
167,0.58778,1.179,-1,0
168,0.58896,1.176,-1,0
169,0.59013,1.175,-1,0
170,0.59131,1.177,-1,0
171,0.59249,1.177,-1,0
172,0.59366,1.175,-1,0
173,0.59484,1.177,-1,0
174,0.59602,1.177,-1,0
175,0.59720,1.178,-1,0
176,0.59837,1.180,-1,0
177,0.59956,1.185,-1,0
178,0.60075,1.189,-1,0
179,0.60194,1.188,-1,0
180,0.60312,1.188,-1,0
181,0.60431,1.188,-1,0
182,0.60550,1.188,-1,0
183,0.60669,1.189,-1,0
184,0.60788,1.193,-1,0
185,0.60908,1.197,-1,0
186,0.61028,1.199,-1,0
187,0.61148,1.198,-1,0
188,0.61268,1.197,-1,0
189,0.61387,1.198,-1,0
190,0.61507,1.201,-1,0
191,0.61628,1.206,-1,0
192,0.61749,1.208,-1,0
193,0.61870,1.210,-1,0
194,0.61990,1.206,-1,0
195,0.62111,1.210,-1,0
196,0.62232,1.209,-1,0
197,0.62354,1.212,-1,0
198,0.62475,1.216,-1,0
199,0.62597,1.216,-1,0
200,0.62718,1.217,-1,0
201,0.62840,1.216,-1,0
202,0.62962,1.217,-1,0
203,0.63083,1.219,-1,0
204,0.63205,1.219,-1,0
205,0.63328,1.223,-1,0
206,0.63450,1.222,-1,0
207,0.63572,1.220,-1,0
208,0.63694,1.219,-1,0
209,0.63815,1.217,-1,0
210,0.63937,1.220,-1,0
211,0.64060,1.221,-1,0
212,0.64182,1.221,-1,0
213,0.64304,1.221,-1,0
214,0.64426,1.222,-1,0
215,0.64548,1.225,-1,0
216,0.64671,1.224,-1,0
217,0.64794,1.229,-1,0
218,0.64917,1.229,-1,0
219,0.65040,1.231,-1,0
220,0.65163,1.229,-1,0
221,0.65285,1.230,-1,0
222,0.65409,1.231,-1,0
223,0.65532,1.234,-1,0
224,0.65656,1.236,-1,0
225,0.65779,1.236,-1,0
226,0.65903,1.237,-1,0
227,0.66026,1.236,-1,0
228,0.66150,1.239,-1,0
229,0.66274,1.238,-1,0
230,0.66398,1.241,-1,0
231,0.66522,1.239,-1,0
232,0.66647,1.244,-1,0
233,0.66771,1.242,-1,0
234,0.66895,1.246,-1,0
235,0.67020,1.244,-1,0
236,0.67145,1.248,-1,0
237,0.67269,1.245,-1,0
238,0.67394,1.248,-1,0
239,0.67518,1.246,-1,0
240,0.67643,1.249,-1,0
241,0.67768,1.248,-1,0
242,0.67893,1.249,-1,0
243,0.68018,1.250,-1,0
244,0.68143,1.251,-1,0
245,0.68268,1.251,-1,0
246,0.68393,1.251,-1,0
247,0.68519,1.252,-1,0
248,0.68644,1.252,-1,0
249,0.68769,1.252,-1,0
250,0.68894,1.249,-1,0
251,0.69019,1.253,-1,0
252,0.69144,1.251,-1,0
253,0.69270,1.254,-1,0
254,0.69395,1.253,-1,0
255,0.69521,1.256,-1,0
256,0.69646,1.253,-1,0
257,0.69771,1.254,-1,0
258,0.69897,1.254,-1,0
259,0.70022,1.255,-1,0
260,0.70148,1.256,-1,0
261,0.70274,1.257,-1,0
262,0.70399,1.258,-1,0
263,0.70525,1.257,-1,0
264,0.70651,1.258,-1,0
265,0.70776,1.255,-1,0
266,0.70902,1.256,-1,0
267,0.71028,1.258,-1,0
268,0.71154,1.259,-1,0
269,0.71279,1.258,-1,0
270,0.71405,1.258,-1,0
271,0.71531,1.257,-1,0
272,0.71656,1.256,-1,0
273,0.71782,1.260,-1,0
274,0.71908,1.259,-1,0
275,0.72034,1.259,-1,0
276,0.72160,1.258,-1,0
277,0.72286,1.258,-1,0
278,0.72412,1.258,-1,0
279,0.72537,1.258,-1,0
280,0.72663,1.261,-1,0
281,0.72789,1.259,-1,0
282,0.72916,1.262,-1,0
283,0.73041,1.259,-1,0
284,0.73167,1.259,-1,0
285,0.73293,1.260,-1,0
286,0.73419,1.260,-1,0
287,0.73545,1.261,-1,0
288,0.73671,1.258,-1,0
289,0.73797,1.261,-1,0
290,0.73923,1.258,-1,0
291,0.74049,1.261,-1,0
292,0.74175,1.260,-1,0
293,0.74302,1.262,-1,0
294,0.74428,1.261,-1,0
295,0.74554,1.259,-1,0
296,0.74680,1.259,-1,0
297,0.74806,1.260,-1,0
298,0.74932,1.263,-1,0
299,0.75058,1.261,-1,0
300,0.75184,1.263,-1,0
301,0.75310,1.263,-1,0
302,0.75437,1.261,-1,0
303,0.75563,1.260,-1,0
304,0.75689,1.260,-1,0
305,0.75815,1.264,-1,0
306,0.75941,1.263,-1,0
307,0.76067,1.263,-1,0
308,0.76194,1.264,-1,0
309,0.76320,1.261,-1,0
310,0.76446,1.262,-1,0
311,0.76572,1.262,-1,0
312,0.76699,1.266,-1,0
313,0.76825,1.263,-1,0
314,0.76952,1.264,-1,0
315,0.77078,1.265,-1,0
316,0.77204,1.264,-1,0
317,0.77331,1.265,-1,0
318,0.77458,1.266,-1,0
319,0.77584,1.266,-1,0
320,0.77710,1.264,-1,0
321,0.77837,1.264,-1,0
322,0.77963,1.265,-1,0
323,0.78090,1.263,-1,0
324,0.78216,1.266,-1,0
325,0.78343,1.265,-1,0
326,0.78469,1.265,-1,0
327,0.78596,1.265,-1,0
328,0.78722,1.265,-1,0
329,0.78849,1.267,-1,0
330,0.78975,1.266,-1,0
331,0.79102,1.268,-1,0
332,0.79229,1.265,-1,0
333,0.79355,1.267,-1,0
334,0.79482,1.266,-1,0
335,0.79608,1.265,-1,0
336,0.79735,1.269,-1,0
337,0.79862,1.267,-1,0
338,0.79989,1.266,-1,0
339,0.80115,1.267,-1,0
340,0.80242,1.265,-1,0
341,0.80368,1.265,-1,0
342,0.80495,1.265,-1,0
343,0.80621,1.266,-1,0
344,0.80748,1.264,-1,0
345,0.80874,1.265,-1,0
346,0.81001,1.266,-1,0
347,0.81127,1.265,-1,0
348,0.81254,1.269,-1,0
349,0.81381,1.266,-1,0
350,0.81508,1.268,-1,0
351,0.81634,1.266,-1,0
352,0.81761,1.266,-1,0
353,0.81888,1.270,-1,0
354,0.82015,1.268,-1,0
355,0.82141,1.267,-1,0
356,0.82268,1.267,-1,0
357,0.82395,1.265,-1,0
358,0.82521,1.265,-1,0
359,0.82648,1.265,-1,0
360,0.82774,1.268,-1,0
361,0.82901,1.265,-1,0
362,0.83027,1.265,-1,0
363,0.83154,1.264,-1,0
364,0.83280,1.261,-1,0
365,0.83407,1.267,-1,0
366,0.83533,1.263,-1,0
367,0.83659,1.263,-1,0
368,0.83785,1.262,-1,0
369,0.83912,1.262,-1,0
370,0.84038,1.263,-1,0
371,0.84164,1.260,-1,0
372,0.84290,1.264,-1,0
373,0.84416,1.261,-1,0
374,0.84542,1.260,-1,0
375,0.84668,1.259,-1,0
376,0.84794,1.259,-1,0
377,0.84920,1.258,-1,0
378,0.85046,1.258,-1,0
379,0.85172,1.259,-1,0
380,0.85298,1.257,-1,0
381,0.85423,1.257,-1,0
382,0.85549,1.254,-1,0
383,0.85674,1.254,-1,0
384,0.85800,1.254,-1,0
385,0.85925,1.254,-1,0
386,0.86050,1.253,-1,0
387,0.86175,1.252,-1,0
388,0.86301,1.252,-1,0
389,0.86426,1.250,-1,0
390,0.86551,1.251,-1,0
391,0.86676,1.249,-1,0
392,0.86801,1.251,-1,0
393,0.86926,1.248,-1,0
394,0.87051,1.251,-1,0
395,0.87175,1.248,-1,0
396,0.87301,1.251,-1,0
397,0.87425,1.248,-1,0
398,0.87550,1.250,-1,0
399,0.87675,1.244,-1,0
400,0.87799,1.243,-1,0
401,0.87923,1.242,-1,0
402,0.88048,1.244,-1,0
403,0.88172,1.243,-1,0
404,0.88296,1.244,-1,0
405,0.88421,1.242,-1,0
406,0.88545,1.241,-1,0
407,0.88668,1.239,-1,0
408,0.88793,1.240,-1,0
409,0.88916,1.238,-1,0
410,0.89040,1.240,-1,0
411,0.89164,1.236,-1,0
412,0.89288,1.237,-1,0
413,0.89411,1.234,-1,0
414,0.89535,1.236,-1,0
415,0.89658,1.233,-1,0
416,0.89782,1.236,-1,0
417,0.89905,1.233,-1,0
418,0.90028,1.233,-1,0
419,0.90151,1.229,-1,0
420,0.90397,1.229,-1,0
421,0.90520,1.228,-1,0
422,0.90642,1.229,-1,0
423,0.90888,1.225,-1,0
424,0.91010,1.222,-1,0
425,0.91132,1.223,-1,0
426,0.91254,1.222,-1,0
427,0.91376,1.222,-1,0
428,0.91499,1.222,-1,0
429,0.91620,1.217,-1,0
430,0.91742,1.217,-1,0
431,0.91985,1.216,-1,0
432,0.92107,1.216,-1,0
433,0.92229,1.215,-1,0
434,0.92471,1.211,-1,0
435,0.92592,1.209,-1,0
436,0.92713,1.209,-1,0
437,0.92834,1.212,-1,0
438,0.93076,1.210,-1,0
439,0.93197,1.207,-1,0
440,0.93317,1.205,-1,0
441,0.93558,1.201,-1,0
442,0.93678,1.205,-1,0
443,0.93919,1.204,-1,0
444,0.94039,1.201,-1,0
445,0.94159,1.197,-1,0
446,0.94279,1.199,-1,0
447,0.94399,1.198,-1,0
448,0.94518,1.196,-1,0
449,0.94638,1.200,-1,0
450,0.94758,1.195,-1,0
451,0.94996,1.195,-1,0
452,0.95116,1.194,-1,0
453,0.95235,1.191,-1,0
454,0.95473,1.192,-1,0
455,0.95592,1.187,-1,0
456,0.95711,1.187,-1,0
457,0.95830,1.187,-1,0
458,0.95948,1.188,-1,0
459,0.96067,1.188,-1,0
460,0.96186,1.186,-1,0
461,0.96422,1.182,-1,0
462,0.96659,1.183,-1,0
463,0.96659,1.183,-1,0
464,0.96895,1.182,-1,0
465,0.97014,1.181,-1,0
466,0.97132,1.175,-1,0
467,0.97249,1.177,-1,0
468,0.97367,1.178,-1,0
469,0.97602,1.177,-1,0
470,0.97720,1.175,-1,0
471,0.97837,1.177,-1,0
472,0.98072,1.172,-1,0
473,0.98189,1.169,-1,0
474,0.98306,1.171,-1,0
475,0.98541,1.173,-1,0
476,0.98658,1.171,-1,0
477,0.98775,1.170,-1,0
478,0.98891,1.168,-1,0
479,0.99008,1.167,-1,0
480,0.99125,1.167,-1,0
481,0.99359,1.170,-1,0
482,0.99475,1.166,-1,0
483,0.99592,1.162,-1,0
484,0.99707,1.159,-1,0
485,0.99940,1.163,-1,0
486,1.00172,1.163,-1,0
487,1.00288,1.159,-1,0
488,1.00288,1.156,-1,0
489,1.00404,1.156,-1,0
490,1.00519,1.154,-1,0
491,1.00751,1.156,-1,0
492,1.00866,1.157,-1,0
493,1.00982,1.154,-1,0
494,1.01212,1.148,-1,0
495,1.01327,1.149,-1,0
496,1.01441,1.147,-1,0
497,1.01556,1.150,-1,0
498,1.01786,1.149,-1,0
499,1.01786,1.145,-1,0
500,1.01901,1.145,-1,0
501,1.02015,1.142,-1,0
502,1.02129,1.140,-1,0
503,1.02357,1.143,-1,0
504,1.02472,1.143,-1,0
505,1.02586,1.144,-1,0
506,1.02814,1.136,-1,0
507,1.02814,1.135,-1,0
508,1.03041,1.135,-1,0
509,1.03154,1.137,-1,0
510,1.03381,1.135,-1,0
511,1.03495,1.134,-1,0
512,1.03608,1.131,-1,0
513,1.03721,1.128,-1,0
514,1.03833,1.128,-1,0
515,1.03946,1.130,-1,0
516,1.04059,1.131,-1,0
517,1.04172,1.130,-1,0
518,1.04398,1.125,-1,0
519,1.04510,1.124,-1,0
520,1.04622,1.123,-1,0
521,1.04847,1.124,-1,0
522,1.04959,1.124,-1,0
523,1.05072,1.121,-1,0
524,1.05184,1.120,-1,0
525,1.05296,1.121,-1,0
526,1.05408,1.121,-1,0
527,1.05632,1.118,-1,0
528,1.05855,1.116,-1,0
529,1.05855,1.115,-1,0
530,1.06078,1.115,-1,0
531,1.06189,1.117,-1,0
532,1.06301,1.116,-1,0
533,1.06413,1.112,-1,0
534,1.06524,1.112,-1,0
535,1.06635,1.110,-1,0
536,1.06857,1.111,-1,0
537,1.06968,1.113,-1,0
538,1.07080,1.115,-1,0
539,1.07302,1.110,-1,0
540,1.07413,1.107,-1,0
541,1.07634,1.106,-1,0
542,1.07745,1.111,-1,0
543,1.07856,1.114,-1,0
544,1.07968,1.113,-1,0
545,1.08079,1.111,-1,0
546,1.08189,1.106,-1,0
547,1.08300,1.103,-1,0
548,1.08410,1.107,-1,0
549,1.08632,1.112,-1,0
550,1.08743,1.113,-1,0
551,1.08854,1.109,-1,0
552,1.09074,1.101,-1,0
553,1.09185,1.107,-1,0
554,1.09295,1.107,-1,0
555,1.09406,1.111,-1,0
556,1.09517,1.111,-1,0
557,1.09628,1.108,-1,0
558,1.09739,1.103,-1,0
559,1.09849,1.101,-1,0
560,1.10070,1.109,-1,0
561,1.10181,1.114,-1,0
562,1.10403,1.108,-1,0
563,1.10514,1.102,-1,0
564,1.10624,1.104,-1,0
565,1.10734,1.104,-1,0
566,1.10845,1.110,-1,0
567,1.10957,1.115,-1,0
568,1.11179,1.110,-1,0
569,1.11290,1.106,-1,0
570,1.11510,1.104,-1,0
571,1.11621,1.110,-1,0
572,1.11733,1.116,-1,0
573,1.11956,1.112,-1,0
574,1.12066,1.108,-1,0
575,1.12177,1.103,-1,0
576,1.12287,1.103,-1,0
577,1.12398,1.109,-1,0
578,1.12621,1.116,-1,0
579,1.12732,1.113,-1,0
580,1.12843,1.108,-1,0
581,1.13064,1.103,-1,0
582,1.13175,1.106,-1,0
583,1.13286,1.112,-1,0
584,1.13397,1.115,-1,0
585,1.13509,1.114,-1,0
586,1.13620,1.109,-1,0
587,1.13730,1.106,-1,0
588,1.13951,1.107,-1,0
589,1.14062,1.112,-1,0
590,1.14174,1.113,-1,0
591,1.14285,1.113,-1,0
592,1.14507,1.106,-1,0
593,1.14617,1.108,-1,0
594,1.14839,1.111,-1,0
595,1.14951,1.114,-1,0
596,1.15062,1.112,-1,0
597,1.15173,1.111,-1,0
598,1.15284,1.109,-1,0
599,1.15394,1.107,-1,0
600,1.15616,1.110,-1,0
601,1.15728,1.113,-1,0
602,1.15839,1.114,-1,0
603,1.16061,1.111,-1,0
604,1.16172,1.110,-1,0
605,1.16283,1.109,-1,0
606,1.16394,1.109,-1,0
607,1.16505,1.111,-1,0
608,1.16616,1.113,-1,0
609,1.16839,1.114,-1,0
610,1.16950,1.111,-1,0
611,1.17061,1.107,-1,0
612,1.17283,1.110,-1,0
613,1.17506,1.117,-1,0
614,1.17617,1.117,-1,0
615,1.17729,1.112,-1,0
616,1.17839,1.107,-1,0
617,1.17950,1.105,-1,0
618,1.18061,1.108,-1,0
619,1.18172,1.114,-1,0
620,1.18395,1.117,-1,0
621,1.18507,1.112,-1,0
622,1.18618,1.109,-1,0
623,1.18728,1.109,-1,0
624,1.18840,1.116,-1,0
625,1.19063,1.119,-1,0
626,1.19175,1.118,-1,0
627,1.19286,1.115,-1,0
628,1.19397,1.111,-1,0
629,1.19509,1.112,-1,0
630,1.19620,1.115,-1,0
631,1.19732,1.119,-1,0
632,1.19844,1.118,-1,0
633,1.20068,1.117,-1,0
634,1.20179,1.114,-1,0
635,1.20290,1.114,-1,0
636,1.20514,1.122,-1,0
637,1.20626,1.120,-1,0
638,1.20738,1.118,-1,0
639,1.20962,1.118,-1,0
640,1.20962,1.122,-1,0
641,1.21187,1.125,-1,0
642,1.21299,1.123,-1,0
643,1.21523,1.120,-1,0
644,1.21635,1.122,-1,0
645,1.21748,1.126,-1,0
646,1.21861,1.130,-1,0
647,1.22086,1.127,-1,0
648,1.22199,1.125,-1,0
649,1.22311,1.124,-1,0
650,1.22424,1.125,-1,0
651,1.22537,1.129,-1,0
652,1.22650,1.136,-1,0
653,1.22764,1.132,-1,0
654,1.22990,1.130,-1,0
655,1.23103,1.124,-1,0
656,1.23215,1.128,-1,0
657,1.23329,1.136,-1,0
658,1.23444,1.143,-1,0
659,1.23672,1.140,-1,0
660,1.23785,1.134,-1,0
661,1.23898,1.130,-1,0
662,1.24011,1.134,-1,0
663,1.24126,1.140,-1,0
664,1.24240,1.147,-1,0
665,1.24469,1.143,-1,0
666,1.24583,1.139,-1,0
667,1.24697,1.138,-1,0
668,1.24811,1.149,-1,0
669,1.24926,1.150,-1,0
670,1.25156,1.151,-1,0
671,1.25270,1.143,-1,0
672,1.25499,1.143,-1,0
673,1.25614,1.150,-1,0
674,1.25730,1.156,-1,0
675,1.25845,1.157,-1,0
676,1.25960,1.150,-1,0
677,1.26075,1.144,-1,0
678,1.26304,1.148,-1,0
679,1.26420,1.155,-1,0
680,1.26536,1.161,-1,0
681,1.26767,1.155,-1,0
682,1.26883,1.152,-1,0
683,1.26998,1.150,-1,0
684,1.27113,1.152,-1,0
685,1.27228,1.157,-1,0
686,1.27345,1.161,-1,0
687,1.27577,1.162,-1,0
688,1.27693,1.158,-1,0
689,1.27808,1.156,-1,0
690,1.28040,1.160,-1,0
691,1.28156,1.165,-1,0
692,1.28273,1.164,-1,0
693,1.28505,1.160,-1,0
694,1.28621,1.157,-1,0
695,1.28737,1.161,-1,0
696,1.28853,1.165,-1,0
697,1.28970,1.169,-1,0
698,1.29087,1.168,-1,0
699,1.29320,1.163,-1,0
700,1.29436,1.164,-1,0
701,1.29553,1.164,-1,0
702,1.29787,1.173,-1,0
703,1.29904,1.173,-1,0
704,1.30021,1.168,-1,0
705,1.30138,1.165,-1,0
706,1.30254,1.165,-1,0
707,1.30371,1.170,-1,0
708,1.30489,1.174,-1,0
709,1.30606,1.175,-1,0
710,1.30841,1.170,-1,0
711,1.30957,1.167,-1,0
712,1.31074,1.174,-1,0
713,1.31309,1.179,-1,0
714,1.31427,1.180,-1,0
715,1.31662,1.174,-1,0
716,1.31662,1.172,-1,0
717,1.31780,1.173,-1,0
718,1.31897,1.173,-1,0
719,1.32014,1.176,-1,0
720,1.32251,1.182,-1,0
721,1.32369,1.180,-1,0
722,1.32604,1.177,-1,0
723,1.32722,1.180,-1,0
724,1.32840,1.181,-1,0
725,1.32959,1.185,-1,0
726,1.33196,1.185,-1,0
727,1.33314,1.183,-1,0
728,1.33432,1.181,-1,0
729,1.33551,1.184,-1,0
730,1.33669,1.185,-1,0
731,1.33788,1.190,-1,0
732,1.34026,1.189,-1,0
733,1.34145,1.187,-1,0
734,1.34264,1.188,-1,0
735,1.34502,1.193,-1,0
736,1.34622,1.195,-1,0
737,1.34741,1.196,-1,0
738,1.34860,1.194,-1,0
739,1.34980,1.194,-1,0
740,1.35099,1.196,-1,0
741,1.35339,1.201,-1,0
742,1.35460,1.203,-1,0
743,1.35580,1.203,-1,0
744,1.35820,1.202,-1,0
745,1.36061,1.207,-1,0
746,1.36182,1.208,-1,0
747,1.36303,1.210,-1,0
748,1.36424,1.210,-1,0
749,1.36545,1.208,-1,0
750,1.36666,1.209,-1,0
751,1.36787,1.213,-1,0
752,1.36909,1.215,-1,0
753,1.37030,1.217,-1,0
754,1.37274,1.218,-1,0
755,1.37396,1.217,-1,0
756,1.37517,1.222,-1,0
757,1.37762,1.225,-1,0
758,1.37885,1.228,-1,0
759,1.38007,1.224,-1,0
760,1.38130,1.226,-1,0
761,1.38253,1.226,-1,0
762,1.38375,1.229,-1,0
763,1.38622,1.233,-1,0
764,1.38745,1.234,-1,0
765,1.38869,1.235,-1,0
766,1.38992,1.235,-1,0
767,1.39116,1.238,-1,0
768,1.39364,1.240,-1,0
769,1.39488,1.243,-1,0
770,1.39612,1.243,-1,0
771,1.39861,1.242,-1,0
772,1.39861,1.244,-1,0
773,1.39985,1.245,-1,0
774,1.40234,1.249,-1,0
775,1.40359,1.251,-1,0
776,1.40485,1.251,-1,0
777,1.40609,1.250,-1,0
778,1.40860,1.255,-1,0
779,1.40986,1.257,-1,0
780,1.41237,1.258,-1,0
781,1.41363,1.260,-1,0
782,1.41489,1.257,-1,0
783,1.41615,1.260,-1,0
784,1.41741,1.263,-1,0
785,1.41868,1.265,-1,0
786,1.42120,1.260,-1,0
787,1.42247,1.265,-1,0
788,1.42373,1.264,-1,0
789,1.42500,1.273,-1,0
790,1.42754,1.271,-1,0
791,1.42882,1.270,-1,0
792,1.43009,1.270,-1,0
793,1.43136,1.270,-1,0
794,1.43263,1.274,-1,0
795,1.43390,1.275,-1,0
796,1.43646,1.278,-1,0
797,1.43774,1.278,-1,0
798,1.44030,1.279,-1,0
799,1.44158,1.282,-1,0
800,1.44286,1.284,-1,0
801,1.44415,1.283,-1,0
802,1.44671,1.284,-1,0
803,1.44800,1.284,-1,0
804,1.44929,1.289,-1,0
805,1.45058,1.289,-1,0
806,1.45186,1.287,-1,0
807,1.45316,1.291,-1,0
808,1.45574,1.291,-1,0
809,1.45703,1.295,-1,0
810,1.45833,1.297,-1,0
811,1.45962,1.295,-1,0
812,1.46222,1.296,-1,0
813,1.46351,1.297,-1,0
814,1.46481,1.299,-1,0
815,1.46611,1.303,-1,0
816,1.46742,1.301,-1,0
817,1.46872,1.302,-1,0
818,1.47132,1.302,-1,0
819,1.47263,1.304,-1,0
820,1.47393,1.305,-1,0
821,1.47654,1.306,-1,0
822,1.47785,1.306,-1,0
823,1.47916,1.310,-1,0
824,1.48047,1.310,-1,0
825,1.48178,1.308,-1,0
826,1.48308,1.309,-1,0
827,1.48440,1.311,-1,0
828,1.48571,1.311,-1,0
829,1.48702,1.310,-1,0
830,1.48964,1.314,-1,0
831,1.49227,1.313,-1,0
832,1.49359,1.314,-1,0
833,1.49490,1.316,-1,0
834,1.49622,1.317,-1,0
835,1.49754,1.317,-1,0
836,1.50017,1.316,-1,0
837,1.50149,1.319,-1,0
838,1.50281,1.319,-1,0
839,1.50413,1.319,-1,0
840,1.50545,1.321,-1,0
841,1.50677,1.321,-1,0
842,1.50941,1.320,-1,0
843,1.51073,1.322,-1,0
844,1.51205,1.322,-1,0
845,1.51338,1.325,-1,0
846,1.51602,1.322,-1,0
847,1.51735,1.324,-1,0
848,1.51867,1.324,-1,0
849,1.52000,1.326,-1,0
850,1.52132,1.327,-1,0
851,1.52265,1.325,-1,0
852,1.52398,1.326,-1,0
853,1.52530,1.328,-1,0
854,1.52796,1.329,-1,0
855,1.52929,1.327,-1,0
856,1.53061,1.327,-1,0
857,1.53327,1.329,-1,0
858,1.53460,1.331,-1,0
859,1.53593,1.329,-1,0
860,1.53726,1.329,-1,0
861,1.53859,1.328,-1,0
862,1.53991,1.328,-1,0
863,1.54257,1.330,-1,0
864,1.54390,1.331,-1,0
865,1.54656,1.329,-1,0
866,1.54789,1.331,-1,0
867,1.54923,1.331,-1,0
868,1.55189,1.332,-1,0
869,1.55322,1.331,-1,0
870,1.55455,1.332,-1,0
871,1.55588,1.330,-1,0
872,1.55721,1.331,-1,0
873,1.55854,1.330,-1,0
874,1.56121,1.330,-1,0
