cnt,pos,speed,Dir,Force,
1,3.48883,1.101,-1,4
2,3.48993,1.100,-1,4
3,3.49103,1.108,-1,4
4,3.49215,1.114,-1,4
5,3.49326,1.109,-1,4
6,3.49436,1.106,-1,4
7,3.49547,1.111,-1,4
8,3.49659,1.114,-1,4
9,3.49770,1.109,-1,4
10,3.49880,1.106,-1,4
11,3.49992,1.113,-1,4
12,3.50104,1.122,-1,4
13,3.50216,1.118,-1,4
14,3.50326,1.112,-1,4
15,3.50438,1.112,-1,4
16,3.50550,1.120,-1,4
17,3.50662,1.119,-1,4
18,3.50773,1.113,-1,4
19,3.50885,1.117,-1,4
20,3.50997,1.125,-1,4
21,3.51110,1.116,-1,4
22,3.51333,1.113,-1,4
23,3.51445,1.122,-1,4
24,3.51558,1.130,-1,4
25,3.51670,1.126,-1,4
26,3.51782,1.120,-1,4
27,3.51895,1.122,-1,4
28,3.52007,1.126,-1,4
29,3.52120,1.123,-1,4
30,3.52232,1.121,-1,4
31,3.52344,1.126,-1,4
32,3.52457,1.132,-1,4
33,3.52571,1.131,-1,4
34,3.52683,1.121,-1,4
35,3.52795,1.122,-1,4
36,3.52908,1.131,-1,4
37,3.53021,1.132,-1,4
38,3.53134,1.127,-1,4
39,3.53247,1.128,-1,4
40,3.53360,1.134,-1,4
41,3.53474,1.135,-1,4
42,3.53586,1.125,-1,4
43,3.53699,1.124,-1,4
44,3.53812,1.134,-1,4
45,3.53926,1.139,-1,4
46,3.54039,1.132,-1,4
47,3.54152,1.130,-1,4
48,3.54266,1.135,-1,4
49,3.54379,1.137,-1,4
50,3.54492,1.130,-1,4
51,3.54605,1.127,-1,4
52,3.54718,1.133,-1,4
53,3.54832,1.140,-1,4
54,3.54946,1.138,-1,4
55,3.55059,1.129,-1,4
56,3.55172,1.132,-1,4
57,3.55286,1.137,-1,4
58,3.55399,1.135,-1,4
59,3.55512,1.133,-1,4
60,3.55740,1.140,-1,4
61,3.55853,1.135,-1,4
62,3.55966,1.129,-1,4
63,3.56079,1.129,-1,4
64,3.56193,1.137,-1,4
65,3.56306,1.139,-1,4
66,3.56420,1.134,-1,4
67,3.56533,1.129,-1,4
68,3.56646,1.133,-1,4
69,3.56760,1.135,-1,4
70,3.56872,1.129,-1,4
71,3.56985,1.128,-1,4
72,3.57099,1.137,-1,4
73,3.57213,1.137,-1,4
74,3.57326,1.130,-1,4
75,3.57438,1.124,-1,4
76,3.57551,1.129,-1,4
77,3.57664,1.134,-1,4
78,3.57777,1.129,-1,4
79,3.58002,1.128,-1,4
80,3.58115,1.131,-1,4
81,3.58228,1.125,-1,4
82,3.58228,1.119,-1,4
83,3.58452,1.122,-1,4
84,3.58452,1.129,-1,4
85,3.58565,1.126,-1,4
86,3.58678,1.126,-1,4
87,3.58901,1.119,-1,4
88,3.59014,1.125,-1,4
89,3.59126,1.123,-1,4
90,3.59238,1.115,-1,4
91,3.59349,1.114,-1,4
92,3.59461,1.121,-1,4
93,3.59574,1.124,-1,4
94,3.59685,1.117,-1,4
95,3.59796,1.108,-1,4
96,3.59908,1.114,-1,4
97,3.60019,1.119,-1,4
98,3.60131,1.114,-1,4
99,3.60242,1.107,-1,4
100,3.60352,1.109,-1,4
101,3.60464,1.115,-1,4
102,3.60575,1.111,-1,4
103,3.60685,1.104,-1,4
104,3.60796,1.103,-1,4
105,3.60907,1.108,-1,4
106,3.61017,1.108,-1,4
107,3.61128,1.102,-1,4
108,3.61237,1.099,-1,4
109,3.61348,1.102,-1,4
110,3.61458,1.102,-1,4
111,3.61568,1.096,-1,4
112,3.61677,1.093,-1,4
113,3.61786,1.095,-1,4
114,3.61896,1.096,-1,4
115,3.62005,1.087,-1,4
116,3.62113,1.080,-1,4
117,3.62221,1.084,-1,4
118,3.62438,1.086,-1,4
119,3.62546,1.077,-1,4
120,3.62546,1.074,-1,4
121,3.62761,1.079,-1,4
122,3.62761,1.080,-1,4
123,3.62977,1.073,-1,4
124,3.63084,1.069,-1,4
125,3.63191,1.071,-1,4
126,3.63298,1.075,-1,4
127,3.63405,1.071,-1,4
128,3.63512,1.062,-1,4
129,3.63618,1.062,-1,4
130,3.63724,1.067,-1,4
131,3.63831,1.067,-1,4
132,3.63937,1.059,-1,4
133,3.64043,1.056,-1,4
134,3.64149,1.059,-1,4
135,3.64255,1.064,-1,4
136,3.64361,1.057,-1,4
137,3.64465,1.048,-1,4
138,3.64571,1.052,-1,4
139,3.64676,1.058,-1,4
140,3.64782,1.053,-1,4
141,3.64886,1.043,-1,4
142,3.64990,1.041,-1,4
143,3.65095,1.048,-1,4
144,3.65200,1.051,-1,4
145,3.65304,1.039,-1,4
146,3.65407,1.030,-1,4
147,3.65511,1.043,-1,4
148,3.65615,1.037,-1,4
149,3.65719,1.037,-1,4
150,3.65923,1.022,-1,4
151,3.65923,1.029,-1,4
152,3.66026,1.030,-1,4
153,3.66129,1.020,-1,4
154,3.66332,1.010,-1,4
155,3.66433,1.012,-1,4
156,3.66535,1.021,-1,4
157,3.66638,1.020,-1,4
158,3.66738,1.003,-1,4
159,3.66837,0.995,-1,4
160,3.66937,1.003,-1,4
161,3.67039,1.011,-1,4
162,3.67139,1.004,-1,4
163,3.67238,0.989,-1,4
164,3.67336,0.985,-1,4
165,3.67436,0.998,-1,4
166,3.67536,1.000,-1,4
167,3.67635,0.989,-1,4
168,3.67733,0.974,-1,4
169,3.67830,0.975,-1,4
170,3.67929,0.986,-1,4
171,3.68027,0.987,-1,4
172,3.68125,0.976,-1,4
173,3.68221,0.962,-1,4
174,3.68415,0.976,-1,4
175,3.68415,0.974,-1,4
176,3.68513,0.954,-1,4
177,3.68608,0.954,-1,4
178,3.68703,0.950,-1,4
179,3.68799,0.958,-1,4
180,3.68896,0.959,-1,4
181,3.68992,0.941,-1,4
182,3.69180,0.939,-1,4
183,3.69275,0.952,-1,4
184,3.69371,0.958,-1,4
185,3.69465,0.938,-1,4
186,3.69557,0.925,-1,4
187,3.69650,0.928,-1,4
188,3.69744,0.945,-1,4
189,3.69839,0.947,-1,4
190,3.69932,0.924,-1,4
191,3.70022,0.906,-1,4
192,3.70113,0.906,-1,4
193,3.70204,0.914,-1,4
194,3.70295,0.907,-1,4
195,3.70384,0.888,-1,4
196,3.70471,0.878,-1,4
197,3.70560,0.885,-1,4
198,3.70649,0.895,-1,4
199,3.70738,0.886,-1,4
200,3.70825,0.869,-1,4
201,3.70911,0.859,-1,4
202,3.71086,0.880,-1,4
203,3.71086,0.874,-1,4
204,3.71173,0.857,-1,4
205,3.71259,0.857,-1,4
206,3.71344,0.862,-1,4
207,3.71430,0.862,-1,4
208,3.71517,0.861,-1,4
209,3.71603,0.846,-1,4
210,3.71772,0.843,-1,4
211,3.71857,0.851,-1,4
212,3.71943,0.855,-1,4
213,3.72028,0.852,-1,4
214,3.72112,0.843,-1,4
215,3.72196,0.840,-1,4
216,3.72280,0.843,-1,4
217,3.72365,0.845,-1,4
218,3.72449,0.839,-1,4
219,3.72532,0.836,-1,4
220,3.72616,0.836,-1,4
221,3.72700,0.838,-1,4
222,3.72783,0.836,-1,4
223,3.72866,0.831,-1,4
224,3.72949,0.831,-1,4
225,3.73033,0.834,-1,4
226,3.73116,0.829,-1,4
227,3.73198,0.822,-1,4
228,3.73280,0.818,-1,4
229,3.73362,0.821,-1,4
230,3.73444,0.823,-1,4
231,3.73608,0.813,-1,4
232,3.73608,0.809,-1,4
233,3.73689,0.811,-1,4
234,3.73770,0.811,-1,4
235,3.73851,0.812,-1,4
236,3.73932,0.808,-1,4
237,3.74012,0.801,-1,4
238,3.74092,0.796,-1,4
239,3.74251,0.795,-1,4
240,3.74330,0.793,-1,4
241,3.74409,0.789,-1,4
242,3.74487,0.786,-1,4
243,3.74566,0.784,-1,4
244,3.74644,0.779,-1,4
245,3.74721,0.775,-1,4
246,3.74799,0.772,-1,4
247,3.74876,0.772,-1,4
248,3.74953,0.771,-1,4
249,3.75029,0.765,-1,4
250,3.75105,0.759,-1,4
251,3.75181,0.759,-1,4
252,3.75257,0.762,-1,4
253,3.75333,0.760,-1,4
254,3.75408,0.752,-1,4
255,3.75483,0.746,-1,4
256,3.75558,0.748,-1,4
257,3.75632,0.744,-1,4
258,3.75706,0.741,-1,4
259,3.75780,0.739,-1,4
260,3.75854,0.737,-1,4
261,3.76001,0.734,-1,4
262,3.76001,0.729,-1,4
263,3.76146,0.726,-1,4
264,3.76146,0.729,-1,4
265,3.76292,0.724,-1,4
266,3.76292,0.720,-1,4
267,3.76435,0.716,-1,4
268,3.76507,0.711,-1,4
269,3.76578,0.714,-1,4
270,3.76649,0.711,-1,4
271,3.76720,0.711,-1,4
272,3.76791,0.705,-1,4
273,3.76861,0.703,-1,4
274,3.76931,0.704,-1,4
275,3.77001,0.699,-1,4
276,3.77071,0.697,-1,4
277,3.77140,0.691,-1,4
278,3.77209,0.695,-1,4
279,3.77278,0.690,-1,4
280,3.77347,0.688,-1,4
281,3.77416,0.682,-1,4
282,3.77484,0.682,-1,4
283,3.77552,0.681,-1,4
284,3.77620,0.681,-1,4
285,3.77688,0.677,-1,4
286,3.77755,0.674,-1,4
287,3.77889,0.666,-1,4
288,3.77956,0.669,-1,4
289,3.77956,0.669,-1,4
290,3.78088,0.662,-1,4
291,3.78088,0.662,-1,4
292,3.78154,0.659,-1,4
293,3.78220,0.659,-1,4
294,3.78286,0.659,-1,4
295,3.78351,0.653,-1,4
296,3.78416,0.650,-1,4
297,3.78481,0.648,-1,4
298,3.78611,0.646,-1,4
299,3.78675,0.642,-1,4
300,3.78739,0.639,-1,4
301,3.78802,0.638,-1,4
302,3.78866,0.638,-1,4
303,3.78930,0.633,-1,4
304,3.78993,0.630,-1,4
305,3.79056,0.633,-1,4
306,3.79119,0.631,-1,4
307,3.79182,0.626,-1,4
308,3.79244,0.623,-1,4
309,3.79306,0.621,-1,4
310,3.79368,0.619,-1,4
311,3.79430,0.617,-1,4
312,3.79491,0.614,-1,4
313,3.79552,0.612,-1,4
314,3.79613,0.611,-1,4
315,3.79674,0.608,-1,4
316,3.79735,0.608,-1,4
317,3.79796,0.607,-1,4
318,3.79916,0.601,-1,4
319,3.79916,0.600,-1,4
320,3.79976,0.598,-1,4
321,3.80036,0.598,-1,4
322,3.80154,0.592,-1,4
323,3.80213,0.590,-1,4
324,3.80272,0.588,-1,4
325,3.80331,0.586,-1,4
326,3.80389,0.583,-1,4
327,3.80447,0.582,-1,4
328,3.80506,0.584,-1,4
329,3.80564,0.581,-1,4
330,3.80622,0.580,-1,4
331,3.80679,0.576,-1,4
332,3.80737,0.575,-1,4
333,3.80794,0.575,-1,4
334,3.80852,0.573,-1,4
335,3.80909,0.572,-1,4
336,3.80966,0.570,-1,4
337,3.81023,0.571,-1,4
338,3.81080,0.568,-1,4
339,3.81136,0.567,-1,4
340,3.81193,0.565,-1,4
341,3.81249,0.565,-1,4
342,3.81306,0.565,-1,4
343,3.81363,0.565,-1,4
344,3.81419,0.563,-1,4
345,3.81475,0.563,-1,4
346,3.81532,0.562,-1,4
347,3.81588,0.562,-1,4
348,3.81644,0.562,-1,4
349,3.81700,0.561,-1,4
350,3.81756,0.560,-1,4
351,3.81812,0.561,-1,4
352,3.81924,0.561,-1,4
353,3.81980,0.559,-1,4
354,3.82036,0.558,-1,4
355,3.82092,0.559,-1,4
356,3.82148,0.559,-1,4
357,3.82204,0.557,-1,4
358,3.82259,0.556,-1,4
359,3.82315,0.557,-1,4
360,3.82371,0.558,-1,4
361,3.82426,0.555,-1,4
362,3.82481,0.551,-1,4
363,3.82536,0.548,-1,4
364,3.82591,0.549,-1,4
365,3.82646,0.549,-1,4
366,3.82701,0.548,-1,4
367,3.82755,0.546,-1,4
368,3.82810,0.546,-1,4
369,3.82865,0.548,-1,4
370,3.82920,0.549,-1,4
371,3.82974,0.546,-1,4
372,3.83029,0.545,-1,4
373,3.83083,0.546,-1,4
374,3.83138,0.547,-1,4
375,3.83193,0.547,-1,4
376,3.83247,0.545,-1,4
377,3.83302,0.547,-1,4
378,3.83357,0.549,-1,4
379,3.83412,0.549,-1,4
380,3.83467,0.548,-1,4
381,3.83576,0.550,-1,4
382,3.83576,0.552,-1,4
383,3.83687,0.553,-1,4
384,3.83687,0.554,-1,4
385,3.83798,0.555,-1,4
386,3.83798,0.556,-1,4
387,3.83853,0.556,-1,4
388,3.83965,0.558,-1,4
389,3.84021,0.558,-1,4
390,3.84077,0.558,-1,4
391,3.84133,0.560,-1,4
392,3.84189,0.562,-1,4
393,3.84245,0.563,-1,4
394,3.84302,0.564,-1,4
395,3.84358,0.563,-1,4
396,3.84415,0.565,-1,4
397,3.84471,0.568,-1,4
398,3.84528,0.568,-1,4
399,3.84585,0.568,-1,4
400,3.84642,0.567,-1,4
401,3.84699,0.570,-1,4
402,3.84756,0.573,-1,4
403,3.84813,0.572,-1,4
404,3.84870,0.570,-1,4
405,3.84927,0.568,-1,4
406,3.84984,0.567,-1,4
407,3.85040,0.561,-1,4
408,3.85096,0.561,-1,4
409,3.85209,0.565,-1,4
410,3.85209,0.564,-1,4
411,3.85321,0.562,-1,4
412,3.85378,0.561,-1,4
413,3.85434,0.565,-1,4
414,3.85491,0.567,-1,4
415,3.85547,0.566,-1,4
416,3.85604,0.565,-1,4
417,3.85661,0.568,-1,4
418,3.85718,0.572,-1,4
419,3.85775,0.572,-1,4
420,3.85832,0.570,-1,4
421,3.85889,0.570,-1,4
422,3.85946,0.574,-1,4
423,3.86004,0.576,-1,4
424,3.86062,0.580,-1,4
425,3.86120,0.581,-1,4
426,3.86178,0.583,-1,4
427,3.86237,0.589,-1,4
428,3.86296,0.589,-1,4
429,3.86354,0.589,-1,4
430,3.86413,0.590,-1,4
431,3.86472,0.590,-1,4
432,3.86532,0.596,-1,4
433,3.86592,0.600,-1,4
434,3.86652,0.602,-1,4
435,3.86712,0.603,-1,4
436,3.86773,0.602,-1,4
437,3.86833,0.605,-1,4
438,3.86894,0.610,-1,4
439,3.86955,0.612,-1,4
440,3.87017,0.612,-1,4
441,3.87078,0.615,-1,4
442,3.87140,0.618,-1,4
443,3.87202,0.621,-1,4
444,3.87264,0.622,-1,4
445,3.87326,0.622,-1,4
446,3.87389,0.626,-1,4
447,3.87515,0.631,-1,4
448,3.87578,0.633,-1,4
449,3.87578,0.636,-1,4
450,3.87705,0.636,-1,4
451,3.87769,0.635,-1,4
452,3.87833,0.640,-1,4
453,3.87897,0.642,-1,4
454,3.87961,0.642,-1,4
455,3.88026,0.644,-1,4
456,3.88090,0.647,-1,4
457,3.88155,0.649,-1,4
458,3.88220,0.650,-1,4
459,3.88285,0.651,-1,4
460,3.88350,0.649,-1,4
461,3.88415,0.650,-1,4
462,3.88480,0.648,-1,4
463,3.88545,0.646,-1,4
464,3.88609,0.649,-1,4
465,3.88674,0.648,-1,4
466,3.88739,0.647,-1,4
467,3.88868,0.647,-1,4
468,3.88933,0.649,-1,4
469,3.88999,0.656,-1,4
470,3.89065,0.657,-1,4
471,3.89130,0.656,-1,4
472,3.89196,0.657,-1,4
473,3.89262,0.658,-1,4
474,3.89328,0.665,-1,4
475,3.89395,0.669,-1,4
476,3.89462,0.671,-1,4
477,3.89529,0.672,-1,4
478,3.89596,0.671,-1,4
479,3.89664,0.678,-1,4
480,3.89732,0.678,-1,4
481,3.89800,0.683,-1,4
482,3.89869,0.684,-1,4
483,3.89938,0.690,-1,4
484,3.90007,0.692,-1,4
485,3.90076,0.697,-1,4
486,3.90146,0.697,-1,4
487,3.90216,0.699,-1,4
488,3.90286,0.701,-1,4
489,3.90357,0.707,-1,4
490,3.90428,0.711,-1,4
491,3.90499,0.713,-1,4
492,3.90571,0.712,-1,4
493,3.90642,0.712,-1,4
494,3.90713,0.716,-1,4
495,3.90858,0.727,-1,4
496,3.90858,0.729,-1,4
497,3.91004,0.727,-1,4
498,3.91004,0.728,-1,4
499,3.91076,0.728,-1,4
500,3.91149,0.728,-1,4
501,3.91222,0.731,-1,4
502,3.91296,0.738,-1,4
503,3.91444,0.736,-1,4
504,3.91518,0.741,-1,4
505,3.91592,0.739,-1,4
506,3.91666,0.741,-1,4
507,3.91741,0.748,-1,4
508,3.91816,0.750,-1,4
509,3.91891,0.751,-1,4
510,3.91966,0.751,-1,4
511,3.92041,0.751,-1,4
512,3.92116,0.750,-1,4
513,3.92191,0.752,-1,4
514,3.92267,0.766,-1,4
515,3.92344,0.766,-1,4
516,3.92420,0.764,-1,4
517,3.92497,0.764,-1,4
518,3.92573,0.764,-1,4
519,3.92650,0.767,-1,4
520,3.92805,0.777,-1,4
521,3.92882,0.776,-1,4
522,3.92960,0.773,-1,4
523,3.93037,0.772,-1,4
524,3.93115,0.780,-1,4
525,3.93194,0.788,-1,4
526,3.93273,0.793,-1,4
527,3.93352,0.791,-1,4
528,3.93431,0.785,-1,4
529,3.93509,0.788,-1,4
530,3.93589,0.792,-1,4
531,3.93669,0.800,-1,4
532,3.93749,0.804,-1,4
533,3.93829,0.804,-1,4
534,3.93909,0.800,-1,4
535,3.93989,0.800,-1,4
536,3.94070,0.807,-1,4
537,3.94152,0.815,-1,4
538,3.94234,0.819,-1,4
539,3.94315,0.817,-1,4
540,3.94396,0.812,-1,4
541,3.94478,0.810,-1,4
542,3.94560,0.821,-1,4
543,3.94643,0.830,-1,4
544,3.94726,0.835,-1,4
545,3.94809,0.829,-1,4
546,3.94892,0.826,-1,4
547,3.94975,0.828,-1,4
548,3.95058,0.837,-1,4
549,3.95143,0.845,-1,4
550,3.95311,0.840,-1,4
551,3.95395,0.839,-1,4
552,3.95480,0.844,-1,4
553,3.95565,0.856,-1,4
554,3.95652,0.864,-1,4
555,3.95738,0.863,-1,4
556,3.95823,0.855,-1,4
557,3.95909,0.853,-1,4
558,3.95995,0.860,-1,4
559,3.96082,0.872,-1,4
560,3.96170,0.879,-1,4
561,3.96257,0.874,-1,4
562,3.96344,0.867,-1,4
563,3.96431,0.870,-1,4
564,3.96519,0.882,-1,4
565,3.96608,0.893,-1,4
566,3.96698,0.893,-1,4
567,3.96786,0.878,-1,4
568,3.96962,0.886,-1,4
569,3.97052,0.902,-1,4
570,3.97143,0.908,-1,4
571,3.97233,0.900,-1,4
572,3.97322,0.890,-1,4
573,3.97411,0.894,-1,4
574,3.97503,0.911,-1,4
575,3.97594,0.920,-1,4
576,3.97686,0.914,-1,4
577,3.97776,0.902,-1,4
578,3.97866,0.902,-1,4
579,3.97958,0.915,-1,4
580,3.98051,0.932,-1,4
581,3.98144,0.931,-1,4
582,3.98236,0.915,-1,4
583,3.98327,0.913,-1,4
584,3.98419,0.922,-1,4
585,3.98513,0.936,-1,4
586,3.98607,0.944,-1,4
587,3.98700,0.931,-1,4
588,3.98886,0.932,-1,4
589,3.98886,0.949,-1,4
590,3.98981,0.949,-1,4
591,3.99076,0.955,-1,4
592,3.99170,0.940,-1,4
593,3.99263,0.929,-1,4
594,3.99357,0.937,-1,4
595,3.99452,0.956,-1,4
596,3.99549,0.968,-1,4
597,3.99644,0.952,-1,4
598,3.99738,0.942,-1,4
599,3.99832,0.963,-1,4
600,3.99929,0.963,-1,4
601,4.00026,0.957,-1,4
602,4.00122,0.957,-1,4
603,4.00216,0.952,-1,4
604,4.00311,0.952,-1,4
605,4.00506,0.979,-1,4
606,4.00603,0.963,-1,4
607,4.00698,0.947,-1,4
608,4.00793,0.957,-1,4
609,4.00891,0.976,-1,4
610,4.00989,0.984,-1,4
611,4.01086,0.971,-1,4
612,4.01182,0.959,-1,4
613,4.01279,0.967,-1,4
614,4.01378,0.987,-1,4
615,4.01477,0.989,-1,4
616,4.01574,0.972,-1,4
617,4.01670,0.961,-1,4
618,4.01767,0.975,-1,4
619,4.01867,0.998,-1,4
620,4.01967,0.997,-1,4
621,4.02065,0.981,-1,4
622,4.02162,0.968,-1,4
623,4.02260,0.983,-1,4
624,4.02361,1.003,-1,4
625,4.02460,0.999,-1,4
626,4.02559,0.984,-1,4
627,4.02657,0.978,-1,4
628,4.02756,0.998,-1,4
629,4.02857,1.011,-1,4
630,4.02958,1.001,-1,4
631,4.03056,0.985,-1,4
632,4.03154,0.983,-1,4
633,4.03255,1.005,-1,4
634,4.03357,1.018,-1,4
635,4.03457,1.006,-1,4
636,4.03557,0.993,-1,4
637,4.03656,0.998,-1,4
638,4.03860,1.022,-1,4
639,4.03860,1.005,-1,4
640,4.03961,0.997,-1,4
641,4.04060,0.997,-1,4
642,4.04162,1.030,-1,4
643,4.04264,1.030,-1,4
644,4.04468,1.011,-1,4
645,4.04569,1.004,-1,4
646,4.04671,1.019,-1,4
647,4.04774,1.036,-1,4
648,4.04877,1.031,-1,4
649,4.04979,1.016,-1,4
650,4.05081,1.018,-1,4
651,4.05184,1.036,-1,4
652,4.05288,1.041,-1,4
653,4.05391,1.030,-1,4
654,4.05494,1.022,-1,4
655,4.05596,1.029,-1,4
656,4.05701,1.042,-1,4
657,4.05805,1.046,-1,4
658,4.05909,1.036,-1,4
659,4.06012,1.033,-1,4
660,4.06116,1.041,-1,4
661,4.06221,1.049,-1,4
662,4.06326,1.044,-1,4
663,4.06430,1.041,-1,4
664,4.06534,1.045,-1,4
665,4.06640,1.058,-1,4
666,4.06851,1.050,-1,4
667,4.06956,1.050,-1,4
668,4.07061,1.056,-1,4
669,4.07167,1.060,-1,4
670,4.07273,1.062,-1,4
671,4.07380,1.061,-1,4
672,4.07486,1.064,-1,4
673,4.07593,1.071,-1,4
674,4.07700,1.067,-1,4
675,4.07806,1.065,-1,4
676,4.07913,1.067,-1,4
677,4.08021,1.077,-1,4
678,4.08129,1.079,-1,4
679,4.08236,1.074,-1,4
680,4.08343,1.072,-1,4
681,4.08451,1.080,-1,4
682,4.08559,1.082,-1,4
683,4.08667,1.078,-1,4
684,4.08775,1.085,-1,4
685,4.08993,1.092,-1,4
686,4.09102,1.088,-1,4
687,4.09210,1.081,-1,4
688,4.09318,1.081,-1,4
689,4.09427,1.091,-1,4
690,4.09537,1.097,-1,4
691,4.09646,1.092,-1,4
692,4.09755,1.089,-1,4
693,4.09864,1.094,-1,4
694,4.09974,1.100,-1,4
695,4.10084,1.096,-1,4
696,4.10193,1.091,-1,4
697,4.10302,1.096,-1,4
698,4.10413,1.102,-1,4
699,4.10523,1.103,-1,4
700,4.10633,1.099,-1,4
701,4.10743,1.101,-1,4
702,4.10853,1.103,-1,4
703,4.10964,1.100,-1,4
704,4.11074,1.100,-1,4
705,4.11295,1.109,-1,4
706,4.11295,1.109,-1,4
707,4.11516,1.104,-1,4
708,4.11516,1.100,-1,4
709,4.11626,1.105,-1,4
710,4.11736,1.111,-1,4
711,4.11958,1.108,-1,4
712,4.12069,1.105,-1,4
713,4.12180,1.107,-1,4
714,4.12291,1.112,-1,4
715,4.12402,1.111,-1,4
716,4.12512,1.105,-1,4
717,4.12623,1.105,-1,4
718,4.12734,1.113,-1,4
719,4.12846,1.116,-1,4
720,4.12957,1.111,-1,4
721,4.13068,1.108,-1,4
722,4.13179,1.111,-1,4
723,4.13290,1.112,-1,4
724,4.13401,1.109,-1,4
725,4.13512,1.109,-1,4
726,4.13623,1.115,-1,4
727,4.13735,1.119,-1,4
728,4.13847,1.113,-1,4
729,4.13957,1.105,-1,4
730,4.14068,1.106,-1,4
731,4.14290,1.113,-1,4
732,4.14401,1.110,-1,4
733,4.14512,1.110,-1,4
734,4.14623,1.112,-1,4
735,4.14735,1.110,-1,4
736,4.14845,1.105,-1,4
737,4.14955,1.104,-1,4
738,4.15066,1.110,-1,4
739,4.15178,1.113,-1,4
740,4.15289,1.110,-1,4
741,4.15399,1.106,-1,4
742,4.15510,1.109,-1,4
743,4.15621,1.109,-1,4
744,4.15731,1.104,-1,4
745,4.15841,1.100,-1,4
746,4.15952,1.106,-1,4
747,4.16063,1.113,-1,4
748,4.16174,1.110,-1,4
749,4.16284,1.101,-1,4
750,4.16505,1.104,-1,4
751,4.16615,1.105,-1,4
752,4.16725,1.101,-1,4
753,4.16835,1.100,-1,4
754,4.16946,1.104,-1,4
755,4.17056,1.103,-1,4
756,4.17165,1.096,-1,4
757,4.17275,1.091,-1,4
758,4.17384,1.098,-1,4
759,4.17495,1.103,-1,4
760,4.17605,1.101,-1,4
761,4.17714,1.093,-1,4
762,4.17823,1.091,-1,4
763,4.17933,1.095,-1,4
764,4.18042,1.096,-1,4
765,4.18151,1.092,-1,4
766,4.18260,1.091,-1,4
767,4.18370,1.096,-1,4
768,4.18479,1.095,-1,4
769,4.18697,1.086,-1,4
770,4.18697,1.086,-1,4
771,4.18915,1.094,-1,4
772,4.18915,1.090,-1,4
773,4.19133,1.086,-1,4
774,4.19133,1.086,-1,4
775,4.19242,1.089,-1,4
776,4.19351,1.090,-1,4
777,4.19568,1.080,-1,4
778,4.19676,1.078,-1,4
779,4.19785,1.087,-1,4
780,4.19894,1.090,-1,4
781,4.20002,1.087,-1,4
782,4.20111,1.081,-1,4
783,4.20219,1.081,-1,4
784,4.20327,1.082,-1,4
785,4.20435,1.080,-1,4
786,4.20542,1.075,-1,4
787,4.20650,1.080,-1,4
788,4.20759,1.086,-1,4
789,4.20868,1.086,-1,4
790,4.20975,1.074,-1,4
791,4.21082,1.070,-1,4
792,4.21189,1.074,-1,4
793,4.21297,1.081,-1,4
794,4.21405,1.079,-1,4
795,4.21513,1.075,-1,4
796,4.21621,1.076,-1,4
797,4.21728,1.073,-1,4
798,4.21835,1.068,-1,4
799,4.21942,1.068,-1,4
800,4.22157,1.077,-1,4
801,4.22157,1.079,-1,4
802,4.22265,1.071,-1,4
803,4.22372,1.071,-1,4
804,4.22479,1.070,-1,4
805,4.22586,1.073,-1,4
806,4.22800,1.071,-1,4
807,4.22907,1.066,-1,4
808,4.23014,1.072,-1,4
809,4.23122,1.079,-1,4
810,4.23229,1.074,-1,4
811,4.23336,1.064,-1,4
812,4.23442,1.067,-1,4
813,4.23550,1.072,-1,4
814,4.23657,1.077,-1,4
815,4.23765,1.073,-1,4
816,4.23871,1.069,-1,4
817,4.23979,1.074,-1,4
818,4.24087,1.079,-1,4
819,4.24194,1.073,-1,4
820,4.24301,1.067,-1,4
821,4.24408,1.070,-1,4
822,4.24516,1.080,-1,4
823,4.24624,1.083,-1,4
824,4.24732,1.078,-1,4
825,4.24839,1.072,-1,4
826,4.24947,1.077,-1,4
827,4.25055,1.081,-1,4
828,4.25163,1.078,-1,4
829,4.25270,1.075,-1,4
830,4.25378,1.081,-1,4
831,4.25487,1.087,-1,4
832,4.25596,1.085,-1,4
833,4.25703,1.077,-1,4
834,4.25811,1.085,-1,4
835,4.25920,1.085,-1,4
836,4.26028,1.084,-1,4
837,4.26137,1.084,-1,4
838,4.26245,1.082,-1,4
839,4.26354,1.086,-1,4
840,4.26463,1.090,-1,4
841,4.26571,1.087,-1,4
842,4.26788,1.087,-1,4
843,4.26898,1.095,-1,4
844,4.27007,1.095,-1,4
845,4.27116,1.089,-1,4
846,4.27225,1.089,-1,4
847,4.27335,1.094,-1,4
848,4.27444,1.095,-1,4
849,4.27553,1.092,-1,4
850,4.27663,1.093,-1,4
851,4.27773,1.100,-1,4
852,4.27883,1.103,-1,4
853,4.27993,1.097,-1,4
854,4.28102,1.092,-1,4
855,4.28211,1.097,-1,4
856,4.28322,1.104,-1,4
857,4.28432,1.103,-1,4
858,4.28542,1.099,-1,4
859,4.28652,1.102,-1,4
860,4.28763,1.109,-1,4
861,4.28874,1.107,-1,4
862,4.28984,1.100,-1,4
863,4.29094,1.110,-1,4
864,4.29205,1.110,-1,4
865,4.29317,1.112,-1,4
866,4.29428,1.112,-1,4
867,4.29538,1.111,-1,4
868,4.29649,1.117,-1,4
869,4.29873,1.116,-1,4
870,4.29984,1.112,-1,4
871,4.30096,1.119,-1,4
872,4.30208,1.127,-1,4
873,4.30321,1.124,-1,4
