cnt,pos,speed,Dir,Force,
1,3.34228,1.402,-1,4
2,3.34369,1.411,-1,4
3,3.34511,1.417,-1,4
4,3.34652,1.409,-1,4
5,3.34792,1.403,-1,4
6,3.34933,1.413,-1,4
7,3.35076,1.431,-1,4
8,3.35220,1.433,-1,4
9,3.35363,1.433,-1,4
10,3.35506,1.430,-1,4
11,3.35649,1.427,-1,4
12,3.35792,1.455,-1,4
13,3.36084,1.463,-1,4
14,3.36230,1.456,-1,4
15,3.36375,1.449,-1,4
16,3.36520,1.455,-1,4
17,3.36668,1.473,-1,4
18,3.36817,1.490,-1,4
19,3.36965,1.487,-1,4
20,3.37113,1.477,-1,4
21,3.37261,1.476,-1,4
22,3.37410,1.495,-1,4
23,3.37562,1.516,-1,4
24,3.37713,1.516,-1,4
25,3.37864,1.507,-1,4
26,3.38014,1.497,-1,4
27,3.38165,1.512,-1,4
28,3.38319,1.540,-1,4
29,3.38474,1.552,-1,4
30,3.38628,1.534,-1,4
31,3.38780,1.522,-1,4
32,3.38933,1.531,-1,4
33,3.39089,1.559,-1,4
34,3.39247,1.580,-1,4
35,3.39404,1.568,-1,4
36,3.39558,1.544,-1,4
37,3.39713,1.547,-1,4
38,3.39870,1.575,-1,4
39,3.40030,1.597,-1,4
40,3.40190,1.597,-1,4
41,3.40347,1.573,-1,4
42,3.40662,1.586,-1,4
43,3.40823,1.614,-1,4
44,3.40985,1.615,-1,4
45,3.41144,1.596,-1,4
46,3.41302,1.581,-1,4
47,3.41462,1.593,-1,4
48,3.41624,1.622,-1,4
49,3.41787,1.631,-1,4
50,3.41948,1.614,-1,4
51,3.42108,1.601,-1,4
52,3.42269,1.605,-1,4
53,3.42432,1.628,-1,4
54,3.42596,1.643,-1,4
55,3.42759,1.632,-1,4
56,3.42921,1.615,-1,4
57,3.43083,1.622,-1,4
58,3.43247,1.640,-1,4
59,3.43412,1.651,-1,4
60,3.43576,1.643,-1,4
61,3.43739,1.631,-1,4
62,3.43903,1.658,-1,4
63,3.44069,1.659,-1,4
64,3.44235,1.649,-1,4
65,3.44400,1.649,-1,4
66,3.44564,1.644,-1,4
67,3.44730,1.658,-1,4
68,3.44897,1.673,-1,4
69,3.45064,1.668,-1,4
70,3.45229,1.653,-1,4
71,3.45563,1.676,-1,4
72,3.45731,1.681,-1,4
73,3.45898,1.672,-1,4
74,3.46064,1.660,-1,4
75,3.46231,1.671,-1,4
76,3.46400,1.689,-1,4
77,3.46569,1.688,-1,4
78,3.46736,1.673,-1,4
79,3.46903,1.669,-1,4
80,3.47071,1.681,-1,4
81,3.47241,1.698,-1,4
82,3.47410,1.692,-1,4
83,3.47578,1.674,-1,4
84,3.47745,1.678,-1,4
85,3.47915,1.695,-1,4
86,3.48085,1.701,-1,4
87,3.48254,1.692,-1,4
88,3.48422,1.678,-1,4
89,3.48591,1.686,-1,4
90,3.48761,1.706,-1,4
91,3.48932,1.688,-1,4
92,3.49101,1.688,-1,4
93,3.49269,1.680,-1,4
94,3.49438,1.694,-1,4
95,3.49610,1.714,-1,4
96,3.49780,1.706,-1,4
97,3.49949,1.688,-1,4
98,3.50288,1.707,-1,4
99,3.50460,1.717,-1,4
100,3.50630,1.707,-1,4
101,3.50799,1.687,-1,4
102,3.50969,1.694,-1,4
103,3.51140,1.720,-1,4
104,3.51313,1.722,-1,4
105,3.51483,1.703,-1,4
106,3.51652,1.694,-1,4
107,3.51823,1.704,-1,4
108,3.51996,1.728,-1,4
109,3.52168,1.721,-1,4
110,3.52338,1.701,-1,4
111,3.52508,1.702,-1,4
112,3.52680,1.717,-1,4
113,3.52852,1.728,-1,4
114,3.53024,1.714,-1,4
115,3.53194,1.700,-1,4
116,3.53365,1.712,-1,4
117,3.53538,1.728,-1,4
118,3.53710,1.724,-1,4
119,3.53881,1.708,-1,4
120,3.54051,1.700,-1,4
121,3.54223,1.719,-1,4
122,3.54396,1.734,-1,4
123,3.54568,1.720,-1,4
124,3.54738,1.700,-1,4
125,3.54909,1.705,-1,4
126,3.55255,1.735,-1,4
127,3.55426,1.715,-1,4
128,3.55596,1.696,-1,4
129,3.55766,1.708,-1,4
130,3.55939,1.728,-1,4
131,3.56112,1.730,-1,4
132,3.56283,1.711,-1,4
133,3.56453,1.697,-1,4
134,3.56624,1.711,-1,4
135,3.56797,1.728,-1,4
136,3.56969,1.723,-1,4
137,3.57140,1.709,-1,4
138,3.57310,1.705,-1,4
139,3.57482,1.712,-1,4
140,3.57654,1.722,-1,4
141,3.57826,1.719,-1,4
142,3.57997,1.710,-1,4
143,3.58168,1.713,-1,4
144,3.58339,1.712,-1,4
145,3.58511,1.716,-1,4
146,3.58854,1.713,-1,4
147,3.58854,1.717,-1,4
148,3.59197,1.715,-1,4
149,3.59197,1.712,-1,4
150,3.59540,1.717,-1,4
151,3.59540,1.717,-1,4
152,3.59884,1.716,-1,4
153,3.59884,1.713,-1,4
154,3.60226,1.711,-1,4
155,3.60398,1.716,-1,4
156,3.60570,1.719,-1,4
157,3.60741,1.711,-1,4
158,3.60912,1.709,-1,4
159,3.61083,1.711,-1,4
160,3.61254,1.713,-1,4
161,3.61426,1.715,-1,4
162,3.61596,1.708,-1,4
163,3.61767,1.705,-1,4
164,3.61938,1.712,-1,4
165,3.62109,1.710,-1,4
166,3.62279,1.704,-1,4
167,3.62450,1.704,-1,4
168,3.62620,1.703,-1,4
169,3.62791,1.707,-1,4
170,3.62961,1.705,-1,4
171,3.63131,1.699,-1,4
172,3.63301,1.698,-1,4
173,3.63471,1.697,-1,4
174,3.63640,1.701,-1,4
175,3.63810,1.696,-1,4
176,3.63980,1.690,-1,4
177,3.64149,1.690,-1,4
178,3.64318,1.689,-1,4
179,3.64487,1.689,-1,4
180,3.64656,1.690,-1,4
181,3.64825,1.690,-1,4
182,3.64994,1.681,-1,4
183,3.65330,1.685,-1,4
184,3.65499,1.686,-1,4
185,3.65667,1.684,-1,4
186,3.65835,1.676,-1,4
187,3.66002,1.673,-1,4
188,3.66169,1.675,-1,4
189,3.66337,1.673,-1,4
190,3.66504,1.674,-1,4
191,3.66671,1.673,-1,4
192,3.66838,1.667,-1,4
193,3.67004,1.661,-1,4
194,3.67171,1.662,-1,4
195,3.67337,1.664,-1,4
196,3.67504,1.667,-1,4
197,3.67670,1.661,-1,4
198,3.67835,1.651,-1,4
199,3.68000,1.649,-1,4
200,3.68165,1.654,-1,4
201,3.68331,1.659,-1,4
202,3.68497,1.656,-1,4
203,3.68661,1.643,-1,4
204,3.68824,1.634,-1,4
205,3.68989,1.643,-1,4
206,3.69154,1.649,-1,4
207,3.69318,1.645,-1,4
208,3.69481,1.632,-1,4
209,3.69643,1.620,-1,4
210,3.69806,1.627,-1,4
211,3.69970,1.639,-1,4
212,3.70133,1.633,-1,4
213,3.70295,1.608,-1,4
214,3.70617,1.615,-1,4
215,3.70617,1.615,-1,4
216,3.70780,1.620,-1,4
217,3.70942,1.620,-1,4
218,3.71102,1.599,-1,4
219,3.71261,1.594,-1,4
220,3.71423,1.612,-1,4
221,3.71584,1.617,-1,4
222,3.71903,1.583,-1,4
223,3.72061,1.584,-1,4
224,3.72222,1.606,-1,4
225,3.72383,1.609,-1,4
226,3.72541,1.584,-1,4
227,3.72698,1.567,-1,4
228,3.72856,1.579,-1,4
229,3.73015,1.597,-1,4
230,3.73175,1.596,-1,4
231,3.73332,1.570,-1,4
232,3.73487,1.556,-1,4
233,3.73644,1.568,-1,4
234,3.73803,1.589,-1,4
235,3.73961,1.582,-1,4
236,3.74117,1.558,-1,4
237,3.74271,1.543,-1,4
238,3.74427,1.559,-1,4
239,3.74585,1.578,-1,4
240,3.74742,1.569,-1,4
241,3.74897,1.545,-1,4
242,3.75050,1.535,-1,4
243,3.75205,1.551,-1,4
244,3.75362,1.567,-1,4
245,3.75518,1.558,-1,4
246,3.75671,1.535,-1,4
247,3.75824,1.525,-1,4
248,3.75978,1.544,-1,4
249,3.76134,1.560,-1,4
250,3.76289,1.528,-1,4
251,3.76593,1.519,-1,4
252,3.76747,1.535,-1,4
253,3.76902,1.550,-1,4
254,3.77056,1.543,-1,4
255,3.77208,1.519,-1,4
256,3.77359,1.511,-1,4
257,3.77512,1.528,-1,4
258,3.77666,1.539,-1,4
259,3.77819,1.535,-1,4
260,3.77971,1.514,-1,4
261,3.78121,1.504,-1,4
262,3.78273,1.514,-1,4
263,3.78426,1.535,-1,4
264,3.78579,1.525,-1,4
265,3.78730,1.509,-1,4
266,3.78879,1.497,-1,4
267,3.79030,1.508,-1,4
268,3.79182,1.521,-1,4
269,3.79484,1.500,-1,4
270,3.79484,1.488,-1,4
271,3.79633,1.488,-1,4
272,3.79783,1.501,-1,4
273,3.79935,1.515,-1,4
274,3.80085,1.509,-1,4
275,3.80235,1.491,-1,4
276,3.80383,1.485,-1,4
277,3.80532,1.489,-1,4
278,3.80833,1.503,-1,4
279,3.80981,1.485,-1,4
280,3.81129,1.476,-1,4
281,3.81277,1.481,-1,4
282,3.81426,1.494,-1,4
283,3.81576,1.497,-1,4
284,3.81724,1.481,-1,4
285,3.81871,1.471,-1,4
286,3.82018,1.470,-1,4
287,3.82166,1.482,-1,4
288,3.82315,1.490,-1,4
289,3.82463,1.477,-1,4
290,3.82610,1.466,-1,4
291,3.82756,1.463,-1,4
292,3.82903,1.469,-1,4
293,3.83051,1.478,-1,4
294,3.83198,1.477,-1,4
295,3.83344,1.454,-1,4
296,3.83636,1.461,-1,4
297,3.83636,1.468,-1,4
298,3.83783,1.468,-1,4
299,3.83929,1.465,-1,4
300,3.84075,1.457,-1,4
301,3.84220,1.452,-1,4
302,3.84365,1.452,-1,4
303,3.84511,1.461,-1,4
304,3.84657,1.448,-1,4
305,3.84946,1.442,-1,4
306,3.85090,1.445,-1,4
307,3.85235,1.449,-1,4
308,3.85380,1.450,-1,4
309,3.85524,1.443,-1,4
310,3.85668,1.433,-1,4
311,3.85811,1.432,-1,4
312,3.85955,1.441,-1,4
313,3.86099,1.438,-1,4
314,3.86242,1.432,-1,4
315,3.86385,1.429,-1,4
316,3.86527,1.426,-1,4
317,3.86670,1.425,-1,4
318,3.86812,1.425,-1,4
319,3.86955,1.423,-1,4
320,3.87097,1.420,-1,4
321,3.87239,1.418,-1,4
322,3.87380,1.419,-1,4
323,3.87521,1.409,-1,4
324,3.87662,1.408,-1,4
325,3.87803,1.413,-1,4
326,3.87945,1.413,-1,4
327,3.88085,1.406,-1,4
328,3.88225,1.401,-1,4
329,3.88365,1.400,-1,4
330,3.88505,1.397,-1,4
331,3.88645,1.400,-1,4
332,3.88785,1.400,-1,4
333,3.88925,1.395,-1,4
334,3.89202,1.389,-1,4
335,3.89341,1.390,-1,4
336,3.89480,1.391,-1,4
337,3.89480,1.388,-1,4
338,3.89619,1.384,-1,4
339,3.89757,1.384,-1,4
340,3.89895,1.380,-1,4
341,3.90033,1.380,-1,4
342,3.90172,1.386,-1,4
343,3.90449,1.380,-1,4
344,3.90586,1.375,-1,4
345,3.90723,1.372,-1,4
346,3.90861,1.376,-1,4
347,3.90999,1.383,-1,4
348,3.91138,1.386,-1,4
349,3.91275,1.376,-1,4
350,3.91412,1.366,-1,4
351,3.91549,1.368,-1,4
352,3.91686,1.377,-1,4
353,3.91825,1.382,-1,4
354,3.91963,1.383,-1,4
355,3.92100,1.374,-1,4
356,3.92237,1.364,-1,4
357,3.92373,1.368,-1,4
358,3.92512,1.381,-1,4
359,3.92650,1.386,-1,4
360,3.92788,1.382,-1,4
361,3.92926,1.373,-1,4
362,3.93063,1.369,-1,4
363,3.93200,1.372,-1,4
364,3.93338,1.386,-1,4
365,3.93477,1.391,-1,4
366,3.93616,1.383,-1,4
367,3.93753,1.371,-1,4
368,3.93890,1.373,-1,4
369,3.94029,1.384,-1,4
370,3.94168,1.391,-1,4
371,3.94307,1.389,-1,4
372,3.94445,1.382,-1,4
373,3.94582,1.380,-1,4
374,3.94720,1.380,-1,4
375,3.94859,1.398,-1,4
376,3.94999,1.398,-1,4
377,3.95138,1.387,-1,4
378,3.95276,1.379,-1,4
379,3.95414,1.381,-1,4
380,3.95553,1.400,-1,4
381,3.95833,1.400,-1,4
382,3.95972,1.391,-1,4
383,3.96110,1.381,-1,4
384,3.96249,1.389,-1,4
385,3.96389,1.400,-1,4
386,3.96530,1.405,-1,4
387,3.96670,1.404,-1,4
388,3.96810,1.397,-1,4
389,3.96949,1.390,-1,4
390,3.97088,1.395,-1,4
391,3.97229,1.409,-1,4
392,3.97370,1.412,-1,4
393,3.97511,1.405,-1,4
394,3.97651,1.403,-1,4
395,3.97791,1.401,-1,4
396,3.97931,1.403,-1,4
397,3.98073,1.415,-1,4
398,3.98215,1.420,-1,4
399,3.98356,1.415,-1,4
400,3.98497,1.407,-1,4
401,3.98638,1.412,-1,4
402,3.98780,1.427,-1,4
403,3.99065,1.427,-1,4
404,3.99065,1.424,-1,4
405,3.99349,1.415,-1,4
406,3.99349,1.424,-1,4
407,3.99492,1.442,-1,4
408,3.99636,1.440,-1,4
409,3.99923,1.431,-1,4
410,4.00066,1.427,-1,4
411,4.00209,1.434,-1,4
412,4.00354,1.447,-1,4
413,4.00499,1.455,-1,4
414,4.00644,1.448,-1,4
415,4.00788,1.437,-1,4
416,4.00932,1.442,-1,4
417,4.01078,1.458,-1,4
418,4.01224,1.465,-1,4
419,4.01370,1.462,-1,4
420,4.01516,1.454,-1,4
421,4.01661,1.465,-1,4
422,4.01807,1.465,-1,4
423,4.01955,1.477,-1,4
424,4.02103,1.477,-1,4
425,4.02397,1.467,-1,4
426,4.02397,1.467,-1,4
427,4.02544,1.474,-1,4
428,4.02693,1.489,-1,4
429,4.02842,1.485,-1,4
430,4.03138,1.477,-1,4
431,4.03287,1.488,-1,4
432,4.03437,1.501,-1,4
433,4.03587,1.503,-1,4
434,4.03737,1.499,-1,4
435,4.03887,1.497,-1,4
436,4.04036,1.494,-1,4
437,4.04187,1.512,-1,4
438,4.04340,1.521,-1,4
439,4.04491,1.517,-1,4
440,4.04642,1.504,-1,4
441,4.04793,1.512,-1,4
442,4.04945,1.523,-1,4
443,4.05099,1.535,-1,4
444,4.05252,1.533,-1,4
445,4.05404,1.525,-1,4
446,4.05556,1.521,-1,4
447,4.05710,1.537,-1,4
448,4.05865,1.546,-1,4
449,4.06174,1.544,-1,4
450,4.06328,1.538,-1,4
451,4.06328,1.546,-1,4
452,4.06482,1.557,-1,4
453,4.06638,1.557,-1,4
454,4.06950,1.562,-1,4
455,4.06950,1.556,-1,4
456,4.07106,1.557,-1,4
457,4.07262,1.569,-1,4
458,4.07577,1.582,-1,4
459,4.07734,1.578,-1,4
460,4.07892,1.571,-1,4
461,4.08049,1.570,-1,4
462,4.08207,1.583,-1,4
463,4.08366,1.595,-1,4
464,4.08526,1.596,-1,4
465,4.08684,1.581,-1,4
466,4.08842,1.578,-1,4
467,4.09002,1.596,-1,4
468,4.09163,1.610,-1,4
469,4.09323,1.606,-1,4
470,4.09483,1.595,-1,4
471,4.09642,1.590,-1,4
472,4.09802,1.607,-1,4
473,4.09965,1.626,-1,4
474,4.10127,1.622,-1,4
475,4.10288,1.606,-1,4
476,4.10448,1.604,-1,4
477,4.10610,1.616,-1,4
478,4.10773,1.636,-1,4
479,4.10937,1.627,-1,4
480,4.11100,1.617,-1,4
481,4.11425,1.630,-1,4
482,4.11425,1.630,-1,4
483,4.11755,1.655,-1,4
484,4.11755,1.646,-1,4
485,4.12083,1.635,-1,4
486,4.12083,1.645,-1,4
487,4.12414,1.664,-1,4
488,4.12581,1.669,-1,4
489,4.12747,1.665,-1,4
490,4.12913,1.659,-1,4
491,4.13080,1.666,-1,4
492,4.13248,1.680,-1,4
493,4.13417,1.687,-1,4
494,4.13585,1.683,-1,4
495,4.13753,1.683,-1,4
496,4.13922,1.691,-1,4
497,4.14092,1.700,-1,4
498,4.14263,1.703,-1,4
499,4.14433,1.700,-1,4
500,4.14603,1.707,-1,4
501,4.14775,1.719,-1,4
502,4.14947,1.719,-1,4
503,4.15119,1.718,-1,4
504,4.15291,1.720,-1,4
505,4.15464,1.732,-1,4
506,4.15639,1.745,-1,4
507,4.15813,1.742,-1,4
508,4.16160,1.743,-1,4
509,4.16160,1.759,-1,4
510,4.16336,1.759,-1,4
511,4.16513,1.767,-1,4
512,4.16689,1.762,-1,4
513,4.16865,1.755,-1,4
514,4.17041,1.763,-1,4
515,4.17219,1.781,-1,4
516,4.17398,1.785,-1,4
517,4.17754,1.779,-1,4
518,4.17932,1.786,-1,4
519,4.18112,1.796,-1,4
520,4.18292,1.801,-1,4
521,4.18473,1.805,-1,4
522,4.18653,1.806,-1,4
523,4.18834,1.805,-1,4
524,4.19015,1.813,-1,4
525,4.19197,1.816,-1,4
526,4.19380,1.829,-1,4
527,4.19562,1.830,-1,4
528,4.19745,1.823,-1,4
529,4.19927,1.825,-1,4
530,4.20111,1.835,-1,4
531,4.20296,1.852,-1,4
532,4.20482,1.854,-1,4
533,4.20666,1.842,-1,4
534,4.20850,1.845,-1,4
535,4.21036,1.859,-1,4
536,4.21223,1.873,-1,4
537,4.21411,1.873,-1,4
538,4.21597,1.866,-1,4
539,4.21785,1.874,-1,4
540,4.21973,1.881,-1,4
541,4.22162,1.890,-1,4
542,4.22352,1.897,-1,4
543,4.22541,1.898,-1,4
544,4.22731,1.897,-1,4
545,4.22921,1.898,-1,4
546,4.23112,1.927,-1,4
547,4.23305,1.927,-1,4
548,4.23498,1.920,-1,4
549,4.23690,1.920,-1,4
550,4.23882,1.941,-1,4
551,4.24076,1.941,-1,4
552,4.24272,1.950,-1,4
553,4.24467,1.950,-1,4
554,4.24661,1.953,-1,4
555,4.25054,1.975,-1,4
556,4.25252,1.982,-1,4
557,4.25450,1.979,-1,4
558,4.25647,1.975,-1,4
559,4.25846,1.982,-1,4
560,4.26046,2.001,-1,4
561,4.26247,2.009,-1,4
562,4.26448,2.008,-1,4
563,4.26648,2.004,-1,4
564,4.26849,2.014,-1,4
565,4.27052,2.030,-1,4
566,4.27256,2.037,-1,4
567,4.27460,2.039,-1,4
568,4.27663,2.032,-1,4
569,4.27867,2.041,-1,4
570,4.28073,2.061,-1,4
571,4.28280,2.066,-1,4
572,4.28486,2.065,-1,4
573,4.28693,2.062,-1,4
574,4.28901,2.081,-1,4
575,4.29109,2.087,-1,4
576,4.29318,2.090,-1,4
577,4.29527,2.089,-1,4
578,4.29737,2.100,-1,4
579,4.29948,2.108,-1,4
580,4.30159,2.111,-1,4
581,4.30371,2.116,-1,4
582,4.30583,2.121,-1,4
583,4.30796,2.128,-1,4
584,4.31009,2.131,-1,4
585,4.31223,2.141,-1,4
586,4.31437,2.143,-1,4
587,4.31652,2.147,-1,4
588,4.31867,2.151,-1,4
589,4.32083,2.162,-1,4
590,4.32300,2.165,-1,4
591,4.32516,2.166,-1,4
592,4.32733,2.172,-1,4
593,4.32951,2.180,-1,4
594,4.33170,2.184,-1,4
595,4.33388,2.185,-1,4
596,4.33608,2.194,-1,4
597,4.33827,2.198,-1,4
598,4.34048,2.200,-1,4
599,4.34268,2.204,-1,4
600,4.34489,2.214,-1,4
601,4.34711,2.218,-1,4
602,4.34933,2.219,-1,4
603,4.35155,2.222,-1,4
604,4.35379,2.234,-1,4
605,4.35602,2.237,-1,4
606,4.35826,2.239,-1,4
607,4.36051,2.245,-1,4
608,4.36276,2.249,-1,4
609,4.36501,2.254,-1,4
610,4.36727,2.260,-1,4
611,4.36954,2.268,-1,4
612,4.37180,2.265,-1,4
613,4.37408,2.283,-1,4
614,4.37636,2.283,-1,4
615,4.38093,2.283,-1,4
616,4.38093,2.295,-1,4
617,4.38322,2.303,-1,4
618,4.38553,2.303,-1,4
619,4.38783,2.303,-1,4
620,4.39245,2.316,-1,4
621,4.39477,2.321,-1,4
622,4.39709,2.320,-1,4
623,4.39942,2.327,-1,4
624,4.40176,2.336,-1,4
625,4.40409,2.337,-1,4
626,4.40643,2.342,-1,4
627,4.40878,2.346,-1,4
628,4.41113,2.353,-1,4
629,4.41349,2.358,-1,4
630,4.41585,2.362,-1,4
631,4.41822,2.367,-1,4
632,4.42059,2.370,-1,4
633,4.42297,2.380,-1,4
634,4.42535,2.382,-1,4
635,4.42773,2.382,-1,4
636,4.43013,2.396,-1,4
637,4.43253,2.399,-1,4
638,4.43493,2.399,-1,4
639,4.43733,2.413,-1,4
640,4.43975,2.415,-1,4
641,4.44458,2.418,-1,4
642,4.44458,2.425,-1,4
643,4.44701,2.430,-1,4
644,4.44944,2.430,-1,4
645,4.45187,2.437,-1,4
646,4.45674,2.437,-1,4
647,4.45919,2.447,-1,4
648,4.46164,2.449,-1,4
649,4.46409,2.453,-1,4
650,4.46654,2.455,-1,4
651,4.46901,2.462,-1,4
652,4.47147,2.464,-1,4
653,4.47394,2.466,-1,4
654,4.47641,2.471,-1,4
655,4.47889,2.478,-1,4
656,4.48137,2.480,-1,4
657,4.48385,2.480,-1,4
658,4.48633,2.487,-1,4
659,4.48883,2.494,-1,4
660,4.49132,2.498,-1,4
661,4.49382,2.498,-1,4
662,4.49632,2.503,-1,4
663,4.49883,2.507,-1,4
664,4.50135,2.514,-1,4
665,4.50386,2.515,-1,4
666,4.50638,2.520,-1,4
667,4.51143,2.525,-1,4
668,4.51143,2.529,-1,4
669,4.51396,2.529,-1,4
670,4.51649,2.540,-1,4
671,4.51903,2.538,-1,4
672,4.52157,2.543,-1,4
673,4.52412,2.543,-1,4
674,4.52667,2.554,-1,4
675,4.52922,2.552,-1,4
676,4.53434,2.562,-1,4
677,4.53690,2.566,-1,4
678,4.53947,2.567,-1,4
679,4.54204,2.571,-1,4
680,4.54462,2.578,-1,4
681,4.54719,2.577,-1,4
682,4.54977,2.581,-1,4
683,4.55236,2.589,-1,4
684,4.55495,2.589,-1,4
685,4.55755,2.593,-1,4
686,4.56014,2.596,-1,4
687,4.56274,2.599,-1,4
688,4.56535,2.608,-1,4
689,4.56795,2.606,-1,4
690,4.57056,2.607,-1,4
691,4.57318,2.615,-1,4
692,4.57580,2.619,-1,4
693,4.57841,2.618,-1,4
694,4.58104,2.624,-1,4
695,4.58366,2.625,-1,4
696,4.58629,2.628,-1,4
697,4.58892,2.633,-1,4
698,4.59156,2.634,-1,4
699,4.59419,2.634,-1,4
700,4.59683,2.638,-1,4
701,4.59947,2.643,-1,4
702,4.60212,2.646,-1,4
703,4.60476,2.645,-1,4
704,4.60741,2.644,-1,4
705,4.61271,2.654,-1,4
706,4.61536,2.653,-1,4
707,4.61536,2.651,-1,4
708,4.62067,2.656,-1,4
709,4.62067,2.657,-1,4
710,4.62333,2.657,-1,4
711,4.62598,2.663,-1,4
712,4.62864,2.663,-1,4
713,4.63396,2.658,-1,4
714,4.63662,2.663,-1,4
715,4.63928,2.662,-1,4
716,4.64195,2.662,-1,4
717,4.64461,2.661,-1,4
718,4.64727,2.661,-1,4
719,4.64993,2.666,-1,4
720,4.65260,2.665,-1,4
721,4.65526,2.662,-1,4
722,4.65793,2.665,-1,4
723,4.66059,2.664,-1,4
724,4.66325,2.662,-1,4
725,4.66592,2.668,-1,4
726,4.66858,2.665,-1,4
727,4.67125,2.662,-1,4
728,4.67391,2.665,-1,4
729,4.67658,2.666,-1,4
730,4.67924,2.664,-1,4
731,4.68191,2.663,-1,4
732,4.68457,2.664,-1,4
733,4.68723,2.663,-1,4
734,4.69256,2.661,-1,4
735,4.69256,2.663,-1,4
736,4.69522,2.662,-1,4
737,4.69788,2.662,-1,4
738,4.70054,2.663,-1,4
739,4.70321,2.663,-1,4
740,4.70586,2.660,-1,4
741,4.70852,2.661,-1,4
742,4.71385,2.661,-1,4
743,4.71651,2.660,-1,4
744,4.71917,2.659,-1,4
745,4.72182,2.658,-1,4
746,4.72448,2.660,-1,4
747,4.72714,2.660,-1,4
748,4.72980,2.659,-1,4
749,4.73246,2.662,-1,4
750,4.73512,2.656,-1,4
751,4.73778,2.655,-1,4
752,4.74043,2.657,-1,4
753,4.74309,2.656,-1,4
754,4.74575,2.658,-1,4
755,4.74840,2.654,-1,4
756,4.75105,2.651,-1,4
757,4.75371,2.655,-1,4
758,4.75636,2.650,-1,4
759,4.75901,2.650,-1,4
760,4.76166,2.651,-1,4
761,4.76431,2.649,-1,4
762,4.76695,2.646,-1,4
763,4.76960,2.646,-1,4
764,4.77489,2.645,-1,4
765,4.77489,2.643,-1,4
766,4.78017,2.642,-1,4
767,4.78017,2.637,-1,4
768,4.78545,2.639,-1,4
769,4.78545,2.636,-1,4
770,4.79072,2.638,-1,4
771,4.79336,2.633,-1,4
772,4.79599,2.630,-1,4
773,4.79861,2.628,-1,4
774,4.80124,2.627,-1,4
775,4.80387,2.625,-1,4
776,4.80649,2.622,-1,4
777,4.80911,2.620,-1,4
778,4.81173,2.617,-1,4
779,4.81434,2.611,-1,4
780,4.81695,2.613,-1,4
781,4.81956,2.606,-1,4
782,4.82216,2.605,-1,4
783,4.82476,2.602,-1,4
784,4.82736,2.599,-1,4
785,4.82996,2.595,-1,4
786,4.83255,2.590,-1,4
787,4.83513,2.588,-1,4
788,4.83772,2.582,-1,4
789,4.84030,2.581,-1,4
790,4.84544,2.569,-1,4
791,4.84544,2.569,-1,4
792,4.84801,2.569,-1,4
793,4.85057,2.559,-1,4
794,4.85313,2.559,-1,4
795,4.85569,2.551,-1,4
796,4.85824,2.551,-1,4
797,4.86332,2.544,-1,4
798,4.86586,2.536,-1,4
799,4.86839,2.532,-1,4
800,4.87092,2.526,-1,4
801,4.87344,2.525,-1,4
802,4.87596,2.516,-1,4
803,4.87847,2.512,-1,4
804,4.88098,2.508,-1,4
805,4.88348,2.503,-1,4
806,4.88598,2.499,-1,4
807,4.88847,2.491,-1,4
808,4.89096,2.485,-1,4
809,4.89344,2.482,-1,4
810,4.89592,2.477,-1,4
811,4.89838,2.466,-1,4
812,4.90084,2.463,-1,4
813,4.90331,2.460,-1,4
814,4.90576,2.453,-1,4
815,4.90820,2.441,-1,4
816,4.91064,2.442,-1,4
817,4.91308,2.436,-1,4
818,4.91551,2.419,-1,4
819,4.92034,2.415,-1,4
820,4.92034,2.409,-1,4
821,4.92515,2.405,-1,4
822,4.92515,2.394,-1,4
823,4.92994,2.389,-1,4
824,4.92994,2.384,-1,4
825,4.93470,2.374,-1,4
826,4.93706,2.368,-1,4
827,4.93942,2.360,-1,4
828,4.94178,2.358,-1,4
829,4.94413,2.347,-1,4
830,4.94647,2.337,-1,4
831,4.94880,2.334,-1,4
832,4.95113,2.330,-1,4
833,4.95345,2.316,-1,4
834,4.95575,2.307,-1,4
835,4.95806,2.305,-1,4
836,4.96035,2.295,-1,4
837,4.96264,2.288,-1,4
838,4.96492,2.278,-1,4
839,4.96719,2.272,-1,4
840,4.96945,2.261,-1,4
841,4.97171,2.255,-1,4
842,4.97395,2.246,-1,4
843,4.97619,2.238,-1,4
844,4.97842,2.229,-1,4
845,4.98064,2.222,-1,4
846,4.98285,2.210,-1,4
847,4.98505,2.197,-1,4
848,4.98944,2.189,-1,4
849,4.98944,2.189,-1,4
850,4.99378,2.161,-1,4
851,4.99378,2.163,-1,4
852,4.99809,2.154,-1,4
853,4.99809,2.138,-1,4
854,5.00235,2.125,-1,4
855,5.00448,2.123,-1,4
856,5.00659,2.114,-1,4
857,5.00869,2.101,-1,4
858,5.01078,2.091,-1,4
859,5.01287,2.082,-1,4
860,5.01494,2.074,-1,4
861,5.01700,2.057,-1,4
862,5.01905,2.051,-1,4
863,5.02109,2.040,-1,4
864,5.02312,2.031,-1,4
865,5.02514,2.020,-1,4
866,5.02715,2.008,-1,4
867,5.02914,1.997,-1,4
868,5.03113,1.984,-1,4
869,5.03310,1.976,-1,4
870,5.03507,1.968,-1,4
871,5.03703,1.955,-1,4
872,5.03896,1.938,-1,4
873,5.04089,1.925,-1,4
