cnt,pos,speed,Dir,Force,
1,3.57603,1.295,-1,4
2,3.57733,1.299,-1,4
3,3.57862,1.296,-1,4
4,3.57992,1.300,-1,4
5,3.58123,1.306,-1,4
6,3.58253,1.306,-1,4
7,3.58384,1.307,-1,4
8,3.58515,1.310,-1,4
9,3.58647,1.319,-1,4
10,3.58911,1.322,-1,4
11,3.59044,1.325,-1,4
12,3.59176,1.324,-1,4
13,3.59309,1.328,-1,4
14,3.59443,1.337,-1,4
15,3.59577,1.343,-1,4
16,3.59711,1.340,-1,4
17,3.59845,1.338,-1,4
18,3.59979,1.346,-1,4
19,3.60114,1.352,-1,4
20,3.60250,1.353,-1,4
21,3.60385,1.353,-1,4
22,3.60520,1.355,-1,4
23,3.60656,1.357,-1,4
24,3.60792,1.363,-1,4
25,3.60930,1.371,-1,4
26,3.61066,1.369,-1,4
27,3.61203,1.366,-1,4
28,3.61340,1.381,-1,4
29,3.61616,1.381,-1,4
30,3.61616,1.382,-1,4
31,3.61893,1.384,-1,4
32,3.61893,1.387,-1,4
33,3.62170,1.387,-1,4
34,3.62170,1.397,-1,4
35,3.62310,1.397,-1,4
36,3.62590,1.397,-1,4
37,3.62729,1.399,-1,4
38,3.62870,1.406,-1,4
39,3.63011,1.408,-1,4
40,3.63152,1.410,-1,4
41,3.63293,1.411,-1,4
42,3.63434,1.412,-1,4
43,3.63575,1.414,-1,4
44,3.63718,1.423,-1,4
45,3.63860,1.425,-1,4
46,3.64002,1.421,-1,4
47,3.64145,1.422,-1,4
48,3.64287,1.429,-1,4
49,3.64431,1.435,-1,4
50,3.64575,1.436,-1,4
51,3.64718,1.435,-1,4
52,3.64861,1.435,-1,4
53,3.65005,1.438,-1,4
54,3.65295,1.450,-1,4
55,3.65295,1.445,-1,4
56,3.65584,1.446,-1,4
57,3.65584,1.453,-1,4
58,3.65729,1.456,-1,4
59,3.65875,1.456,-1,4
60,3.66021,1.459,-1,4
61,3.66166,1.457,-1,4
62,3.66458,1.459,-1,4
63,3.66605,1.473,-1,4
64,3.66752,1.469,-1,4
65,3.66898,1.461,-1,4
66,3.67044,1.463,-1,4
67,3.67191,1.471,-1,4
68,3.67339,1.477,-1,4
69,3.67487,1.483,-1,4
70,3.67635,1.474,-1,4
71,3.67782,1.468,-1,4
72,3.67929,1.478,-1,4
73,3.68078,1.488,-1,4
74,3.68227,1.490,-1,4
75,3.68376,1.485,-1,4
76,3.68524,1.483,-1,4
77,3.68672,1.484,-1,4
78,3.68821,1.493,-1,4
79,3.68971,1.497,-1,4
80,3.69121,1.496,-1,4
81,3.69270,1.492,-1,4
82,3.69420,1.500,-1,4
83,3.69570,1.501,-1,4
84,3.69870,1.506,-1,4
85,3.69870,1.506,-1,4
86,3.70021,1.507,-1,4
87,3.70172,1.506,-1,4
88,3.70474,1.512,-1,4
89,3.70474,1.512,-1,4
90,3.70625,1.522,-1,4
91,3.70929,1.518,-1,4
92,3.71080,1.515,-1,4
93,3.71232,1.515,-1,4
94,3.71385,1.532,-1,4
95,3.71538,1.531,-1,4
96,3.71691,1.528,-1,4
97,3.71843,1.520,-1,4
98,3.71995,1.527,-1,4
99,3.72149,1.540,-1,4
100,3.72304,1.548,-1,4
101,3.72458,1.533,-1,4
102,3.72610,1.538,-1,4
103,3.72764,1.538,-1,4
104,3.72919,1.551,-1,4
105,3.73075,1.557,-1,4
106,3.73229,1.544,-1,4
107,3.73382,1.534,-1,4
108,3.73537,1.545,-1,4
109,3.73694,1.565,-1,4
110,3.73850,1.566,-1,4
111,3.74005,1.543,-1,4
112,3.74159,1.558,-1,4
113,3.74315,1.571,-1,4
114,3.74472,1.571,-1,4
115,3.74630,1.560,-1,4
116,3.74786,1.553,-1,4
117,3.74941,1.566,-1,4
118,3.75097,1.566,-1,4
119,3.75414,1.578,-1,4
120,3.75570,1.568,-1,4
121,3.75727,1.566,-1,4
122,3.75885,1.577,-1,4
123,3.76044,1.590,-1,4
124,3.76202,1.586,-1,4
125,3.76360,1.578,-1,4
126,3.76518,1.576,-1,4
127,3.76676,1.586,-1,4
128,3.76836,1.596,-1,4
129,3.76996,1.601,-1,4
130,3.77155,1.588,-1,4
131,3.77313,1.583,-1,4
132,3.77472,1.591,-1,4
133,3.77633,1.607,-1,4
134,3.77794,1.609,-1,4
135,3.77954,1.600,-1,4
136,3.78113,1.590,-1,4
137,3.78272,1.596,-1,4
138,3.78434,1.618,-1,4
139,3.78596,1.620,-1,4
140,3.78757,1.607,-1,4
141,3.78917,1.601,-1,4
142,3.79078,1.608,-1,4
143,3.79240,1.625,-1,4
144,3.79403,1.630,-1,4
145,3.79565,1.616,-1,4
146,3.79726,1.609,-1,4
147,3.79888,1.620,-1,4
148,3.80051,1.636,-1,4
149,3.80215,1.623,-1,4
150,3.80539,1.614,-1,4
151,3.80702,1.632,-1,4
152,3.80867,1.651,-1,4
153,3.81032,1.644,-1,4
154,3.81194,1.628,-1,4
155,3.81357,1.624,-1,4
156,3.81521,1.645,-1,4
157,3.81687,1.662,-1,4
158,3.81853,1.653,-1,4
159,3.82016,1.633,-1,4
160,3.82179,1.634,-1,4
161,3.82345,1.655,-1,4
162,3.82512,1.671,-1,4
163,3.82678,1.662,-1,4
164,3.82842,1.642,-1,4
165,3.83006,1.642,-1,4
166,3.83173,1.665,-1,4
167,3.83340,1.676,-1,4
168,3.83507,1.652,-1,4
169,3.83673,1.651,-1,4
170,3.83838,1.651,-1,4
171,3.84173,1.684,-1,4
172,3.84173,1.684,-1,4
173,3.84341,1.663,-1,4
174,3.84507,1.663,-1,4
175,3.84841,1.679,-1,4
176,3.85010,1.689,-1,4
177,3.85178,1.681,-1,4
178,3.85346,1.672,-1,4
179,3.85513,1.678,-1,4
180,3.85682,1.689,-1,4
181,3.85852,1.694,-1,4
182,3.86020,1.689,-1,4
183,3.86188,1.679,-1,4
184,3.86357,1.689,-1,4
185,3.86527,1.701,-1,4
186,3.86697,1.700,-1,4
187,3.86867,1.694,-1,4
188,3.87036,1.691,-1,4
189,3.87206,1.702,-1,4
190,3.87377,1.712,-1,4
191,3.87548,1.709,-1,4
192,3.87718,1.699,-1,4
193,3.87888,1.705,-1,4
194,3.88060,1.713,-1,4
195,3.88232,1.722,-1,4
196,3.88404,1.718,-1,4
197,3.88575,1.709,-1,4
198,3.88746,1.714,-1,4
199,3.88918,1.722,-1,4
200,3.89091,1.727,-1,4
201,3.89264,1.727,-1,4
202,3.89436,1.724,-1,4
203,3.89609,1.725,-1,4
204,3.89782,1.730,-1,4
205,3.89955,1.733,-1,4
206,3.90129,1.738,-1,4
207,3.90476,1.735,-1,4
208,3.90476,1.739,-1,4
209,3.90650,1.744,-1,4
210,3.90825,1.744,-1,4
211,3.91175,1.754,-1,4
212,3.91175,1.751,-1,4
213,3.91350,1.747,-1,4
214,3.91525,1.747,-1,4
215,3.91875,1.758,-1,4
216,3.92052,1.767,-1,4
217,3.92229,1.767,-1,4
218,3.92404,1.756,-1,4
219,3.92580,1.758,-1,4
220,3.92757,1.770,-1,4
221,3.92935,1.777,-1,4
222,3.93112,1.779,-1,4
223,3.93289,1.768,-1,4
224,3.93466,1.771,-1,4
225,3.93644,1.780,-1,4
226,3.93823,1.786,-1,4
227,3.94002,1.790,-1,4
228,3.94180,1.783,-1,4
229,3.94359,1.785,-1,4
230,3.94538,1.787,-1,4
231,3.94717,1.794,-1,4
232,3.94897,1.799,-1,4
233,3.95077,1.801,-1,4
234,3.95256,1.793,-1,4
235,3.95436,1.798,-1,4
236,3.95616,1.811,-1,4
237,3.95978,1.814,-1,4
238,3.95978,1.808,-1,4
239,3.96339,1.802,-1,4
240,3.96339,1.805,-1,4
241,3.96702,1.820,-1,4
242,3.96702,1.826,-1,4
243,3.96885,1.819,-1,4
244,3.97066,1.811,-1,4
245,3.97429,1.814,-1,4
246,3.97612,1.827,-1,4
247,3.97795,1.833,-1,4
248,3.97978,1.827,-1,4
249,3.98160,1.820,-1,4
250,3.98342,1.826,-1,4
251,3.98526,1.834,-1,4
252,3.98710,1.839,-1,4
253,3.98893,1.835,-1,4
254,3.99076,1.833,-1,4
255,3.99260,1.834,-1,4
256,3.99444,1.839,-1,4
257,3.99628,1.847,-1,4
258,3.99813,1.845,-1,4
259,3.99997,1.842,-1,4
260,4.00181,1.838,-1,4
261,4.00365,1.843,-1,4
262,4.00551,1.858,-1,4
263,4.00737,1.858,-1,4
264,4.01105,1.840,-1,4
265,4.01105,1.855,-1,4
266,4.01291,1.867,-1,4
267,4.01477,1.867,-1,4
268,4.01664,1.862,-1,4
269,4.01848,1.848,-1,4
270,4.02033,1.850,-1,4
271,4.02220,1.862,-1,4
272,4.02593,1.863,-1,4
273,4.02778,1.853,-1,4
274,4.02964,1.860,-1,4
275,4.03151,1.870,-1,4
276,4.03339,1.874,-1,4
277,4.03525,1.866,-1,4
278,4.03712,1.861,-1,4
279,4.03898,1.868,-1,4
280,4.04086,1.873,-1,4
281,4.04273,1.876,-1,4
282,4.04460,1.873,-1,4
283,4.04647,1.870,-1,4
284,4.04835,1.871,-1,4
285,4.05022,1.873,-1,4
286,4.05210,1.884,-1,4
287,4.05399,1.883,-1,4
288,4.05586,1.875,-1,4
289,4.05773,1.871,-1,4
290,4.05961,1.878,-1,4
291,4.06150,1.893,-1,4
292,4.06339,1.890,-1,4
293,4.06527,1.876,-1,4
294,4.06714,1.875,-1,4
295,4.06903,1.887,-1,4
296,4.07093,1.899,-1,4
297,4.07282,1.894,-1,4
298,4.07471,1.881,-1,4
299,4.07659,1.886,-1,4
300,4.07849,1.903,-1,4
301,4.08229,1.898,-1,4
302,4.08418,1.892,-1,4
303,4.08607,1.895,-1,4
304,4.08797,1.897,-1,4
305,4.08988,1.906,-1,4
306,4.09178,1.908,-1,4
307,4.09368,1.900,-1,4
308,4.09558,1.895,-1,4
309,4.09748,1.901,-1,4
310,4.09940,1.916,-1,4
311,4.10131,1.917,-1,4
312,4.10322,1.905,-1,4
313,4.10512,1.900,-1,4
314,4.10702,1.906,-1,4
315,4.10895,1.922,-1,4
316,4.11087,1.922,-1,4
317,4.11278,1.910,-1,4
318,4.11468,1.906,-1,4
319,4.11660,1.914,-1,4
320,4.12045,1.924,-1,4
321,4.12236,1.915,-1,4
322,4.12236,1.914,-1,4
323,4.12428,1.914,-1,4
324,4.12619,1.928,-1,4
325,4.12812,1.928,-1,4
326,4.13005,1.924,-1,4
327,4.13198,1.924,-1,4
328,4.13389,1.919,-1,4
329,4.13774,1.932,-1,4
330,4.13968,1.938,-1,4
331,4.14161,1.930,-1,4
332,4.14353,1.918,-1,4
333,4.14545,1.921,-1,4
334,4.14739,1.936,-1,4
335,4.14933,1.942,-1,4
336,4.15126,1.932,-1,4
337,4.15318,1.924,-1,4
338,4.15511,1.929,-1,4
339,4.15706,1.943,-1,4
340,4.15900,1.941,-1,4
341,4.16093,1.936,-1,4
342,4.16287,1.932,-1,4
343,4.16480,1.938,-1,4
344,4.16675,1.944,-1,4
345,4.16869,1.943,-1,4
346,4.17063,1.940,-1,4
347,4.17257,1.939,-1,4
348,4.17451,1.941,-1,4
349,4.17840,1.948,-1,4
350,4.18035,1.946,-1,4
351,4.18229,1.942,-1,4
352,4.18424,1.945,-1,4
353,4.18619,1.952,-1,4
354,4.18814,1.953,-1,4
355,4.19009,1.948,-1,4
356,4.19203,1.942,-1,4
357,4.19398,1.950,-1,4
358,4.19594,1.955,-1,4
359,4.19789,1.953,-1,4
360,4.19984,1.947,-1,4
361,4.20179,1.948,-1,4
362,4.20374,1.956,-1,4
363,4.20570,1.955,-1,4
364,4.20765,1.950,-1,4
365,4.20960,1.950,-1,4
366,4.21155,1.954,-1,4
367,4.21351,1.958,-1,4
368,4.21546,1.954,-1,4
369,4.21742,1.955,-1,4
370,4.21937,1.955,-1,4
371,4.22132,1.952,-1,4
372,4.22328,1.955,-1,4
373,4.22524,1.959,-1,4
374,4.22720,1.958,-1,4
375,4.22915,1.950,-1,4
376,4.23306,1.960,-1,4
377,4.23502,1.961,-1,4
378,4.23697,1.955,-1,4
379,4.23892,1.946,-1,4
380,4.24087,1.957,-1,4
381,4.24284,1.962,-1,4
382,4.24479,1.957,-1,4
383,4.24674,1.947,-1,4
384,4.24869,1.949,-1,4
385,4.25065,1.960,-1,4
386,4.25261,1.959,-1,4
387,4.25456,1.951,-1,4
388,4.25651,1.948,-1,4
389,4.25846,1.948,-1,4
390,4.26041,1.956,-1,4
391,4.26237,1.956,-1,4
392,4.26432,1.951,-1,4
393,4.26627,1.948,-1,4
394,4.26821,1.948,-1,4
395,4.27017,1.953,-1,4
396,4.27212,1.955,-1,4
397,4.27407,1.952,-1,4
398,4.27602,1.942,-1,4
399,4.27796,1.945,-1,4
400,4.27991,1.955,-1,4
401,4.28187,1.955,-1,4
402,4.28381,1.945,-1,4
403,4.28575,1.939,-1,4
404,4.28770,1.947,-1,4
405,4.28966,1.947,-1,4
406,4.29354,1.938,-1,4
407,4.29354,1.939,-1,4
408,4.29743,1.954,-1,4
409,4.29743,1.950,-1,4
410,4.30132,1.938,-1,4
411,4.30132,1.936,-1,4
412,4.30520,1.942,-1,4
413,4.30715,1.949,-1,4
414,4.30909,1.940,-1,4
415,4.31102,1.932,-1,4
416,4.31296,1.935,-1,4
417,4.31490,1.939,-1,4
418,4.31683,1.939,-1,4
419,4.31877,1.932,-1,4
420,4.32070,1.930,-1,4
421,4.32263,1.931,-1,4
422,4.32456,1.929,-1,4
423,4.32649,1.928,-1,4
424,4.32841,1.928,-1,4
425,4.33034,1.918,-1,4
426,4.33226,1.918,-1,4
427,4.33418,1.929,-1,4
428,4.33611,1.929,-1,4
429,4.33803,1.909,-1,4
430,4.34184,1.907,-1,4
431,4.34376,1.919,-1,4
432,4.34568,1.921,-1,4
433,4.34759,1.907,-1,4
434,4.34949,1.898,-1,4
435,4.35139,1.902,-1,4
436,4.35330,1.913,-1,4
437,4.35521,1.908,-1,4
438,4.35710,1.889,-1,4
439,4.35899,1.889,-1,4
440,4.36089,1.900,-1,4
441,4.36279,1.899,-1,4
442,4.36468,1.891,-1,4
443,4.36656,1.880,-1,4
444,4.36844,1.886,-1,4
445,4.37033,1.885,-1,4
446,4.37221,1.882,-1,4
447,4.37409,1.879,-1,4
448,4.37597,1.874,-1,4
449,4.37784,1.872,-1,4
450,4.37971,1.870,-1,4
451,4.38345,1.875,-1,4
452,4.38345,1.875,-1,4
453,4.38531,1.854,-1,4
454,4.38717,1.854,-1,4
455,4.38902,1.854,-1,4
456,4.39089,1.864,-1,4
457,4.39275,1.865,-1,4
458,4.39460,1.847,-1,4
459,4.39644,1.842,-1,4
460,4.40013,1.856,-1,4
461,4.40198,1.849,-1,4
462,4.40198,1.829,-1,4
463,4.40381,1.824,-1,4
464,4.40564,1.839,-1,4
465,4.40932,1.840,-1,4
466,4.41115,1.831,-1,4
467,4.41115,1.815,-1,4
468,4.41478,1.818,-1,4
469,4.41661,1.828,-1,4
470,4.41843,1.822,-1,4
471,4.42024,1.815,-1,4
472,4.42205,1.808,-1,4
473,4.42386,1.806,-1,4
474,4.42567,1.811,-1,4
475,4.42748,1.806,-1,4
476,4.42928,1.807,-1,4
477,4.43108,1.796,-1,4
478,4.43287,1.792,-1,4
479,4.43646,1.799,-1,4
480,4.43826,1.794,-1,4
481,4.43826,1.786,-1,4
482,4.44182,1.773,-1,4
483,4.44182,1.782,-1,4
484,4.44360,1.787,-1,4
485,4.44538,1.787,-1,4
486,4.44893,1.768,-1,4
487,4.45070,1.761,-1,4
488,4.45246,1.769,-1,4
489,4.45423,1.770,-1,4
490,4.45600,1.763,-1,4
491,4.45775,1.755,-1,4
492,4.45950,1.749,-1,4
493,4.46125,1.753,-1,4
494,4.46301,1.752,-1,4
495,4.46475,1.747,-1,4
496,4.46650,1.743,-1,4
497,4.46823,1.738,-1,4
498,4.47170,1.734,-1,4
499,4.47170,1.734,-1,4
500,4.47516,1.728,-1,4
501,4.47516,1.723,-1,4
502,4.47860,1.719,-1,4
503,4.47860,1.718,-1,4
504,4.48204,1.717,-1,4
505,4.48375,1.711,-1,4
506,4.48546,1.707,-1,4
507,4.48716,1.707,-1,4
508,4.48887,1.702,-1,4
509,4.49056,1.698,-1,4
510,4.49226,1.694,-1,4
511,4.49395,1.693,-1,4
512,4.49564,1.691,-1,4
513,4.49733,1.686,-1,4
514,4.49901,1.682,-1,4
515,4.50069,1.681,-1,4
516,4.50237,1.677,-1,4
517,4.50404,1.672,-1,4
518,4.50571,1.672,-1,4
519,4.50738,1.664,-1,4
520,4.50904,1.664,-1,4
521,4.51070,1.658,-1,4
522,4.51236,1.654,-1,4
523,4.51401,1.658,-1,4
524,4.51567,1.657,-1,4
525,4.51895,1.638,-1,4
526,4.52059,1.638,-1,4
527,4.52223,1.643,-1,4
528,4.52388,1.644,-1,4
529,4.52551,1.631,-1,4
530,4.52713,1.619,-1,4
531,4.52875,1.622,-1,4
532,4.53038,1.627,-1,4
533,4.53201,1.629,-1,4
534,4.53362,1.618,-1,4
535,4.53523,1.602,-1,4
536,4.53683,1.614,-1,4
537,4.53844,1.614,-1,4
538,4.54005,1.615,-1,4
539,4.54166,1.601,-1,4
540,4.54324,1.587,-1,4
541,4.54483,1.583,-1,4
542,4.54643,1.599,-1,4
543,4.54803,1.601,-1,4
544,4.54961,1.583,-1,4
545,4.55118,1.569,-1,4
546,4.55275,1.575,-1,4
547,4.55434,1.584,-1,4
548,4.55592,1.586,-1,4
549,4.55749,1.568,-1,4
550,4.55904,1.552,-1,4
551,4.56060,1.559,-1,4
552,4.56218,1.575,-1,4
553,4.56375,1.569,-1,4
554,4.56529,1.548,-1,4
555,4.56838,1.544,-1,4
556,4.56994,1.561,-1,4
557,4.57150,1.559,-1,4
558,4.57303,1.532,-1,4
559,4.57455,1.519,-1,4
560,4.57608,1.531,-1,4
561,4.57762,1.545,-1,4
562,4.57917,1.541,-1,4
563,4.58068,1.519,-1,4
564,4.58219,1.502,-1,4
565,4.58370,1.513,-1,4
566,4.58523,1.534,-1,4
567,4.58676,1.525,-1,4
568,4.58826,1.499,-1,4
569,4.58975,1.489,-1,4
570,4.59125,1.502,-1,4
571,4.59276,1.512,-1,4
572,4.59427,1.504,-1,4
573,4.59575,1.486,-1,4
574,4.59722,1.473,-1,4
575,4.59871,1.486,-1,4
576,4.60021,1.496,-1,4
577,4.60169,1.481,-1,4
578,4.60316,1.469,-1,4
579,4.60462,1.465,-1,4
580,4.60609,1.467,-1,4
581,4.60756,1.474,-1,4
582,4.60903,1.468,-1,4
583,4.61048,1.447,-1,4
584,4.61193,1.458,-1,4
585,4.61339,1.458,-1,4
586,4.61484,1.455,-1,4
587,4.61629,1.444,-1,4
588,4.61773,1.441,-1,4
589,4.61917,1.441,-1,4
590,4.62061,1.437,-1,4
591,4.62204,1.434,-1,4
592,4.62347,1.430,-1,4
593,4.62490,1.426,-1,4
594,4.62633,1.430,-1,4
595,4.62775,1.414,-1,4
596,4.62917,1.414,-1,4
597,4.63058,1.417,-1,4
598,4.63200,1.417,-1,4
599,4.63342,1.410,-1,4
600,4.63483,1.402,-1,4
601,4.63763,1.399,-1,4
602,4.63903,1.400,-1,4
603,4.64043,1.407,-1,4
604,4.64184,1.404,-1,4
605,4.64323,1.387,-1,4
606,4.64461,1.381,-1,4
607,4.64600,1.389,-1,4
608,4.64739,1.396,-1,4
609,4.64878,1.388,-1,4
610,4.65016,1.378,-1,4
611,4.65153,1.370,-1,4
612,4.65290,1.372,-1,4
613,4.65428,1.379,-1,4
614,4.65566,1.379,-1,4
615,4.65703,1.367,-1,4
616,4.65838,1.357,-1,4
617,4.65974,1.358,-1,4
618,4.66110,1.364,-1,4
619,4.66247,1.361,-1,4
620,4.66382,1.350,-1,4
621,4.66517,1.350,-1,4
622,4.66652,1.346,-1,4
623,4.66786,1.346,-1,4
624,4.66921,1.344,-1,4
625,4.67055,1.340,-1,4
626,4.67188,1.334,-1,4
627,4.67321,1.335,-1,4
628,4.67587,1.326,-1,4
629,4.67719,1.316,-1,4
630,4.67851,1.320,-1,4
631,4.67983,1.320,-1,4
632,4.68115,1.315,-1,4
633,4.68245,1.306,-1,4
634,4.68375,1.301,-1,4
635,4.68505,1.297,-1,4
636,4.68635,1.297,-1,4
637,4.68764,1.295,-1,4
638,4.68893,1.291,-1,4
639,4.69021,1.281,-1,4
640,4.69149,1.273,-1,4
641,4.69276,1.277,-1,4
642,4.69404,1.276,-1,4
643,4.69530,1.265,-1,4
644,4.69656,1.260,-1,4
645,4.69782,1.255,-1,4
646,4.69907,1.251,-1,4
647,4.70031,1.244,-1,4
648,4.70156,1.239,-1,4
649,4.70403,1.233,-1,4
650,4.70525,1.220,-1,4
651,4.70647,1.219,-1,4
652,4.70768,1.216,-1,4
653,4.70889,1.207,-1,4
654,4.71009,1.201,-1,4
655,4.71129,1.197,-1,4
656,4.71249,1.195,-1,4
657,4.71367,1.185,-1,4
658,4.71484,1.173,-1,4
659,4.71601,1.170,-1,4
660,4.71718,1.168,-1,4
661,4.71834,1.161,-1,4
662,4.71950,1.154,-1,4
663,4.72064,1.147,-1,4
664,4.72178,1.141,-1,4
665,4.72292,1.131,-1,4
666,4.72404,1.125,-1,4
667,4.72628,1.119,-1,4
668,4.72739,1.108,-1,4
669,4.72849,1.096,-1,4
670,4.72958,1.090,-1,4
671,4.72958,1.088,-1,4
672,4.73066,1.080,-1,4
673,4.73174,1.080,-1,4
674,4.73387,1.060,-1,4
675,4.73387,1.060,-1,4
676,4.73599,1.052,-1,4
677,4.73703,1.040,-1,4
678,4.73806,1.029,-1,4
679,4.73908,1.024,-1,4
680,4.74010,1.021,-1,4
681,4.74112,1.015,-1,4
682,4.74212,1.004,-1,4
683,4.74311,0.992,-1,4
684,4.74410,0.989,-1,4
685,4.74508,0.983,-1,4
686,4.74606,0.973,-1,4
687,4.74702,0.961,-1,4
688,4.74797,0.956,-1,4
689,4.74893,0.953,-1,4
690,4.74988,0.949,-1,4
691,4.75081,0.934,-1,4
692,4.75173,0.922,-1,4
693,4.75265,0.915,-1,4
694,4.75356,0.911,-1,4
695,4.75447,0.909,-1,4
696,4.75536,0.895,-1,4
697,4.75624,0.881,-1,4
698,4.75711,0.873,-1,4
699,4.75799,0.874,-1,4
700,4.75886,0.871,-1,4
701,4.75972,0.857,-1,4
702,4.76056,0.840,-1,4
703,4.76138,0.828,-1,4
704,4.76221,0.824,-1,4
705,4.76385,0.816,-1,4
706,4.76465,0.801,-1,4
707,4.76544,0.786,-1,4
708,4.76622,0.783,-1,4
709,4.76700,0.781,-1,4
710,4.76778,0.778,-1,4
711,4.76854,0.763,-1,4
712,4.76929,0.744,-1,4
713,4.77002,0.733,-1,4
714,4.77074,0.724,-1,4
715,4.77147,0.726,-1,4
716,4.77219,0.724,-1,4
717,4.77291,0.711,-1,4
718,4.77360,0.696,-1,4
719,4.77428,0.679,-1,4
720,4.77496,0.676,-1,4
721,4.77563,0.672,-1,4
722,4.77630,0.670,-1,4
723,4.77696,0.639,-1,4
724,4.77822,0.626,-1,4
725,4.77884,0.619,-1,4
726,4.77946,0.616,-1,4
727,4.78007,0.613,-1,4
728,4.78067,0.603,-1,4
729,4.78126,0.587,-1,4
730,4.78183,0.573,-1,4
731,4.78240,0.566,-1,4
732,4.78296,0.559,-1,4
733,4.78351,0.552,-1,4
734,4.78405,0.540,-1,4
735,4.78458,0.527,-1,4
736,4.78509,0.517,-1,4
737,4.78560,0.510,-1,4
738,4.78611,0.505,-1,4
739,4.78660,0.495,-1,4
740,4.78709,0.483,-1,4
741,4.78756,0.470,-1,4
742,4.78847,0.451,-1,4
743,4.78891,0.442,-1,4
744,4.78935,0.437,-1,4
745,4.78977,0.423,-1,4
746,4.79018,0.412,-1,4
747,4.79058,0.400,-1,4
748,4.79097,0.392,-1,4
749,4.79135,0.382,-1,4
750,4.79173,0.373,-1,4
751,4.79209,0.360,-1,4
752,4.79243,0.346,-1,4
753,4.79277,0.337,-1,4
754,4.79310,0.330,-1,4
755,4.79342,0.321,-1,4
756,4.79373,0.310,-1,4
757,4.79403,0.297,-1,4
758,4.79431,0.284,-1,4
759,4.79459,0.267,-1,4
760,4.79511,0.257,-1,4
761,4.79536,0.247,-1,4
762,4.79559,0.235,-1,4
763,4.79582,0.225,-1,4
764,4.79603,0.215,-1,4
765,4.79624,0.207,-1,4
766,4.79643,0.195,-1,4
767,4.79662,0.184,-1,4
768,4.79679,0.174,-1,4
769,4.79695,0.163,-1,4
770,4.79711,0.154,-1,4
771,4.79725,0.143,-1,4
772,4.79738,0.131,-1,4
773,4.79750,0.119,-1,4
774,4.79761,0.108,-1,4
775,4.79771,0.097,-1,4
776,4.79780,0.088,-1,4
777,4.79787,0.076,-1,4
778,4.79794,0.064,-1,4
779,4.79799,0.042,-1,4
780,4.79803,0.032,-1,4
781,4.79806,0.032,-1,4
782,4.79808,0.008,-1,4
783,4.79809,0.008,-1,4
784,4.79809,-0.003,-1,4
785,4.79807,-0.013,-1,4
786,4.79805,-0.033,-1,4
787,4.79802,-0.033,-1,4
788,4.79793,-0.051,-1,4
789,4.79787,-0.061,-1,4
790,4.79780,-0.070,-1,4
791,4.79772,-0.079,-1,4
792,4.79763,-0.086,-1,4
793,4.79753,-0.097,-1,4
794,4.79743,-0.105,-1,4
795,4.79732,-0.113,-1,4
796,4.79719,-0.123,-1,4
797,4.79706,-0.129,-1,4
798,4.79692,-0.140,-1,4
799,4.79678,-0.145,-1,4
800,4.79662,-0.156,-1,4
801,4.79646,-0.163,-1,4
802,4.79629,-0.172,-1,4
803,4.79611,-0.180,-1,4
804,4.79592,-0.187,-1,4
805,4.79572,-0.196,-1,4
806,4.79552,-0.204,-1,4
807,4.79531,-0.212,-1,4
808,4.79509,-0.221,-1,4
809,4.79486,-0.229,-1,4
810,4.79462,-0.237,-1,4
811,4.79438,-0.245,-1,4
812,4.79412,-0.254,-1,4
813,4.79386,-0.263,-1,4
814,4.79359,-0.272,-1,4
815,4.79331,-0.281,-1,4
816,4.79302,-0.289,-1,4
817,4.79272,-0.297,-1,4
818,4.79210,-0.315,-1,4
819,4.79178,-0.325,-1,4
820,4.79145,-0.332,-1,4
821,4.79110,-0.341,-1,4
822,4.79076,-0.348,-1,4
823,4.79040,-0.357,-1,4
824,4.79003,-0.368,-1,4
825,4.78965,-0.376,-1,4
826,4.78927,-0.384,-1,4
827,4.78888,-0.393,-1,4
828,4.78848,-0.401,-1,4
829,4.78807,-0.411,-1,4
830,4.78765,-0.417,-1,4
831,4.78722,-0.426,-1,4
832,4.78679,-0.432,-1,4
833,4.78635,-0.440,-1,4
834,4.78590,-0.448,-1,4
835,4.78545,-0.466,-1,4
836,4.78450,-0.476,-1,4
837,4.78402,-0.482,-1,4
838,4.78402,-0.482,-1,4
839,4.78353,-0.498,-1,4
840,4.78304,-0.498,-1,4
841,4.78253,-0.506,-1,4
842,4.78202,-0.512,-1,4
843,4.78150,-0.519,-1,4
844,4.78097,-0.528,-1,4
845,4.78043,-0.536,-1,4
846,4.77989,-0.555,-1,4
847,4.77877,-0.564,-1,4
848,4.77820,-0.570,-1,4
849,4.77762,-0.577,-1,4
850,4.77704,-0.581,-1,4
851,4.77645,-0.587,-1,4
852,4.77586,-0.594,-1,4
853,4.77526,-0.603,-1,4
854,4.77464,-0.612,-1,4
855,4.77402,-0.624,-1,4
856,4.77339,-0.630,-1,4
857,4.77275,-0.638,-1,4
858,4.77211,-0.646,-1,4
859,4.77145,-0.652,-1,4
860,4.77080,-0.658,-1,4
861,4.77013,-0.664,-1,4
862,4.76946,-0.670,-1,4
863,4.76879,-0.678,-1,4
864,4.76810,-0.683,-1,4
865,4.76741,-0.699,-1,4
866,4.76671,-0.699,-1,4
867,4.76600,-0.722,-1,4
868,4.76528,-0.722,-1,4
869,4.76455,-0.733,-1,4
