cnt,pos,speed,Dir,Force,
1,3.21945,2.791,-1,4
2,3.22224,2.791,-1,4
3,3.22504,2.793,-1,4
4,3.22783,2.791,-1,4
5,3.23062,2.792,-1,4
6,3.23341,2.792,-1,4
7,3.23620,2.791,-1,4
8,3.23899,2.787,-1,4
9,3.24178,2.785,-1,4
10,3.24456,2.785,-1,4
11,3.24734,2.785,-1,4
12,3.25012,2.779,-1,4
13,3.25290,2.779,-1,4
14,3.25568,2.777,-1,4
15,3.25845,2.772,-1,4
16,3.26122,2.770,-1,4
17,3.26399,2.767,-1,4
18,3.26675,2.764,-1,4
19,3.26951,2.759,-1,4
20,3.27227,2.756,-1,4
21,3.27502,2.752,-1,4
22,3.27777,2.750,-1,4
23,3.28052,2.747,-1,4
24,3.28326,2.744,-1,4
25,3.28600,2.739,-1,4
26,3.28874,2.737,-1,4
27,3.29148,2.738,-1,4
28,3.29421,2.736,-1,4
29,3.29967,2.732,-1,4
30,3.30240,2.729,-1,4
31,3.30513,2.727,-1,4
32,3.30513,2.727,-1,4
33,3.30786,2.728,-1,4
34,3.31059,2.728,-1,4
35,3.31331,2.727,-1,4
36,3.31604,2.727,-1,4
37,3.32150,2.726,-1,4
38,3.32422,2.726,-1,4
39,3.32695,2.727,-1,4
40,3.32968,2.731,-1,4
41,3.33241,2.732,-1,4
42,3.33514,2.729,-1,4
43,3.33787,2.731,-1,4
44,3.34060,2.733,-1,4
45,3.34334,2.734,-1,4
46,3.34608,2.738,-1,4
47,3.34881,2.738,-1,4
48,3.35155,2.732,-1,4
49,3.35428,2.737,-1,4
50,3.35703,2.743,-1,4
51,3.35977,2.744,-1,4
52,3.36252,2.744,-1,4
53,3.36526,2.745,-1,4
54,3.36800,2.743,-1,4
55,3.37075,2.749,-1,4
56,3.37350,2.751,-1,4
57,3.37626,2.754,-1,4
58,3.37901,2.754,-1,4
59,3.38452,2.753,-1,4
60,3.38452,2.753,-1,4
61,3.38728,2.758,-1,4
62,3.39003,2.758,-1,4
63,3.39279,2.761,-1,4
64,3.39555,2.761,-1,4
65,3.39831,2.759,-1,4
66,3.40107,2.759,-1,4
67,3.40383,2.763,-1,4
68,3.40936,2.761,-1,4
69,3.41212,2.761,-1,4
70,3.41488,2.761,-1,4
71,3.41764,2.763,-1,4
72,3.42040,2.762,-1,4
73,3.42317,2.761,-1,4
74,3.42593,2.760,-1,4
75,3.42868,2.758,-1,4
76,3.43144,2.759,-1,4
77,3.43420,2.761,-1,4
78,3.43696,2.757,-1,4
79,3.43972,2.756,-1,4
80,3.44248,2.759,-1,4
81,3.44523,2.758,-1,4
82,3.44799,2.754,-1,4
83,3.45074,2.755,-1,4
84,3.45350,2.753,-1,4
85,3.45625,2.752,-1,4
86,3.45900,2.753,-1,4
87,3.46175,2.750,-1,4
88,3.46725,2.747,-1,4
89,3.46725,2.749,-1,4
90,3.47275,2.749,-1,4
91,3.47275,2.747,-1,4
92,3.47549,2.744,-1,4
93,3.47824,2.746,-1,4
94,3.48098,2.744,-1,4
95,3.48647,2.740,-1,4
96,3.48921,2.745,-1,4
97,3.49196,2.742,-1,4
98,3.49469,2.737,-1,4
99,3.49743,2.739,-1,4
100,3.50017,2.741,-1,4
101,3.50291,2.737,-1,4
102,3.50565,2.736,-1,4
103,3.50838,2.732,-1,4
104,3.51111,2.734,-1,4
105,3.51385,2.733,-1,4
106,3.51658,2.732,-1,4
107,3.51931,2.729,-1,4
108,3.52203,2.729,-1,4
109,3.52476,2.727,-1,4
110,3.52749,2.730,-1,4
111,3.53022,2.725,-1,4
112,3.53293,2.717,-1,4
113,3.53566,2.723,-1,4
114,3.53838,2.723,-1,4
115,3.54381,2.715,-1,4
116,3.54653,2.716,-1,4
117,3.54924,2.709,-1,4
118,3.55195,2.711,-1,4
119,3.55466,2.709,-1,4
120,3.55736,2.706,-1,4
121,3.56007,2.702,-1,4
122,3.56277,2.701,-1,4
123,3.56547,2.699,-1,4
124,3.56816,2.698,-1,4
125,3.57086,2.692,-1,4
126,3.57355,2.691,-1,4
127,3.57624,2.690,-1,4
128,3.57892,2.687,-1,4
129,3.58161,2.686,-1,4
130,3.58429,2.681,-1,4
131,3.58697,2.678,-1,4
132,3.58965,2.676,-1,4
133,3.59232,2.677,-1,4
134,3.59499,2.670,-1,4
135,3.59766,2.670,-1,4
136,3.60033,2.667,-1,4
137,3.60299,2.661,-1,4
138,3.60565,2.661,-1,4
139,3.60831,2.657,-1,4
140,3.61096,2.654,-1,4
141,3.61362,2.654,-1,4
142,3.61626,2.647,-1,4
143,3.61891,2.645,-1,4
144,3.62419,2.641,-1,4
145,3.62683,2.635,-1,4
146,3.62946,2.634,-1,4
147,3.63209,2.633,-1,4
148,3.63472,2.625,-1,4
149,3.63734,2.624,-1,4
150,3.63996,2.621,-1,4
151,3.63996,2.622,-1,4
152,3.64259,2.613,-1,4
153,3.64781,2.612,-1,4
154,3.65042,2.608,-1,4
155,3.65303,2.607,-1,4
156,3.65563,2.603,-1,4
157,3.65823,2.601,-1,4
158,3.66083,2.597,-1,4
159,3.66342,2.588,-1,4
160,3.66600,2.587,-1,4
161,3.66859,2.591,-1,4
162,3.67118,2.582,-1,4
163,3.67375,2.575,-1,4
164,3.67633,2.576,-1,4
165,3.67890,2.571,-1,4
166,3.68146,2.567,-1,4
167,3.68403,2.562,-1,4
168,3.68659,2.562,-1,4
169,3.68914,2.554,-1,4
170,3.69169,2.551,-1,4
171,3.69424,2.551,-1,4
172,3.69679,2.545,-1,4
173,3.69933,2.538,-1,4
174,3.70186,2.535,-1,4
175,3.70439,2.532,-1,4
176,3.70692,2.527,-1,4
177,3.70945,2.526,-1,4
178,3.71196,2.517,-1,4
179,3.71448,2.514,-1,4
180,3.71699,2.512,-1,4
181,3.71950,2.505,-1,4
182,3.72199,2.499,-1,4
183,3.72699,2.495,-1,4
184,3.72948,2.486,-1,4
185,3.73196,2.483,-1,4
186,3.73444,2.481,-1,4
187,3.73691,2.474,-1,4
188,3.73938,2.469,-1,4
189,3.74185,2.467,-1,4
190,3.74431,2.460,-1,4
191,3.74676,2.453,-1,4
192,3.74921,2.450,-1,4
193,3.75166,2.446,-1,4
194,3.75410,2.440,-1,4
195,3.75653,2.433,-1,4
196,3.75896,2.426,-1,4
197,3.76138,2.424,-1,4
198,3.76380,2.420,-1,4
199,3.76622,2.413,-1,4
200,3.76862,2.402,-1,4
201,3.77102,2.404,-1,4
202,3.77581,2.388,-1,4
203,3.77819,2.380,-1,4
204,3.78057,2.378,-1,4
205,3.78294,2.370,-1,4
206,3.78294,2.363,-1,4
207,3.78530,2.363,-1,4
208,3.79001,2.354,-1,4
209,3.79001,2.344,-1,4
210,3.79236,2.338,-1,4
211,3.79703,2.333,-1,4
212,3.79935,2.325,-1,4
213,3.80167,2.320,-1,4
214,3.80398,2.310,-1,4
215,3.80629,2.305,-1,4
216,3.80859,2.300,-1,4
217,3.81088,2.292,-1,4
218,3.81316,2.285,-1,4
219,3.81544,2.274,-1,4
220,3.81771,2.271,-1,4
221,3.81997,2.265,-1,4
222,3.82223,2.253,-1,4
223,3.82447,2.243,-1,4
224,3.82671,2.242,-1,4
225,3.82895,2.235,-1,4
226,3.83117,2.222,-1,4
227,3.83338,2.212,-1,4
228,3.83559,2.210,-1,4
229,3.83779,2.200,-1,4
230,3.83998,2.191,-1,4
231,3.84216,2.181,-1,4
232,3.84434,2.174,-1,4
233,3.84650,2.159,-1,4
234,3.84866,2.159,-1,4
235,3.85081,2.138,-1,4
236,3.85295,2.138,-1,4
237,3.85508,2.124,-1,4
238,3.85720,2.114,-1,4
239,3.86142,2.099,-1,4
240,3.86351,2.095,-1,4
241,3.86560,2.089,-1,4
242,3.86768,2.079,-1,4
243,3.86974,2.062,-1,4
244,3.87180,2.057,-1,4
245,3.87385,2.050,-1,4
246,3.87589,2.042,-1,4
247,3.87792,2.028,-1,4
248,3.87994,2.018,-1,4
249,3.88195,2.011,-1,4
250,3.88395,2.004,-1,4
251,3.88594,1.989,-1,4
252,3.88792,1.979,-1,4
253,3.88989,1.970,-1,4
254,3.89185,1.961,-1,4
255,3.89380,1.952,-1,4
256,3.89574,1.941,-1,4
257,3.89768,1.933,-1,4
258,3.89960,1.919,-1,4
259,3.90150,1.910,-1,4
260,3.90530,1.893,-1,4
261,3.90718,1.880,-1,4
262,3.90718,1.866,-1,4
263,3.91090,1.858,-1,4
264,3.91090,1.853,-1,4
265,3.91460,1.841,-1,4
266,3.91460,1.824,-1,4
267,3.91642,1.811,-1,4
268,3.91823,1.811,-1,4
269,3.92184,1.801,-1,4
270,3.92362,1.784,-1,4
271,3.92540,1.772,-1,4
272,3.92715,1.760,-1,4
273,3.92891,1.755,-1,4
274,3.93065,1.745,-1,4
275,3.93238,1.730,-1,4
276,3.93410,1.718,-1,4
277,3.93581,1.709,-1,4
278,3.93751,1.696,-1,4
279,3.93920,1.690,-1,4
280,3.94087,1.678,-1,4
281,3.94254,1.666,-1,4
282,3.94419,1.653,-1,4
283,3.94583,1.640,-1,4
284,3.94746,1.631,-1,4
285,3.94909,1.625,-1,4
286,3.95070,1.613,-1,4
287,3.95230,1.596,-1,4
288,3.95388,1.585,-1,4
289,3.95545,1.571,-1,4
290,3.95702,1.560,-1,4
291,3.95858,1.560,-1,4
292,3.96012,1.525,-1,4
293,3.96165,1.525,-1,4
294,3.96316,1.503,-1,4
295,3.96467,1.503,-1,4
296,3.96617,1.493,-1,4
297,3.96766,1.475,-1,4
298,3.97059,1.455,-1,4
299,3.97203,1.443,-1,4
300,3.97347,1.435,-1,4
301,3.97490,1.431,-1,4
302,3.97632,1.424,-1,4
303,3.97773,1.404,-1,4
304,3.97911,1.380,-1,4
305,3.98048,1.369,-1,4
306,3.98185,1.370,-1,4
307,3.98321,1.365,-1,4
308,3.98456,1.347,-1,4
309,3.98589,1.327,-1,4
310,3.98719,1.309,-1,4
311,3.98850,1.301,-1,4
312,3.98980,1.301,-1,4
313,3.99109,1.295,-1,4
314,3.99236,1.270,-1,4
315,3.99361,1.245,-1,4
316,3.99484,1.237,-1,4
317,3.99608,1.240,-1,4
318,3.99732,1.212,-1,4
319,3.99972,1.188,-1,4
320,4.00089,1.173,-1,4
321,4.00206,1.170,-1,4
322,4.00323,1.167,-1,4
323,4.00438,1.157,-1,4
324,4.00552,1.137,-1,4
325,4.00663,1.111,-1,4
326,4.00773,1.098,-1,4
327,4.00883,1.099,-1,4
328,4.00992,1.096,-1,4
329,4.01100,1.076,-1,4
330,4.01205,1.053,-1,4
331,4.01309,1.039,-1,4
332,4.01413,1.039,-1,4
333,4.01516,1.031,-1,4
334,4.01617,1.007,-1,4
335,4.01715,0.984,-1,4
336,4.01813,0.982,-1,4
337,4.01911,0.970,-1,4
338,4.02102,0.939,-1,4
339,4.02195,0.925,-1,4
340,4.02286,0.918,-1,4
341,4.02378,0.913,-1,4
342,4.02468,0.900,-1,4
343,4.02555,0.874,-1,4
344,4.02641,0.861,-1,4
345,4.02727,0.859,-1,4
346,4.02813,0.854,-1,4
347,4.02896,0.834,-1,4
348,4.02977,0.807,-1,4
349,4.03056,0.791,-1,4
350,4.03135,0.789,-1,4
351,4.03214,0.788,-1,4
352,4.03290,0.770,-1,4
353,4.03365,0.744,-1,4
354,4.03438,0.726,-1,4
355,4.03510,0.723,-1,4
356,4.03653,0.707,-1,4
357,4.03653,0.683,-1,4
358,4.03721,0.683,-1,4
359,4.03787,0.652,-1,4
360,4.03852,0.652,-1,4
361,4.03917,0.638,-1,4
362,4.03981,0.638,-1,4
363,4.04043,0.601,-1,4
364,4.04103,0.601,-1,4
365,4.04221,0.582,-1,4
366,4.04278,0.574,-1,4
367,4.04333,0.555,-1,4
368,4.04387,0.535,-1,4
369,4.04439,0.523,-1,4
370,4.04491,0.516,-1,4
371,4.04542,0.506,-1,4
372,4.04590,0.489,-1,4
373,4.04637,0.468,-1,4
374,4.04683,0.455,-1,4
375,4.04728,0.448,-1,4
376,4.04772,0.439,-1,4
377,4.04814,0.420,-1,4
378,4.04854,0.402,-1,4
379,4.04893,0.388,-1,4
380,4.04931,0.382,-1,4
381,4.04968,0.370,-1,4
382,4.05003,0.353,-1,4
383,4.05037,0.335,-1,4
384,4.05069,0.321,-1,4
385,4.05130,0.302,-1,4
386,4.05159,0.287,-1,4
387,4.05186,0.269,-1,4
388,4.05211,0.255,-1,4
389,4.05236,0.244,-1,4
390,4.05259,0.235,-1,4
391,4.05281,0.219,-1,4
392,4.05301,0.201,-1,4
393,4.05320,0.187,-1,4
394,4.05338,0.175,-1,4
395,4.05354,0.164,-1,4
396,4.05369,0.150,-1,4
397,4.05382,0.131,-1,4
398,4.05394,0.116,-1,4
399,4.05404,0.105,-1,4
400,4.05413,0.092,-1,4
401,4.05421,0.080,-1,4
402,4.05428,0.062,-1,4
403,4.05433,0.048,-1,4
404,4.05439,0.024,-1,4
405,4.05440,0.010,-1,4
406,4.05439,-0.006,-1,4
407,4.05437,-0.020,-1,4
408,4.05434,-0.030,-1,4
409,4.05430,-0.041,-1,4
410,4.05425,-0.054,-1,4
411,4.05418,-0.068,-1,4
412,4.05410,-0.081,-1,4
413,4.05400,-0.092,-1,4
414,4.05390,-0.101,-1,4
415,4.05379,-0.112,-1,4
416,4.05366,-0.127,-1,4
417,4.05352,-0.140,-1,4
418,4.05337,-0.150,-1,4
419,4.05321,-0.160,-1,4
420,4.05304,-0.173,-1,4
421,4.05286,-0.184,-1,4
422,4.05245,-0.209,-1,4
423,4.05223,-0.218,-1,4
424,4.05201,-0.227,-1,4
425,4.05177,-0.240,-1,4
426,4.05151,-0.252,-1,4
427,4.05125,-0.263,-1,4
428,4.05098,-0.273,-1,4
429,4.05070,-0.283,-1,4
430,4.05040,-0.294,-1,4
431,4.05010,-0.306,-1,4
432,4.04978,-0.317,-1,4
433,4.04945,-0.328,-1,4
434,4.04911,-0.337,-1,4
435,4.04876,-0.349,-1,4
436,4.04840,-0.362,-1,4
437,4.04803,-0.374,-1,4
438,4.04765,-0.383,-1,4
439,4.04725,-0.394,-1,4
440,4.04685,-0.403,-1,4
441,4.04643,-0.417,-1,4
442,4.04600,-0.427,-1,4
443,4.04557,-0.439,-1,4
444,4.04512,-0.448,-1,4
445,4.04466,-0.458,-1,4
446,4.04419,-0.472,-1,4
447,4.04370,-0.483,-1,4
448,4.04321,-0.493,-1,4
449,4.04271,-0.512,-1,4
450,4.04220,-0.512,-1,4
451,4.04167,-0.536,-1,4
452,4.04114,-0.536,-1,4
453,4.04059,-0.548,-1,4
454,4.04003,-0.556,-1,4
455,4.03947,-0.564,-1,4
456,4.03889,-0.575,-1,4
457,4.03831,-0.597,-1,4
458,4.03711,-0.605,-1,4
459,4.03711,-0.617,-1,4
460,4.03649,-0.617,-1,4
461,4.03522,-0.642,-1,4
462,4.03522,-0.654,-1,4
463,4.03390,-0.659,-1,4
464,4.03390,-0.659,-1,4
465,4.03323,-0.670,-1,4
466,4.03186,-0.690,-1,4
467,4.03116,-0.701,-1,4
468,4.03045,-0.711,-1,4
469,4.02973,-0.720,-1,4
470,4.02900,-0.730,-1,4
471,4.02826,-0.741,-1,4
472,4.02751,-0.753,-1,4
473,4.02674,-0.763,-1,4
474,4.02597,-0.776,-1,4
475,4.02518,-0.785,-1,4
476,4.02439,-0.792,-1,4
477,4.02359,-0.801,-1,4
478,4.02278,-0.807,-1,4
479,4.02196,-0.818,-1,4
480,4.02113,-0.831,-1,4
481,4.02029,-0.845,-1,4
482,4.01944,-0.853,-1,4
483,4.01858,-0.859,-1,4
484,4.01771,-0.877,-1,4
485,4.01683,-0.891,-1,4
486,4.01504,-0.900,-1,4
487,4.01414,-0.904,-1,4
488,4.01323,-0.905,-1,4
489,4.01232,-0.918,-1,4
490,4.01138,-0.937,-1,4
491,4.01043,-0.948,-1,4
492,4.00948,-0.954,-1,4
493,4.00853,-0.951,-1,4
494,4.00757,-0.959,-1,4
495,4.00659,-0.974,-1,4
496,4.00560,-0.990,-1,4
497,4.00460,-0.998,-1,4
498,4.00360,-0.999,-1,4
499,4.00260,-1.003,-1,4
500,4.00159,-1.017,-1,4
501,4.00055,-1.037,-1,4
502,3.99950,-1.044,-1,4
503,3.99847,-1.037,-1,4
504,3.99637,-1.060,-1,4
505,3.99637,-1.077,-1,4
506,3.99529,-1.087,-1,4
507,3.99420,-1.087,-1,4
508,3.99311,-1.090,-1,4
509,3.99202,-1.090,-1,4
510,3.99092,-1.098,-1,4
511,3.98981,-1.110,-1,4
512,3.98869,-1.133,-1,4
513,3.98642,-1.142,-1,4
514,3.98642,-1.145,-1,4
515,3.98527,-1.145,-1,4
516,3.98413,-1.148,-1,4
517,3.98297,-1.157,-1,4
518,3.98180,-1.171,-1,4
519,3.98062,-1.181,-1,4
520,3.97943,-1.191,-1,4
521,3.97823,-1.198,-1,4
522,3.97582,-1.210,-1,4
523,3.97582,-1.215,-1,4
524,3.97460,-1.215,-1,4
525,3.97338,-1.228,-1,4
526,3.97213,-1.244,-1,4
527,3.97088,-1.253,-1,4
528,3.96962,-1.255,-1,4
529,3.96837,-1.256,-1,4
530,3.96710,-1.265,-1,4
531,3.96454,-1.290,-1,4
532,3.96323,-1.302,-1,4
533,3.96323,-1.311,-1,4
534,3.96192,-1.309,-1,4
535,3.96061,-1.313,-1,4
536,3.95798,-1.325,-1,4
537,3.95798,-1.339,-1,4
538,3.95529,-1.351,-1,4
539,3.95529,-1.360,-1,4
540,3.95256,-1.364,-1,4
541,3.95120,-1.364,-1,4
542,3.94983,-1.371,-1,4
543,3.94844,-1.385,-1,4
544,3.94704,-1.399,-1,4
545,3.94563,-1.409,-1,4
546,3.94422,-1.412,-1,4
547,3.94281,-1.417,-1,4
548,3.94138,-1.420,-1,4
549,3.93995,-1.432,-1,4
550,3.93850,-1.448,-1,4
551,3.93705,-1.456,-1,4
552,3.93559,-1.461,-1,4
553,3.93412,-1.468,-1,4
554,3.93265,-1.473,-1,4
555,3.93117,-1.478,-1,4
556,3.92967,-1.497,-1,4
557,3.92817,-1.503,-1,4
558,3.92666,-1.508,-1,4
559,3.92515,-1.514,-1,4
560,3.92362,-1.534,-1,4
561,3.92209,-1.534,-1,4
562,3.92055,-1.548,-1,4
563,3.91900,-1.556,-1,4
564,3.91744,-1.564,-1,4
565,3.91588,-1.575,-1,4
566,3.91272,-1.587,-1,4
567,3.91113,-1.591,-1,4
568,3.90953,-1.596,-1,4
569,3.90793,-1.603,-1,4
570,3.90631,-1.616,-1,4
571,3.90468,-1.627,-1,4
572,3.90305,-1.635,-1,4
573,3.90141,-1.640,-1,4
574,3.89976,-1.648,-1,4
575,3.89810,-1.657,-1,4
576,3.89644,-1.668,-1,4
577,3.89476,-1.678,-1,4
578,3.89307,-1.683,-1,4
579,3.89138,-1.693,-1,4
580,3.88968,-1.701,-1,4
581,3.88797,-1.711,-1,4
582,3.88625,-1.719,-1,4
583,3.88452,-1.728,-1,4
584,3.88279,-1.737,-1,4
585,3.88104,-1.749,-1,4
586,3.87928,-1.752,-1,4
587,3.87752,-1.763,-1,4
588,3.87396,-1.783,-1,4
589,3.87217,-1.793,-1,4
590,3.87037,-1.799,-1,4
591,3.87037,-1.808,-1,4
592,3.86675,-1.818,-1,4
593,3.86675,-1.828,-1,4
594,3.86492,-1.840,-1,4
595,3.86308,-1.840,-1,4
596,3.85938,-1.853,-1,4
597,3.85752,-1.867,-1,4
598,3.85564,-1.874,-1,4
599,3.85376,-1.882,-1,4
600,3.85187,-1.890,-1,4
601,3.84997,-1.901,-1,4
602,3.84806,-1.910,-1,4
603,3.84614,-1.920,-1,4
604,3.84421,-1.930,-1,4
605,3.84227,-1.937,-1,4
606,3.84033,-1.946,-1,4
607,3.83837,-1.956,-1,4
608,3.83640,-1.966,-1,4
609,3.83443,-1.976,-1,4
610,3.83245,-1.982,-1,4
611,3.83046,-1.989,-1,4
612,3.82846,-2.000,-1,4
613,3.82644,-2.013,-1,4
614,3.82442,-2.020,-1,4
615,3.82240,-2.021,-1,4
616,3.82037,-2.036,-1,4
617,3.81627,-2.054,-1,4
618,3.81421,-2.060,-1,4
619,3.81421,-2.060,-1,4
620,3.81006,-2.080,-1,4
621,3.81006,-2.085,-1,4
622,3.80588,-2.093,-1,4
623,3.80588,-2.100,-1,4
624,3.80167,-2.111,-1,4
625,3.79955,-2.120,-1,4
626,3.79743,-2.124,-1,4
627,3.79530,-2.132,-1,4
628,3.79316,-2.142,-1,4
629,3.79101,-2.149,-1,4
630,3.78885,-2.157,-1,4
631,3.78668,-2.166,-1,4
632,3.78451,-2.172,-1,4
633,3.78233,-2.178,-1,4
634,3.78014,-2.188,-1,4
635,3.77795,-2.197,-1,4
636,3.77575,-2.201,-1,4
637,3.77354,-2.210,-1,4
638,3.77132,-2.220,-1,4
639,3.76909,-2.226,-1,4
640,3.76686,-2.233,-1,4
641,3.76462,-2.241,-1,4
642,3.76237,-2.250,-1,4
643,3.76011,-2.255,-1,4
644,3.75785,-2.262,-1,4
645,3.75558,-2.270,-1,4
646,3.75330,-2.286,-1,4
647,3.75102,-2.286,-1,4
648,3.74872,-2.292,-1,4
649,3.74643,-2.298,-1,4
650,3.74412,-2.312,-1,4
651,3.74181,-2.312,-1,4
652,3.73949,-2.326,-1,4
653,3.73716,-2.330,-1,4
654,3.73249,-2.343,-1,4
655,3.73015,-2.344,-1,4
656,3.72779,-2.350,-1,4
657,3.72544,-2.355,-1,4
658,3.72307,-2.368,-1,4
659,3.72070,-2.370,-1,4
660,3.71833,-2.375,-1,4
661,3.71594,-2.385,-1,4
662,3.71356,-2.386,-1,4
663,3.71116,-2.394,-1,4
664,3.70876,-2.402,-1,4
665,3.70635,-2.409,-1,4
666,3.70394,-2.412,-1,4
667,3.70152,-2.419,-1,4
668,3.69909,-2.426,-1,4
669,3.69666,-2.431,-1,4
670,3.69422,-2.440,-1,4
671,3.69178,-2.446,-1,4
672,3.68933,-2.449,-1,4
673,3.68687,-2.456,-1,4
674,3.68441,-2.466,-1,4
675,3.68193,-2.473,-1,4
676,3.67946,-2.473,-1,4
677,3.67698,-2.480,-1,4
678,3.67449,-2.488,-1,4
679,3.67200,-2.492,-1,4
680,3.66950,-2.499,-1,4
681,3.66700,-2.506,-1,4
682,3.66448,-2.510,-1,4
683,3.66197,-2.515,-1,4
684,3.65945,-2.525,-1,4
685,3.65691,-2.530,-1,4
686,3.65438,-2.535,-1,4
687,3.65184,-2.540,-1,4
688,3.64929,-2.545,-1,4
689,3.64674,-2.552,-1,4
690,3.64418,-2.559,-1,4
691,3.64162,-2.563,-1,4
692,3.63906,-2.564,-1,4
693,3.63648,-2.575,-1,4
694,3.63390,-2.581,-1,4
695,3.63132,-2.583,-1,4
696,3.62873,-2.589,-1,4
697,3.62613,-2.594,-1,4
698,3.62354,-2.599,-1,4
699,3.62093,-2.608,-1,4
700,3.61832,-2.611,-1,4
701,3.61570,-2.617,-1,4
702,3.61308,-2.617,-1,4
703,3.61045,-2.628,-1,4
704,3.60519,-2.639,-1,4
705,3.60519,-2.639,-1,4
706,3.60255,-2.639,-1,4
707,3.59991,-2.649,-1,4
708,3.59726,-2.649,-1,4
709,3.59460,-2.660,-1,4
710,3.59194,-2.662,-1,4
711,3.58928,-2.666,-1,4
712,3.58661,-2.669,-1,4
713,3.58127,-2.674,-1,4
714,3.57859,-2.679,-1,4
715,3.57591,-2.685,-1,4
716,3.57322,-2.684,-1,4
717,3.57054,-2.688,-1,4
718,3.56784,-2.691,-1,4
719,3.56514,-2.701,-1,4
720,3.56244,-2.699,-1,4
721,3.55974,-2.703,-1,4
722,3.55704,-2.705,-1,4
723,3.55433,-2.712,-1,4
724,3.55161,-2.718,-1,4
725,3.54889,-2.717,-1,4
726,3.54617,-2.719,-1,4
727,3.54345,-2.725,-1,4
728,3.54072,-2.729,-1,4
729,3.53799,-2.731,-1,4
730,3.53525,-2.739,-1,4
731,3.53251,-2.738,-1,4
732,3.52977,-2.739,-1,4
733,3.52702,-2.747,-1,4
734,3.52428,-2.749,-1,4
735,3.52153,-2.748,-1,4
736,3.51877,-2.754,-1,4
737,3.51602,-2.754,-1,4
738,3.51326,-2.757,-1,4
739,3.51050,-2.761,-1,4
740,3.50774,-2.762,-1,4
741,3.50497,-2.765,-1,4
742,3.50221,-2.766,-1,4
743,3.49944,-2.768,-1,4
744,3.49667,-2.771,-1,4
745,3.49389,-2.773,-1,4
746,3.49112,-2.772,-1,4
747,3.48834,-2.777,-1,4
748,3.48557,-2.777,-1,4
749,3.48279,-2.778,-1,4
750,3.48001,-2.784,-1,4
751,3.47722,-2.784,-1,4
752,3.47444,-2.784,-1,4
753,3.47166,-2.784,-1,4
754,3.46608,-2.790,-1,4
755,3.46608,-2.790,-1,4
756,3.46050,-2.788,-1,4
757,3.45771,-2.790,-1,4
758,3.45492,-2.793,-1,4
759,3.45212,-2.794,-1,4
760,3.44933,-2.796,-1,4
761,3.44653,-2.798,-1,4
762,3.44373,-2.795,-1,4
763,3.44093,-2.800,-1,4
764,3.43813,-2.804,-1,4
765,3.43533,-2.800,-1,4
766,3.43253,-2.803,-1,4
767,3.42972,-2.803,-1,4
768,3.42692,-2.802,-1,4
769,3.42412,-2.806,-1,4
770,3.42131,-2.808,-1,4
771,3.41850,-2.806,-1,4
772,3.41569,-2.809,-1,4
773,3.41288,-2.809,-1,4
774,3.41007,-2.811,-1,4
775,3.40726,-2.810,-1,4
776,3.40445,-2.812,-1,4
777,3.40164,-2.810,-1,4
778,3.39883,-2.810,-1,4
779,3.39602,-2.810,-1,4
780,3.39321,-2.813,-1,4
781,3.39040,-2.811,-1,4
782,3.38759,-2.810,-1,4
783,3.38477,-2.812,-1,4
784,3.38197,-2.809,-1,4
785,3.37916,-2.810,-1,4
786,3.37635,-2.811,-1,4
787,3.37073,-2.807,-1,4
788,3.36792,-2.810,-1,4
789,3.36511,-2.809,-1,4
790,3.36230,-2.808,-1,4
791,3.35950,-2.806,-1,4
792,3.35669,-2.807,-1,4
793,3.35388,-2.807,-1,4
794,3.35108,-2.805,-1,4
795,3.34827,-2.804,-1,4
796,3.34547,-2.806,-1,4
797,3.34267,-2.800,-1,4
798,3.33986,-2.804,-1,4
799,3.33706,-2.802,-1,4
800,3.33426,-2.800,-1,4
801,3.33146,-2.797,-1,4
802,3.32867,-2.797,-1,4
803,3.32587,-2.797,-1,4
804,3.32307,-2.798,-1,4
805,3.32028,-2.792,-1,4
806,3.31749,-2.792,-1,4
807,3.31469,-2.788,-1,4
808,3.31191,-2.788,-1,4
809,3.30633,-2.791,-1,4
810,3.30633,-2.787,-1,4
811,3.30076,-2.783,-1,4
812,3.29797,-2.784,-1,4
813,3.29519,-2.782,-1,4
814,3.29240,-2.785,-1,4
815,3.28962,-2.784,-1,4
816,3.28684,-2.780,-1,4
817,3.28406,-2.778,-1,4
818,3.28129,-2.778,-1,4
819,3.27851,-2.778,-1,4
820,3.27573,-2.779,-1,4
821,3.27295,-2.775,-1,4
822,3.27018,-2.772,-1,4
823,3.26741,-2.773,-1,4
824,3.26464,-2.771,-1,4
825,3.26187,-2.771,-1,4
826,3.25910,-2.771,-1,4
827,3.25633,-2.767,-1,4
828,3.25356,-2.766,-1,4
829,3.25080,-2.767,-1,4
830,3.24803,-2.763,-1,4
831,3.24527,-2.765,-1,4
832,3.24251,-2.758,-1,4
833,3.23699,-2.759,-1,4
834,3.23423,-2.759,-1,4
835,3.23423,-2.756,-1,4
836,3.23147,-2.756,-1,4
837,3.22872,-2.756,-1,4
838,3.22321,-2.754,-1,4
839,3.22321,-2.755,-1,4
840,3.22045,-2.751,-1,4
841,3.21770,-2.752,-1,4
