cnt,pos,speed,Dir,Force,
1,3.21636,1.595,-1,4
2,3.21795,1.595,-1,4
3,3.21957,1.615,-1,4
4,3.22119,1.626,-1,4
5,3.22281,1.616,-1,4
6,3.22441,1.599,-1,4
7,3.22601,1.598,-1,4
8,3.22762,1.617,-1,4
9,3.22925,1.628,-1,4
10,3.23087,1.619,-1,4
11,3.23247,1.604,-1,4
12,3.23408,1.603,-1,4
13,3.23569,1.618,-1,4
14,3.23732,1.619,-1,4
15,3.23894,1.619,-1,4
16,3.24055,1.609,-1,4
17,3.24216,1.609,-1,4
18,3.24378,1.626,-1,4
19,3.24540,1.626,-1,4
20,3.24702,1.605,-1,4
21,3.24863,1.611,-1,4
22,3.25187,1.629,-1,4
23,3.25349,1.625,-1,4
24,3.25510,1.609,-1,4
25,3.25670,1.603,-1,4
26,3.25832,1.613,-1,4
27,3.25994,1.628,-1,4
28,3.26157,1.628,-1,4
29,3.26318,1.607,-1,4
30,3.26478,1.598,-1,4
31,3.26639,1.610,-1,4
32,3.26801,1.625,-1,4
33,3.26964,1.625,-1,4
34,3.27125,1.609,-1,4
35,3.27284,1.596,-1,4
36,3.27445,1.606,-1,4
37,3.27607,1.622,-1,4
38,3.27769,1.620,-1,4
39,3.27930,1.609,-1,4
40,3.28090,1.600,-1,4
41,3.28251,1.606,-1,4
42,3.28413,1.620,-1,4
43,3.28574,1.618,-1,4
44,3.28735,1.606,-1,4
45,3.28895,1.605,-1,4
46,3.29057,1.612,-1,4
47,3.29218,1.617,-1,4
48,3.29380,1.615,-1,4
49,3.29540,1.604,-1,4
50,3.29701,1.605,-1,4
51,3.29863,1.618,-1,4
52,3.30025,1.611,-1,4
53,3.30186,1.604,-1,4
54,3.30346,1.607,-1,4
55,3.30507,1.607,-1,4
56,3.30669,1.623,-1,4
57,3.30832,1.614,-1,4
58,3.30994,1.614,-1,4
59,3.31154,1.602,-1,4
60,3.31315,1.613,-1,4
61,3.31478,1.629,-1,4
62,3.31803,1.618,-1,4
63,3.31963,1.605,-1,4
64,3.32124,1.612,-1,4
65,3.32287,1.630,-1,4
66,3.32450,1.631,-1,4
67,3.32612,1.621,-1,4
68,3.32774,1.611,-1,4
69,3.32935,1.614,-1,4
70,3.33098,1.630,-1,4
71,3.33261,1.635,-1,4
72,3.33424,1.624,-1,4
73,3.33585,1.617,-1,4
74,3.33748,1.622,-1,4
75,3.33911,1.630,-1,4
76,3.34074,1.634,-1,4
77,3.34237,1.625,-1,4
78,3.34399,1.621,-1,4
79,3.34562,1.631,-1,4
80,3.34725,1.637,-1,4
81,3.34889,1.628,-1,4
82,3.35051,1.628,-1,4
83,3.35214,1.628,-1,4
84,3.35542,1.644,-1,4
85,3.35542,1.633,-1,4
86,3.35868,1.627,-1,4
87,3.35868,1.632,-1,4
88,3.36196,1.643,-1,4
89,3.36196,1.646,-1,4
90,3.36524,1.638,-1,4
91,3.36687,1.630,-1,4
92,3.36851,1.638,-1,4
93,3.37016,1.649,-1,4
94,3.37181,1.647,-1,4
95,3.37344,1.639,-1,4
96,3.37508,1.636,-1,4
97,3.37672,1.643,-1,4
98,3.37838,1.652,-1,4
99,3.38002,1.646,-1,4
100,3.38166,1.637,-1,4
101,3.38330,1.642,-1,4
102,3.38495,1.651,-1,4
103,3.38660,1.653,-1,4
104,3.38825,1.645,-1,4
105,3.38989,1.637,-1,4
106,3.39153,1.644,-1,4
107,3.39319,1.659,-1,4
108,3.39484,1.655,-1,4
109,3.39648,1.640,-1,4
110,3.39976,1.645,-1,4
111,3.39976,1.661,-1,4
112,3.40308,1.659,-1,4
113,3.40308,1.639,-1,4
114,3.40636,1.634,-1,4
115,3.40636,1.646,-1,4
116,3.40966,1.658,-1,4
117,3.41132,1.658,-1,4
118,3.41296,1.642,-1,4
119,3.41459,1.633,-1,4
120,3.41623,1.641,-1,4
121,3.41789,1.654,-1,4
122,3.41954,1.654,-1,4
123,3.42119,1.646,-1,4
124,3.42282,1.635,-1,4
125,3.42446,1.639,-1,4
126,3.42611,1.649,-1,4
127,3.42776,1.647,-1,4
128,3.42940,1.644,-1,4
129,3.43104,1.642,-1,4
130,3.43268,1.638,-1,4
131,3.43432,1.638,-1,4
132,3.43596,1.642,-1,4
133,3.43760,1.640,-1,4
134,3.43924,1.642,-1,4
135,3.44088,1.641,-1,4
136,3.44252,1.634,-1,4
137,3.44415,1.632,-1,4
138,3.44579,1.638,-1,4
139,3.44743,1.641,-1,4
140,3.44907,1.641,-1,4
141,3.45070,1.627,-1,4
142,3.45232,1.621,-1,4
143,3.45396,1.636,-1,4
144,3.45560,1.645,-1,4
145,3.45723,1.633,-1,4
146,3.46047,1.621,-1,4
147,3.46211,1.633,-1,4
148,3.46375,1.642,-1,4
149,3.46538,1.628,-1,4
150,3.46699,1.611,-1,4
151,3.46860,1.617,-1,4
152,3.47023,1.632,-1,4
153,3.47187,1.634,-1,4
154,3.47349,1.621,-1,4
155,3.47509,1.605,-1,4
156,3.47671,1.612,-1,4
157,3.47834,1.631,-1,4
158,3.47997,1.628,-1,4
159,3.48158,1.610,-1,4
160,3.48317,1.596,-1,4
161,3.48478,1.607,-1,4
162,3.48641,1.627,-1,4
163,3.48803,1.623,-1,4
164,3.48963,1.588,-1,4
165,3.49281,1.597,-1,4
166,3.49443,1.618,-1,4
167,3.49443,1.613,-1,4
168,3.49763,1.590,-1,4
169,3.49763,1.590,-1,4
170,3.49921,1.574,-1,4
171,3.50079,1.588,-1,4
172,3.50240,1.610,-1,4
173,3.50401,1.603,-1,4
174,3.50559,1.579,-1,4
175,3.50873,1.577,-1,4
176,3.51032,1.598,-1,4
177,3.51192,1.595,-1,4
178,3.51349,1.566,-1,4
179,3.51504,1.553,-1,4
180,3.51661,1.567,-1,4
181,3.51819,1.586,-1,4
182,3.51978,1.585,-1,4
183,3.52133,1.553,-1,4
184,3.52287,1.537,-1,4
185,3.52442,1.558,-1,4
186,3.52600,1.578,-1,4
187,3.52757,1.567,-1,4
188,3.52911,1.539,-1,4
189,3.53063,1.523,-1,4
190,3.53218,1.544,-1,4
191,3.53374,1.567,-1,4
192,3.53530,1.557,-1,4
193,3.53682,1.525,-1,4
194,3.53834,1.511,-1,4
195,3.53987,1.530,-1,4
196,3.54141,1.549,-1,4
197,3.54296,1.546,-1,4
198,3.54447,1.514,-1,4
199,3.54597,1.497,-1,4
200,3.54748,1.511,-1,4
201,3.54902,1.527,-1,4
202,3.55205,1.503,-1,4
203,3.55354,1.487,-1,4
204,3.55503,1.495,-1,4
205,3.55655,1.516,-1,4
206,3.55806,1.515,-1,4
207,3.55955,1.488,-1,4
208,3.56102,1.471,-1,4
209,3.56251,1.487,-1,4
210,3.56401,1.500,-1,4
211,3.56550,1.496,-1,4
212,3.56698,1.477,-1,4
213,3.56844,1.457,-1,4
214,3.56991,1.467,-1,4
215,3.57140,1.490,-1,4
216,3.57288,1.482,-1,4
217,3.57433,1.457,-1,4
218,3.57578,1.442,-1,4
219,3.57723,1.455,-1,4
220,3.57870,1.469,-1,4
221,3.58017,1.467,-1,4
222,3.58161,1.445,-1,4
223,3.58304,1.426,-1,4
224,3.58447,1.435,-1,4
225,3.58593,1.455,-1,4
226,3.58738,1.448,-1,4
227,3.58880,1.428,-1,4
228,3.59022,1.417,-1,4
229,3.59164,1.423,-1,4
230,3.59307,1.429,-1,4
231,3.59592,1.416,-1,4
232,3.59592,1.404,-1,4
233,3.59873,1.406,-1,4
234,3.59873,1.411,-1,4
235,3.60154,1.408,-1,4
236,3.60154,1.394,-1,4
237,3.60294,1.388,-1,4
238,3.60433,1.387,-1,4
239,3.60710,1.388,-1,4
240,3.60849,1.385,-1,4
241,3.60987,1.380,-1,4
242,3.61124,1.370,-1,4
243,3.61260,1.367,-1,4
244,3.61397,1.369,-1,4
245,3.61534,1.367,-1,4
246,3.61670,1.356,-1,4
247,3.61805,1.353,-1,4
248,3.61940,1.351,-1,4
249,3.62074,1.344,-1,4
250,3.62208,1.339,-1,4
251,3.62342,1.337,-1,4
252,3.62475,1.334,-1,4
253,3.62608,1.328,-1,4
254,3.62741,1.324,-1,4
255,3.62872,1.318,-1,4
256,3.63003,1.309,-1,4
257,3.63134,1.308,-1,4
258,3.63265,1.306,-1,4
259,3.63395,1.300,-1,4
260,3.63524,1.292,-1,4
261,3.63653,1.286,-1,4
262,3.63781,1.285,-1,4
263,3.63909,1.279,-1,4
264,3.64036,1.272,-1,4
265,3.64163,1.266,-1,4
266,3.64289,1.267,-1,4
267,3.64415,1.252,-1,4
268,3.64540,1.247,-1,4
269,3.64789,1.243,-1,4
270,3.64789,1.233,-1,4
271,3.65036,1.231,-1,4
272,3.65036,1.227,-1,4
273,3.65281,1.223,-1,4
274,3.65402,1.211,-1,4
275,3.65522,1.205,-1,4
276,3.65643,1.209,-1,4
277,3.65763,1.199,-1,4
278,3.65882,1.191,-1,4
279,3.66000,1.182,-1,4
280,3.66118,1.181,-1,4
281,3.66236,1.173,-1,4
282,3.66352,1.166,-1,4
283,3.66469,1.162,-1,4
284,3.66585,1.161,-1,4
285,3.66700,1.150,-1,4
286,3.66813,1.137,-1,4
287,3.66927,1.132,-1,4
288,3.67040,1.135,-1,4
289,3.67153,1.127,-1,4
290,3.67264,1.116,-1,4
291,3.67375,1.109,-1,4
292,3.67486,1.106,-1,4
293,3.67596,1.101,-1,4
294,3.67705,1.089,-1,4
295,3.67813,1.079,-1,4
296,3.67920,1.075,-1,4
297,3.68134,1.064,-1,4
298,3.68134,1.054,-1,4
299,3.68240,1.047,-1,4
300,3.68344,1.047,-1,4
301,3.68449,1.033,-1,4
302,3.68552,1.033,-1,4
303,3.68654,1.014,-1,4
304,3.68756,1.014,-1,4
305,3.68857,1.012,-1,4
306,3.69057,0.993,-1,4
307,3.69155,0.981,-1,4
308,3.69253,0.978,-1,4
309,3.69351,0.978,-1,4
310,3.69448,0.965,-1,4
311,3.69542,0.947,-1,4
312,3.69636,0.938,-1,4
313,3.69730,0.944,-1,4
314,3.69824,0.939,-1,4
315,3.69917,0.925,-1,4
316,3.70007,0.902,-1,4
317,3.70097,0.897,-1,4
318,3.70187,0.902,-1,4
319,3.70277,0.897,-1,4
320,3.70364,0.877,-1,4
321,3.70450,0.858,-1,4
322,3.70536,0.859,-1,4
323,3.70623,0.864,-1,4
324,3.70708,0.856,-1,4
325,3.70791,0.814,-1,4
326,3.70873,0.814,-1,4
327,3.70954,0.817,-1,4
328,3.71036,0.817,-1,4
329,3.71117,0.809,-1,4
330,3.71196,0.790,-1,4
331,3.71273,0.773,-1,4
332,3.71350,0.770,-1,4
333,3.71503,0.760,-1,4
334,3.71577,0.742,-1,4
335,3.71650,0.726,-1,4
336,3.71722,0.725,-1,4
337,3.71794,0.720,-1,4
338,3.71865,0.705,-1,4
339,3.71934,0.691,-1,4
340,3.72002,0.683,-1,4
341,3.72070,0.681,-1,4
342,3.72137,0.671,-1,4
343,3.72203,0.654,-1,4
344,3.72267,0.640,-1,4
345,3.72330,0.632,-1,4
346,3.72393,0.628,-1,4
347,3.72455,0.619,-1,4
348,3.72515,0.602,-1,4
349,3.72574,0.589,-1,4
350,3.72632,0.582,-1,4
351,3.72690,0.576,-1,4
352,3.72746,0.548,-1,4
353,3.72801,0.548,-1,4
354,3.72908,0.531,-1,4
355,3.72908,0.523,-1,4
356,3.72960,0.507,-1,4
357,3.73011,0.507,-1,4
358,3.73060,0.482,-1,4
359,3.73108,0.482,-1,4
360,3.73202,0.466,-1,4
361,3.73247,0.449,-1,4
362,3.73291,0.436,-1,4
363,3.73333,0.427,-1,4
364,3.73376,0.421,-1,4
365,3.73416,0.407,-1,4
366,3.73456,0.392,-1,4
367,3.73493,0.378,-1,4
368,3.73530,0.370,-1,4
369,3.73567,0.363,-1,4
370,3.73601,0.348,-1,4
371,3.73635,0.332,-1,4
372,3.73666,0.320,-1,4
373,3.73698,0.311,-1,4
374,3.73728,0.301,-1,4
375,3.73756,0.286,-1,4
376,3.73783,0.269,-1,4
377,3.73809,0.258,-1,4
378,3.73834,0.249,-1,4
379,3.73858,0.238,-1,4
380,3.73880,0.222,-1,4
381,3.73901,0.209,-1,4
382,3.73921,0.197,-1,4
383,3.73939,0.188,-1,4
384,3.73957,0.178,-1,4
385,3.73973,0.161,-1,4
386,3.73988,0.149,-1,4
387,3.74002,0.141,-1,4
388,3.74015,0.131,-1,4
389,3.74027,0.117,-1,4
390,3.74038,0.105,-1,4
391,3.74055,0.083,-1,4
392,3.74062,0.073,-1,4
393,3.74068,0.059,-1,4
394,3.74073,0.045,-1,4
395,3.74076,0.032,-1,4
396,3.74078,0.025,-1,4
397,3.74080,0.013,-1,4
398,3.74079,-0.000,-1,4
399,3.74078,-0.013,-1,4
400,3.74076,-0.023,-1,4
401,3.74073,-0.029,-1,4
402,3.74069,-0.041,-1,4
403,3.74064,-0.051,-1,4
404,3.74057,-0.064,-1,4
405,3.74050,-0.073,-1,4
406,3.74042,-0.080,-1,4
407,3.74033,-0.089,-1,4
408,3.74023,-0.101,-1,4
409,3.74012,-0.109,-1,4
410,3.74000,-0.127,-1,4
411,3.73988,-0.136,-1,4
412,3.73974,-0.147,-1,4
413,3.73959,-0.147,-1,4
414,3.73944,-0.165,-1,4
415,3.73927,-0.165,-1,4
416,3.73891,-0.184,-1,4
417,3.73872,-0.195,-1,4
418,3.73851,-0.206,-1,4
419,3.73830,-0.215,-1,4
420,3.73807,-0.225,-1,4
421,3.73784,-0.235,-1,4
422,3.73759,-0.246,-1,4
423,3.73734,-0.256,-1,4
424,3.73707,-0.267,-1,4
425,3.73679,-0.276,-1,4
426,3.73650,-0.288,-1,4
427,3.73621,-0.298,-1,4
428,3.73590,-0.308,-1,4
429,3.73558,-0.317,-1,4
430,3.73525,-0.328,-1,4
431,3.73492,-0.337,-1,4
432,3.73457,-0.346,-1,4
433,3.73421,-0.357,-1,4
434,3.73385,-0.367,-1,4
435,3.73347,-0.374,-1,4
436,3.73309,-0.387,-1,4
437,3.73269,-0.404,-1,4
438,3.73229,-0.404,-1,4
439,3.73187,-0.415,-1,4
440,3.73145,-0.425,-1,4
441,3.73101,-0.434,-1,4
442,3.73057,-0.444,-1,4
443,3.72965,-0.463,-1,4
444,3.72918,-0.474,-1,4
445,3.72870,-0.482,-1,4
446,3.72821,-0.493,-1,4
447,3.72770,-0.503,-1,4
448,3.72719,-0.515,-1,4
449,3.72666,-0.524,-1,4
450,3.72613,-0.532,-1,4
451,3.72559,-0.542,-1,4
452,3.72504,-0.553,-1,4
453,3.72447,-0.564,-1,4
454,3.72390,-0.572,-1,4
455,3.72332,-0.582,-1,4
456,3.72273,-0.593,-1,4
457,3.72212,-0.605,-1,4
458,3.72151,-0.614,-1,4
459,3.72088,-0.624,-1,4
460,3.72025,-0.633,-1,4
461,3.71960,-0.646,-1,4
462,3.71895,-0.658,-1,4
463,3.71828,-0.665,-1,4
464,3.71761,-0.683,-1,4
465,3.71692,-0.683,-1,4
466,3.71623,-0.706,-1,4
467,3.71552,-0.706,-1,4
468,3.71480,-0.727,-1,4
469,3.71408,-0.727,-1,4
470,3.71334,-0.749,-1,4
471,3.71259,-0.758,-1,4
472,3.71106,-0.768,-1,4
473,3.71028,-0.779,-1,4
474,3.70949,-0.789,-1,4
475,3.70870,-0.796,-1,4
476,3.70789,-0.807,-1,4
477,3.70707,-0.817,-1,4
478,3.70624,-0.830,-1,4
479,3.70540,-0.841,-1,4
480,3.70455,-0.850,-1,4
481,3.70370,-0.857,-1,4
482,3.70283,-0.866,-1,4
483,3.70195,-0.876,-1,4
484,3.70107,-0.888,-1,4
485,3.70017,-0.899,-1,4
486,3.69926,-0.906,-1,4
487,3.69835,-0.916,-1,4
488,3.69742,-0.926,-1,4
489,3.69649,-0.934,-1,4
490,3.69554,-0.950,-1,4
491,3.69458,-0.957,-1,4
492,3.69362,-0.966,-1,4
493,3.69265,-0.966,-1,4
494,3.69167,-0.997,-1,4
495,3.69067,-0.997,-1,4
496,3.68966,-1.011,-1,4
497,3.68865,-1.011,-1,4
498,3.68764,-1.030,-1,4
499,3.68661,-1.046,-1,4
500,3.68451,-1.053,-1,4
501,3.68346,-1.053,-1,4
502,3.68240,-1.058,-1,4
503,3.68133,-1.076,-1,4
504,3.68023,-1.095,-1,4
505,3.67913,-1.102,-1,4
506,3.67803,-1.100,-1,4
507,3.67693,-1.102,-1,4
508,3.67581,-1.117,-1,4
509,3.67467,-1.135,-1,4
510,3.67353,-1.145,-1,4
511,3.67238,-1.148,-1,4
512,3.67123,-1.151,-1,4
513,3.67006,-1.167,-1,4
514,3.66889,-1.176,-1,4
515,3.66770,-1.186,-1,4
516,3.66651,-1.191,-1,4
517,3.66531,-1.197,-1,4
518,3.66411,-1.204,-1,4
519,3.66289,-1.222,-1,4
520,3.66165,-1.240,-1,4
521,3.65918,-1.234,-1,4
522,3.65794,-1.244,-1,4
523,3.65668,-1.260,-1,4
524,3.65540,-1.278,-1,4
525,3.65411,-1.283,-1,4
526,3.65283,-1.280,-1,4
527,3.65155,-1.289,-1,4
528,3.65025,-1.299,-1,4
529,3.64893,-1.313,-1,4
530,3.64761,-1.325,-1,4
531,3.64628,-1.329,-1,4
532,3.64495,-1.328,-1,4
533,3.64362,-1.334,-1,4
534,3.64227,-1.352,-1,4
535,3.64090,-1.366,-1,4
536,3.63953,-1.367,-1,4
537,3.63816,-1.371,-1,4
538,3.63540,-1.388,-1,4
539,3.63540,-1.388,-1,4
540,3.63259,-1.411,-1,4
541,3.63259,-1.411,-1,4
542,3.63117,-1.412,-1,4
543,3.62976,-1.417,-1,4
544,3.62833,-1.425,-1,4
545,3.62690,-1.437,-1,4
546,3.62545,-1.447,-1,4
547,3.62254,-1.459,-1,4
548,3.62107,-1.465,-1,4
549,3.61960,-1.477,-1,4
550,3.61811,-1.483,-1,4
551,3.61662,-1.489,-1,4
552,3.61513,-1.497,-1,4
553,3.61362,-1.506,-1,4
554,3.61210,-1.516,-1,4
555,3.61059,-1.516,-1,4
556,3.60906,-1.526,-1,4
557,3.60753,-1.534,-1,4
558,3.60598,-1.546,-1,4
559,3.60443,-1.553,-1,4
560,3.60288,-1.555,-1,4
561,3.60132,-1.560,-1,4
562,3.59974,-1.572,-1,4
563,3.59816,-1.586,-1,4
564,3.59657,-1.590,-1,4
565,3.59497,-1.592,-1,4
566,3.59338,-1.598,-1,4
567,3.59176,-1.624,-1,4
568,3.59014,-1.624,-1,4
569,3.58852,-1.624,-1,4
570,3.58689,-1.624,-1,4
571,3.58526,-1.653,-1,4
572,3.58361,-1.653,-1,4
573,3.58195,-1.657,-1,4
574,3.58029,-1.656,-1,4
575,3.57696,-1.673,-1,4
576,3.57527,-1.693,-1,4
577,3.57357,-1.695,-1,4
578,3.57189,-1.686,-1,4
579,3.57020,-1.692,-1,4
580,3.56848,-1.715,-1,4
581,3.56675,-1.730,-1,4
582,3.56503,-1.726,-1,4
583,3.56331,-1.716,-1,4
584,3.56158,-1.732,-1,4
585,3.55982,-1.753,-1,4
586,3.55806,-1.761,-1,4
587,3.55631,-1.755,-1,4
588,3.55456,-1.752,-1,4
589,3.55278,-1.772,-1,4
590,3.55099,-1.789,-1,4
591,3.54921,-1.787,-1,4
592,3.54742,-1.785,-1,4
593,3.54563,-1.796,-1,4
594,3.54381,-1.812,-1,4
595,3.54200,-1.816,-1,4
596,3.54019,-1.812,-1,4
597,3.53836,-1.834,-1,4
598,3.53653,-1.834,-1,4
599,3.53469,-1.839,-1,4
600,3.53285,-1.841,-1,4
601,3.53100,-1.844,-1,4
602,3.52914,-1.860,-1,4
603,3.52727,-1.869,-1,4
604,3.52355,-1.863,-1,4
605,3.52167,-1.880,-1,4
606,3.51978,-1.892,-1,4
607,3.51789,-1.892,-1,4
608,3.51600,-1.886,-1,4
609,3.51411,-1.895,-1,4
610,3.51219,-1.911,-1,4
611,3.51028,-1.915,-1,4
612,3.50837,-1.909,-1,4
613,3.50646,-1.914,-1,4
614,3.50453,-1.927,-1,4
615,3.50260,-1.932,-1,4
616,3.50067,-1.930,-1,4
617,3.49873,-1.934,-1,4
618,3.49679,-1.944,-1,4
619,3.49484,-1.949,-1,4
620,3.49289,-1.946,-1,4
621,3.49094,-1.953,-1,4
622,3.48898,-1.962,-1,4
623,3.48701,-1.965,-1,4
624,3.48505,-1.961,-1,4
625,3.48308,-1.967,-1,4
626,3.48111,-1.982,-1,4
627,3.47912,-1.982,-1,4
628,3.47517,-1.981,-1,4
629,3.47517,-1.992,-1,4
630,3.47317,-1.997,-1,4
631,3.47118,-1.995,-1,4
632,3.46718,-1.997,-1,4
633,3.46518,-2.006,-1,4
634,3.46317,-2.010,-1,4
635,3.46116,-2.012,-1,4
636,3.45914,-2.014,-1,4
637,3.45712,-2.022,-1,4
638,3.45510,-2.025,-1,4
639,3.45307,-2.027,-1,4
640,3.45104,-2.030,-1,4
641,3.44900,-2.040,-1,4
642,3.44696,-2.041,-1,4
643,3.44492,-2.038,-1,4
644,3.44287,-2.048,-1,4
645,3.44082,-2.056,-1,4
646,3.43875,-2.061,-1,4
647,3.43670,-2.057,-1,4
648,3.43463,-2.063,-1,4
649,3.43256,-2.073,-1,4
650,3.43048,-2.078,-1,4
651,3.42841,-2.076,-1,4
652,3.42633,-2.088,-1,4
653,3.42424,-2.095,-1,4
654,3.42214,-2.096,-1,4
655,3.42005,-2.096,-1,4
656,3.41795,-2.100,-1,4
657,3.41584,-2.106,-1,4
658,3.41373,-2.116,-1,4
659,3.41162,-2.120,-1,4
660,3.40737,-2.122,-1,4
661,3.40525,-2.125,-1,4
662,3.40312,-2.132,-1,4
663,3.40098,-2.138,-1,4
664,3.39884,-2.139,-1,4
665,3.39670,-2.141,-1,4
666,3.39455,-2.148,-1,4
667,3.39240,-2.152,-1,4
668,3.39025,-2.152,-1,4
669,3.38809,-2.155,-1,4
670,3.38593,-2.164,-1,4
671,3.38376,-2.166,-1,4
672,3.38160,-2.164,-1,4
673,3.37943,-2.166,-1,4
674,3.37726,-2.175,-1,4
675,3.37508,-2.175,-1,4
676,3.37291,-2.177,-1,4
677,3.37072,-2.180,-1,4
678,3.36854,-2.185,-1,4
679,3.36636,-2.184,-1,4
680,3.36417,-2.191,-1,4
681,3.36198,-2.191,-1,4
682,3.35979,-2.190,-1,4
683,3.35760,-2.190,-1,4
684,3.35540,-2.199,-1,4
685,3.35320,-2.199,-1,4
686,3.34881,-2.198,-1,4
687,3.34881,-2.202,-1,4
688,3.34441,-2.201,-1,4
689,3.34221,-2.199,-1,4
690,3.34001,-2.204,-1,4
691,3.33780,-2.205,-1,4
692,3.33560,-2.203,-1,4
693,3.33339,-2.204,-1,4
694,3.33119,-2.206,-1,4
695,3.32898,-2.206,-1,4
696,3.32678,-2.205,-1,4
697,3.32457,-2.206,-1,4
698,3.32236,-2.206,-1,4
699,3.32016,-2.206,-1,4
700,3.31796,-2.203,-1,4
701,3.31575,-2.206,-1,4
702,3.31355,-2.203,-1,4
703,3.31134,-2.203,-1,4
704,3.30914,-2.205,-1,4
705,3.30693,-2.206,-1,4
706,3.30473,-2.201,-1,4
707,3.30253,-2.200,-1,4
708,3.30033,-2.204,-1,4
709,3.29812,-2.204,-1,4
710,3.29592,-2.201,-1,4
711,3.29372,-2.200,-1,4
712,3.29152,-2.204,-1,4
713,3.28932,-2.202,-1,4
714,3.28712,-2.200,-1,4
715,3.28492,-2.201,-1,4
716,3.28271,-2.204,-1,4
717,3.28051,-2.199,-1,4
718,3.27611,-2.199,-1,4
719,3.27391,-2.200,-1,4
720,3.27172,-2.199,-1,4
721,3.26952,-2.199,-1,4
722,3.26732,-2.197,-1,4
723,3.26512,-2.195,-1,4
724,3.26293,-2.197,-1,4
725,3.26073,-2.198,-1,4
726,3.25853,-2.197,-1,4
727,3.25634,-2.191,-1,4
728,3.25415,-2.194,-1,4
729,3.25195,-2.196,-1,4
730,3.24976,-2.195,-1,4
731,3.24757,-2.190,-1,4
732,3.24537,-2.195,-1,4
733,3.24318,-2.195,-1,4
734,3.24098,-2.193,-1,4
735,3.23879,-2.193,-1,4
736,3.23441,-2.193,-1,4
737,3.23222,-2.192,-1,4
738,3.23002,-2.192,-1,4
739,3.22783,-2.192,-1,4
740,3.22564,-2.192,-1,4
741,3.22345,-2.191,-1,4
742,3.22126,-2.194,-1,4
743,3.21907,-2.189,-1,4
744,3.21688,-2.190,-1,4
