cnt,pos,speed,Dir,Force,
1,3.20749,2.121,-1,4
2,3.20961,2.121,-1,4
3,3.21384,2.119,-1,4
4,3.21384,2.119,-1,4
5,3.21806,2.104,-1,4
6,3.21806,2.100,-1,4
7,3.22226,2.099,-1,4
8,3.22435,2.098,-1,4
9,3.22644,2.089,-1,4
10,3.22853,2.087,-1,4
11,3.23061,2.083,-1,4
12,3.23269,2.078,-1,4
13,3.23477,2.076,-1,4
14,3.23684,2.073,-1,4
15,3.23891,2.065,-1,4
16,3.24096,2.058,-1,4
17,3.24302,2.061,-1,4
18,3.24508,2.060,-1,4
19,3.24713,2.050,-1,4
20,3.24918,2.042,-1,4
21,3.25122,2.042,-1,4
22,3.25327,2.047,-1,4
23,3.25530,2.036,-1,4
24,3.25733,2.027,-1,4
25,3.25935,2.025,-1,4
26,3.26138,2.030,-1,4
27,3.26341,2.024,-1,4
28,3.26542,2.016,-1,4
29,3.26743,2.010,-1,4
30,3.26944,2.009,-1,4
31,3.27146,2.012,-1,4
32,3.27346,2.004,-1,4
33,3.27546,1.998,-1,4
34,3.27745,1.993,-1,4
35,3.27945,1.997,-1,4
36,3.28144,1.993,-1,4
37,3.28343,1.982,-1,4
38,3.28541,1.977,-1,4
39,3.28937,1.982,-1,4
40,3.28937,1.982,-1,4
41,3.29135,1.982,-1,4
42,3.29333,1.976,-1,4
43,3.29529,1.966,-1,4
44,3.29726,1.971,-1,4
45,3.29923,1.971,-1,4
46,3.30316,1.961,-1,4
47,3.30511,1.954,-1,4
48,3.30707,1.958,-1,4
49,3.30904,1.965,-1,4
50,3.31099,1.955,-1,4
51,3.31294,1.949,-1,4
52,3.31489,1.947,-1,4
53,3.31684,1.950,-1,4
54,3.31879,1.948,-1,4
55,3.32073,1.940,-1,4
56,3.32266,1.938,-1,4
57,3.32460,1.935,-1,4
58,3.32653,1.936,-1,4
59,3.32847,1.932,-1,4
60,3.33040,1.931,-1,4
61,3.33232,1.925,-1,4
62,3.33424,1.917,-1,4
63,3.33616,1.920,-1,4
64,3.33808,1.923,-1,4
65,3.34000,1.917,-1,4
66,3.34191,1.906,-1,4
67,3.34381,1.900,-1,4
68,3.34571,1.908,-1,4
69,3.34762,1.908,-1,4
70,3.34952,1.888,-1,4
71,3.35141,1.886,-1,4
72,3.35330,1.886,-1,4
73,3.35519,1.896,-1,4
74,3.35896,1.879,-1,4
75,3.36083,1.874,-1,4
76,3.36271,1.876,-1,4
77,3.36459,1.879,-1,4
78,3.36646,1.871,-1,4
79,3.36832,1.865,-1,4
80,3.37019,1.864,-1,4
81,3.37205,1.861,-1,4
82,3.37391,1.859,-1,4
83,3.37577,1.857,-1,4
84,3.37762,1.856,-1,4
85,3.37947,1.850,-1,4
86,3.38131,1.840,-1,4
87,3.38315,1.843,-1,4
88,3.38500,1.850,-1,4
89,3.38685,1.842,-1,4
90,3.38868,1.830,-1,4
91,3.39050,1.824,-1,4
92,3.39233,1.833,-1,4
93,3.39600,1.827,-1,4
94,3.39781,1.813,-1,4
95,3.39962,1.811,-1,4
96,3.40144,1.820,-1,4
97,3.40327,1.826,-1,4
98,3.40508,1.811,-1,4
99,3.40688,1.799,-1,4
100,3.40868,1.798,-1,4
101,3.41048,1.804,-1,4
102,3.41229,1.809,-1,4
103,3.41409,1.796,-1,4
104,3.41587,1.786,-1,4
105,3.41765,1.782,-1,4
106,3.41944,1.786,-1,4
107,3.42123,1.790,-1,4
108,3.42301,1.785,-1,4
109,3.42479,1.774,-1,4
110,3.42655,1.764,-1,4
111,3.42832,1.765,-1,4
112,3.43009,1.774,-1,4
113,3.43362,1.761,-1,4
114,3.43537,1.745,-1,4
115,3.43711,1.744,-1,4
116,3.43711,1.758,-1,4
117,3.43887,1.758,-1,4
118,3.44063,1.761,-1,4
119,3.44238,1.747,-1,4
120,3.44411,1.727,-1,4
121,3.44583,1.740,-1,4
122,3.44932,1.749,-1,4
123,3.44932,1.727,-1,4
124,3.45275,1.707,-1,4
125,3.45275,1.707,-1,4
126,3.45447,1.713,-1,4
127,3.45620,1.728,-1,4
128,3.45792,1.728,-1,4
129,3.45963,1.709,-1,4
130,3.46132,1.690,-1,4
131,3.46474,1.714,-1,4
132,3.46474,1.705,-1,4
133,3.46813,1.686,-1,4
134,3.46980,1.676,-1,4
135,3.47149,1.687,-1,4
136,3.47319,1.695,-1,4
137,3.47487,1.682,-1,4
138,3.47653,1.664,-1,4
139,3.47820,1.664,-1,4
140,3.47987,1.674,-1,4
141,3.48154,1.676,-1,4
142,3.48320,1.659,-1,4
143,3.48485,1.642,-1,4
144,3.48650,1.651,-1,4
145,3.48816,1.660,-1,4
146,3.48981,1.650,-1,4
147,3.49144,1.631,-1,4
148,3.49306,1.625,-1,4
149,3.49470,1.635,-1,4
150,3.49634,1.643,-1,4
151,3.49797,1.626,-1,4
152,3.49957,1.604,-1,4
153,3.50117,1.605,-1,4
154,3.50279,1.617,-1,4
155,3.50441,1.620,-1,4
156,3.50602,1.604,-1,4
157,3.50760,1.581,-1,4
158,3.50918,1.583,-1,4
159,3.51078,1.602,-1,4
160,3.51238,1.599,-1,4
161,3.51396,1.576,-1,4
162,3.51552,1.560,-1,4
163,3.51708,1.566,-1,4
164,3.51866,1.582,-1,4
165,3.52024,1.575,-1,4
166,3.52179,1.546,-1,4
167,3.52332,1.535,-1,4
168,3.52487,1.561,-1,4
169,3.52798,1.546,-1,4
170,3.52798,1.521,-1,4
171,3.52950,1.521,-1,4
172,3.53101,1.510,-1,4
173,3.53253,1.525,-1,4
174,3.53407,1.540,-1,4
175,3.53559,1.522,-1,4
176,3.53709,1.495,-1,4
177,3.53857,1.484,-1,4
178,3.54007,1.511,-1,4
179,3.54158,1.500,-1,4
180,3.54456,1.474,-1,4
181,3.54456,1.456,-1,4
182,3.54748,1.467,-1,4
183,3.54748,1.486,-1,4
184,3.54897,1.486,-1,4
185,3.55044,1.448,-1,4
186,3.55189,1.448,-1,4
187,3.55476,1.440,-1,4
188,3.55621,1.452,-1,4
189,3.55766,1.447,-1,4
190,3.55908,1.423,-1,4
191,3.56049,1.406,-1,4
192,3.56190,1.414,-1,4
193,3.56333,1.425,-1,4
194,3.56475,1.417,-1,4
195,3.56614,1.397,-1,4
196,3.56753,1.383,-1,4
197,3.56891,1.384,-1,4
198,3.57030,1.393,-1,4
199,3.57170,1.392,-1,4
200,3.57307,1.371,-1,4
201,3.57442,1.350,-1,4
202,3.57577,1.354,-1,4
203,3.57713,1.364,-1,4
204,3.57849,1.358,-1,4
205,3.57983,1.339,-1,4
206,3.58116,1.328,-1,4
207,3.58381,1.328,-1,4
208,3.58514,1.324,-1,4
209,3.58645,1.310,-1,4
210,3.58645,1.299,-1,4
211,3.58775,1.298,-1,4
212,3.58904,1.298,-1,4
213,3.59035,1.290,-1,4
214,3.59164,1.290,-1,4
215,3.59291,1.268,-1,4
216,3.59418,1.275,-1,4
217,3.59672,1.270,-1,4
218,3.59797,1.251,-1,4
219,3.59922,1.242,-1,4
220,3.60046,1.241,-1,4
221,3.60169,1.239,-1,4
222,3.60293,1.232,-1,4
223,3.60415,1.223,-1,4
224,3.60536,1.210,-1,4
225,3.60656,1.199,-1,4
226,3.60776,1.205,-1,4
227,3.60897,1.203,-1,4
228,3.61015,1.187,-1,4
229,3.61133,1.172,-1,4
230,3.61249,1.165,-1,4
231,3.61366,1.172,-1,4
232,3.61483,1.167,-1,4
233,3.61598,1.149,-1,4
234,3.61712,1.138,-1,4
235,3.61825,1.135,-1,4
236,3.61939,1.136,-1,4
237,3.62051,1.126,-1,4
238,3.62163,1.111,-1,4
239,3.62273,1.103,-1,4
240,3.62383,1.103,-1,4
241,3.62493,1.094,-1,4
242,3.62601,1.085,-1,4
243,3.62709,1.076,-1,4
244,3.62816,1.071,-1,4
245,3.62922,1.061,-1,4
246,3.63132,1.047,-1,4
247,3.63236,1.041,-1,4
248,3.63339,1.030,-1,4
249,3.63441,1.019,-1,4
250,3.63542,1.013,-1,4
251,3.63643,1.009,-1,4
252,3.63744,1.005,-1,4
253,3.63843,0.989,-1,4
254,3.63940,0.975,-1,4
255,3.64037,0.972,-1,4
256,3.64135,0.972,-1,4
257,3.64231,0.966,-1,4
258,3.64326,0.947,-1,4
259,3.64419,0.931,-1,4
260,3.64512,0.932,-1,4
261,3.64605,0.931,-1,4
262,3.64698,0.926,-1,4
263,3.64788,0.904,-1,4
264,3.64877,0.888,-1,4
265,3.64966,0.890,-1,4
266,3.65055,0.883,-1,4
267,3.65144,0.883,-1,4
268,3.65230,0.860,-1,4
269,3.65314,0.844,-1,4
270,3.65399,0.845,-1,4
271,3.65484,0.850,-1,4
272,3.65568,0.841,-1,4
273,3.65650,0.819,-1,4
274,3.65730,0.800,-1,4
275,3.65809,0.798,-1,4
276,3.65890,0.802,-1,4
277,3.65969,0.797,-1,4
278,3.66047,0.776,-1,4
279,3.66122,0.755,-1,4
280,3.66197,0.749,-1,4
281,3.66273,0.752,-1,4
282,3.66348,0.750,-1,4
283,3.66421,0.715,-1,4
284,3.66563,0.703,-1,4
285,3.66633,0.701,-1,4
286,3.66703,0.697,-1,4
287,3.66771,0.687,-1,4
288,3.66838,0.669,-1,4
289,3.66904,0.658,-1,4
290,3.66970,0.656,-1,4
291,3.67034,0.647,-1,4
292,3.67098,0.637,-1,4
293,3.67160,0.620,-1,4
294,3.67221,0.611,-1,4
295,3.67282,0.607,-1,4
296,3.67342,0.602,-1,4
297,3.67401,0.589,-1,4
298,3.67458,0.572,-1,4
299,3.67514,0.561,-1,4
300,3.67570,0.558,-1,4
301,3.67625,0.551,-1,4
302,3.67679,0.537,-1,4
303,3.67731,0.523,-1,4
304,3.67782,0.514,-1,4
305,3.67833,0.509,-1,4
306,3.67883,0.502,-1,4
307,3.67932,0.488,-1,4
308,3.67980,0.475,-1,4
309,3.68026,0.463,-1,4
310,3.68072,0.457,-1,4
311,3.68117,0.448,-1,4
312,3.68160,0.437,-1,4
313,3.68203,0.424,-1,4
314,3.68244,0.413,-1,4
315,3.68285,0.405,-1,4
316,3.68324,0.396,-1,4
317,3.68363,0.384,-1,4
318,3.68400,0.375,-1,4
319,3.68436,0.364,-1,4
320,3.68472,0.354,-1,4
321,3.68507,0.347,-1,4
322,3.68540,0.335,-1,4
323,3.68572,0.323,-1,4
324,3.68603,0.311,-1,4
325,3.68634,0.292,-1,4
326,3.68663,0.292,-1,4
327,3.68691,0.271,-1,4
328,3.68718,0.271,-1,4
329,3.68744,0.251,-1,4
330,3.68769,0.251,-1,4
331,3.68793,0.230,-1,4
332,3.68816,0.230,-1,4
333,3.68838,0.207,-1,4
334,3.68879,0.201,-1,4
335,3.68898,0.189,-1,4
336,3.68916,0.178,-1,4
337,3.68932,0.167,-1,4
338,3.68948,0.156,-1,4
339,3.68962,0.146,-1,4
340,3.68976,0.135,-1,4
341,3.68988,0.124,-1,4
342,3.69000,0.112,-1,4
343,3.69010,0.101,-1,4
344,3.69019,0.091,-1,4
345,3.69027,0.079,-1,4
346,3.69033,0.067,-1,4
347,3.69039,0.056,-1,4
348,3.69043,0.045,-1,4
349,3.69047,0.035,-1,4
350,3.69049,0.022,-1,4
351,3.69050,0.011,-1,4
352,3.69050,0.000,-1,4
353,3.69047,-0.019,-1,4
354,3.69044,-0.030,-1,4
355,3.69044,-0.040,-1,4
356,3.69035,-0.050,-1,4
357,3.69035,-0.058,-1,4
358,3.69023,-0.068,-1,4
359,3.69023,-0.077,-1,4
360,3.69015,-0.077,-1,4
361,3.68997,-0.095,-1,4
362,3.68987,-0.102,-1,4
363,3.68975,-0.113,-1,4
364,3.68963,-0.121,-1,4
365,3.68950,-0.130,-1,4
366,3.68937,-0.138,-1,4
367,3.68922,-0.148,-1,4
368,3.68906,-0.157,-1,4
369,3.68890,-0.165,-1,4
370,3.68872,-0.173,-1,4
371,3.68854,-0.182,-1,4
372,3.68835,-0.190,-1,4
373,3.68815,-0.199,-1,4
374,3.68794,-0.208,-1,4
375,3.68773,-0.216,-1,4
376,3.68751,-0.224,-1,4
377,3.68727,-0.231,-1,4
378,3.68703,-0.241,-1,4
379,3.68678,-0.249,-1,4
380,3.68653,-0.257,-1,4
381,3.68598,-0.276,-1,4
382,3.68570,-0.285,-1,4
383,3.68541,-0.293,-1,4
384,3.68510,-0.302,-1,4
385,3.68479,-0.309,-1,4
386,3.68448,-0.319,-1,4
387,3.68415,-0.328,-1,4
388,3.68382,-0.333,-1,4
389,3.68347,-0.342,-1,4
390,3.68312,-0.352,-1,4
391,3.68276,-0.360,-1,4
392,3.68239,-0.367,-1,4
393,3.68202,-0.376,-1,4
394,3.68163,-0.384,-1,4
395,3.68124,-0.394,-1,4
396,3.68084,-0.403,-1,4
397,3.68042,-0.411,-1,4
398,3.68000,-0.420,-1,4
399,3.67958,-0.427,-1,4
400,3.67870,-0.445,-1,4
401,3.67824,-0.452,-1,4
402,3.67778,-0.463,-1,4
403,3.67731,-0.470,-1,4
404,3.67683,-0.478,-1,4
405,3.67635,-0.487,-1,4
406,3.67585,-0.496,-1,4
407,3.67535,-0.502,-1,4
408,3.67484,-0.510,-1,4
409,3.67432,-0.517,-1,4
410,3.67379,-0.527,-1,4
411,3.67325,-0.537,-1,4
412,3.67271,-0.544,-1,4
413,3.67216,-0.553,-1,4
414,3.67160,-0.561,-1,4
415,3.67103,-0.571,-1,4
416,3.67045,-0.578,-1,4
417,3.66986,-0.586,-1,4
418,3.66927,-0.603,-1,4
419,3.66866,-0.603,-1,4
420,3.66805,-0.622,-1,4
421,3.66743,-0.622,-1,4
422,3.66680,-0.635,-1,4
423,3.66617,-0.635,-1,4
424,3.66552,-0.644,-1,4
425,3.66487,-0.655,-1,4
426,3.66353,-0.672,-1,4
427,3.66285,-0.681,-1,4
428,3.66216,-0.689,-1,4
429,3.66146,-0.697,-1,4
430,3.66076,-0.704,-1,4
431,3.66005,-0.710,-1,4
432,3.65933,-0.722,-1,4
433,3.65860,-0.732,-1,4
434,3.65785,-0.743,-1,4
435,3.65710,-0.750,-1,4
436,3.65635,-0.763,-1,4
437,3.65481,-0.774,-1,4
438,3.65403,-0.784,-1,4
439,3.65403,-0.794,-1,4
440,3.65244,-0.798,-1,4
441,3.65244,-0.804,-1,4
442,3.65163,-0.812,-1,4
443,3.65000,-0.822,-1,4
444,3.65000,-0.834,-1,4
445,3.64832,-0.842,-1,4
446,3.64747,-0.848,-1,4
447,3.64662,-0.854,-1,4
448,3.64576,-0.859,-1,4
449,3.64489,-0.869,-1,4
450,3.64401,-0.880,-1,4
451,3.64312,-0.889,-1,4
452,3.64223,-0.894,-1,4
453,3.64133,-0.897,-1,4
454,3.64043,-0.904,-1,4
455,3.63857,-0.932,-1,4
456,3.63857,-0.936,-1,4
457,3.63670,-0.935,-1,4
458,3.63670,-0.939,-1,4
459,3.63577,-0.954,-1,4
460,3.63481,-0.954,-1,4
461,3.63286,-0.977,-1,4
462,3.63189,-0.974,-1,4
463,3.63091,-0.978,-1,4
464,3.62992,-0.989,-1,4
465,3.62891,-1.009,-1,4
466,3.62790,-1.016,-1,4
467,3.62689,-1.013,-1,4
468,3.62587,-1.013,-1,4
469,3.62485,-1.025,-1,4
470,3.62380,-1.045,-1,4
471,3.62275,-1.054,-1,4
472,3.62170,-1.051,-1,4
473,3.62065,-1.050,-1,4
474,3.61959,-1.079,-1,4
475,3.61851,-1.079,-1,4
476,3.61742,-1.085,-1,4
477,3.61634,-1.085,-1,4
478,3.61525,-1.100,-1,4
479,3.61415,-1.112,-1,4
480,3.61192,-1.115,-1,4
481,3.61080,-1.119,-1,4
482,3.60968,-1.126,-1,4
483,3.60854,-1.136,-1,4
484,3.60739,-1.145,-1,4
485,3.60625,-1.147,-1,4
486,3.60509,-1.154,-1,4
487,3.60393,-1.162,-1,4
488,3.60276,-1.168,-1,4
489,3.60159,-1.177,-1,4
490,3.60040,-1.183,-1,4
491,3.59921,-1.196,-1,4
492,3.59681,-1.197,-1,4
493,3.59560,-1.211,-1,4
494,3.59438,-1.219,-1,4
495,3.59316,-1.225,-1,4
496,3.59193,-1.231,-1,4
497,3.59069,-1.235,-1,4
498,3.58945,-1.243,-1,4
499,3.58821,-1.244,-1,4
500,3.58695,-1.254,-1,4
501,3.58569,-1.263,-1,4
502,3.58442,-1.273,-1,4
503,3.58314,-1.273,-1,4
504,3.58187,-1.273,-1,4
505,3.58059,-1.285,-1,4
506,3.57929,-1.294,-1,4
507,3.57799,-1.302,-1,4
508,3.57668,-1.307,-1,4
509,3.57537,-1.313,-1,4
510,3.57406,-1.313,-1,4
511,3.57273,-1.322,-1,4
512,3.57140,-1.333,-1,4
513,3.57006,-1.339,-1,4
514,3.56872,-1.344,-1,4
515,3.56737,-1.349,-1,4
516,3.56602,-1.355,-1,4
517,3.56466,-1.357,-1,4
518,3.56329,-1.366,-1,4
519,3.56191,-1.378,-1,4
520,3.56053,-1.383,-1,4
521,3.55915,-1.382,-1,4
522,3.55776,-1.386,-1,4
523,3.55636,-1.397,-1,4
524,3.55495,-1.410,-1,4
525,3.55354,-1.415,-1,4
526,3.55213,-1.413,-1,4
527,3.55071,-1.414,-1,4
528,3.54929,-1.424,-1,4
529,3.54785,-1.444,-1,4
530,3.54639,-1.445,-1,4
531,3.54351,-1.442,-1,4
532,3.54351,-1.442,-1,4
533,3.54205,-1.456,-1,4
534,3.54058,-1.481,-1,4
535,3.53910,-1.481,-1,4
536,3.53762,-1.483,-1,4
537,3.53614,-1.476,-1,4
538,3.53466,-1.476,-1,4
539,3.53166,-1.510,-1,4
540,3.53014,-1.513,-1,4
541,3.52863,-1.508,-1,4
542,3.52713,-1.507,-1,4
543,3.52561,-1.520,-1,4
544,3.52407,-1.537,-1,4
545,3.52253,-1.543,-1,4
546,3.52099,-1.540,-1,4
547,3.51945,-1.537,-1,4
548,3.51790,-1.547,-1,4
549,3.51634,-1.561,-1,4
550,3.51477,-1.573,-1,4
551,3.51320,-1.572,-1,4
552,3.51163,-1.564,-1,4
553,3.51006,-1.570,-1,4
554,3.50847,-1.589,-1,4
555,3.50687,-1.601,-1,4
556,3.50527,-1.599,-1,4
557,3.50368,-1.590,-1,4
558,3.50209,-1.592,-1,4
559,3.50047,-1.615,-1,4
560,3.49885,-1.626,-1,4
561,3.49722,-1.626,-1,4
562,3.49560,-1.614,-1,4
563,3.49399,-1.617,-1,4
564,3.49235,-1.657,-1,4
565,3.49069,-1.657,-1,4
566,3.48904,-1.638,-1,4
567,3.48576,-1.641,-1,4
568,3.48410,-1.662,-1,4
569,3.48241,-1.684,-1,4
570,3.48073,-1.680,-1,4
571,3.47907,-1.661,-1,4
572,3.47741,-1.664,-1,4
573,3.47572,-1.687,-1,4
574,3.47402,-1.706,-1,4
575,3.47231,-1.703,-1,4
576,3.47063,-1.685,-1,4
577,3.46894,-1.685,-1,4
578,3.46723,-1.712,-1,4
579,3.46550,-1.733,-1,4
580,3.46377,-1.724,-1,4
581,3.46206,-1.708,-1,4
582,3.46035,-1.711,-1,4
583,3.45862,-1.737,-1,4
584,3.45686,-1.754,-1,4
585,3.45512,-1.745,-1,4
586,3.45339,-1.736,-1,4
587,3.44989,-1.759,-1,4
588,3.44812,-1.776,-1,4
589,3.44636,-1.763,-1,4
590,3.44460,-1.753,-1,4
591,3.44284,-1.761,-1,4
592,3.44106,-1.778,-1,4
593,3.43927,-1.792,-1,4
594,3.43749,-1.782,-1,4
595,3.43571,-1.776,-1,4
596,3.43393,-1.785,-1,4
597,3.43213,-1.798,-1,4
598,3.43032,-1.805,-1,4
599,3.42852,-1.801,-1,4
600,3.42672,-1.799,-1,4
601,3.42492,-1.808,-1,4
602,3.42310,-1.814,-1,4
603,3.42128,-1.819,-1,4
604,3.41946,-1.818,-1,4
605,3.41764,-1.822,-1,4
606,3.41581,-1.828,-1,4
607,3.41399,-1.828,-1,4
608,3.41215,-1.840,-1,4
609,3.41031,-1.840,-1,4
610,3.40847,-1.840,-1,4
611,3.40663,-1.841,-1,4
612,3.40479,-1.844,-1,4
613,3.40294,-1.853,-1,4
614,3.39922,-1.856,-1,4
615,3.39737,-1.853,-1,4
616,3.39551,-1.862,-1,4
617,3.39363,-1.872,-1,4
618,3.39176,-1.871,-1,4
619,3.38990,-1.865,-1,4
620,3.38802,-1.874,-1,4
621,3.38614,-1.883,-1,4
622,3.38425,-1.886,-1,4
623,3.38237,-1.882,-1,4
624,3.38049,-1.880,-1,4
625,3.37860,-1.893,-1,4
626,3.37670,-1.900,-1,4
627,3.37480,-1.895,-1,4
628,3.37291,-1.896,-1,4
629,3.37100,-1.903,-1,4
630,3.36909,-1.911,-1,4
631,3.36718,-1.912,-1,4
632,3.36527,-1.909,-1,4
633,3.36336,-1.916,-1,4
634,3.36144,-1.918,-1,4
635,3.35952,-1.918,-1,4
636,3.35760,-1.923,-1,4
637,3.35567,-1.930,-1,4
638,3.35374,-1.926,-1,4
639,3.35181,-1.926,-1,4
640,3.34988,-1.930,-1,4
641,3.34794,-1.939,-1,4
642,3.34405,-1.941,-1,4
643,3.34212,-1.938,-1,4
644,3.34017,-1.945,-1,4
645,3.33822,-1.954,-1,4
646,3.33626,-1.953,-1,4
647,3.33431,-1.951,-1,4
648,3.33236,-1.951,-1,4
649,3.33040,-1.956,-1,4
650,3.32845,-1.960,-1,4
651,3.32649,-1.960,-1,4
652,3.32452,-1.964,-1,4
653,3.32256,-1.963,-1,4
654,3.32059,-1.965,-1,4
655,3.31863,-1.964,-1,4
656,3.31666,-1.972,-1,4
657,3.31469,-1.972,-1,4
658,3.31272,-1.970,-1,4
659,3.31075,-1.970,-1,4
660,3.30877,-1.977,-1,4
661,3.30679,-1.980,-1,4
662,3.30481,-1.976,-1,4
663,3.30284,-1.974,-1,4
664,3.30086,-1.979,-1,4
665,3.29888,-1.983,-1,4
666,3.29689,-1.978,-1,4
667,3.29492,-1.978,-1,4
668,3.29293,-1.989,-1,4
669,3.29094,-1.989,-1,4
670,3.28896,-1.984,-1,4
671,3.28498,-1.988,-1,4
672,3.28299,-1.993,-1,4
673,3.28100,-1.990,-1,4
674,3.27901,-1.988,-1,4
675,3.27702,-1.990,-1,4
676,3.27503,-1.994,-1,4
677,3.27303,-1.995,-1,4
678,3.27104,-1.994,-1,4
679,3.26905,-1.993,-1,4
680,3.26705,-1.995,-1,4
681,3.26506,-1.995,-1,4
682,3.26306,-1.997,-1,4
683,3.26106,-1.999,-1,4
684,3.25906,-2.001,-1,4
685,3.25706,-1.995,-1,4
686,3.25506,-2.000,-1,4
687,3.25306,-2.001,-1,4
688,3.25106,-2.004,-1,4
689,3.24906,-2.000,-1,4
690,3.24505,-2.005,-1,4
691,3.24505,-2.005,-1,4
692,3.24305,-2.004,-1,4
693,3.24104,-2.004,-1,4
694,3.23904,-2.003,-1,4
695,3.23703,-2.005,-1,4
696,3.23502,-2.011,-1,4
697,3.23301,-2.009,-1,4
698,3.23101,-2.009,-1,4
699,3.22698,-2.013,-1,4
700,3.22698,-2.014,-1,4
701,3.22296,-2.013,-1,4
702,3.22296,-2.015,-1,4
703,3.21892,-2.015,-1,4
704,3.21892,-2.015,-1,4
705,3.21489,-2.020,-1,4
706,3.21287,-2.023,-1,4
707,3.21085,-2.018,-1,4
708,3.20883,-2.016,-1,4
709,3.20681,-2.026,-1,4
