cnt,pos,speed,Dir,Force,
1,3.20252,1.362,-1,4
2,3.20388,1.357,-1,4
3,3.20659,1.356,-1,4
4,3.20795,1.363,-1,4
5,3.20795,1.367,-1,4
6,3.21068,1.364,-1,4
7,3.21068,1.362,-1,4
8,3.21341,1.367,-1,4
9,3.21341,1.368,-1,4
10,3.21615,1.364,-1,4
11,3.21751,1.366,-1,4
12,3.21888,1.374,-1,4
13,3.22026,1.376,-1,4
14,3.22163,1.374,-1,4
15,3.22301,1.371,-1,4
16,3.22438,1.371,-1,4
17,3.22575,1.376,-1,4
18,3.22714,1.385,-1,4
19,3.22852,1.385,-1,4
20,3.22990,1.376,-1,4
21,3.23127,1.373,-1,4
22,3.23266,1.385,-1,4
23,3.23405,1.391,-1,4
24,3.23544,1.391,-1,4
25,3.23682,1.386,-1,4
26,3.23821,1.380,-1,4
27,3.23959,1.396,-1,4
28,3.24098,1.396,-1,4
29,3.24239,1.395,-1,4
30,3.24378,1.385,-1,4
31,3.24655,1.388,-1,4
32,3.24795,1.398,-1,4
33,3.24936,1.407,-1,4
34,3.25077,1.407,-1,4
35,3.25217,1.399,-1,4
36,3.25356,1.391,-1,4
37,3.25495,1.398,-1,4
38,3.25636,1.410,-1,4
39,3.25778,1.411,-1,4
40,3.25918,1.408,-1,4
41,3.26058,1.401,-1,4
42,3.26199,1.403,-1,4
43,3.26339,1.406,-1,4
44,3.26481,1.415,-1,4
45,3.26622,1.416,-1,4
46,3.26763,1.408,-1,4
47,3.26904,1.406,-1,4
48,3.27045,1.410,-1,4
49,3.27186,1.414,-1,4
50,3.27469,1.418,-1,4
51,3.27611,1.414,-1,4
52,3.27752,1.412,-1,4
53,3.27894,1.416,-1,4
54,3.28036,1.424,-1,4
55,3.28178,1.420,-1,4
56,3.28320,1.419,-1,4
57,3.28462,1.417,-1,4
58,3.28604,1.420,-1,4
59,3.28746,1.424,-1,4
60,3.28889,1.431,-1,4
61,3.29032,1.429,-1,4
62,3.29174,1.423,-1,4
63,3.29316,1.420,-1,4
64,3.29460,1.431,-1,4
65,3.29603,1.434,-1,4
66,3.29747,1.437,-1,4
67,3.29890,1.436,-1,4
68,3.30033,1.430,-1,4
69,3.30320,1.439,-1,4
70,3.30465,1.444,-1,4
71,3.30609,1.444,-1,4
72,3.30753,1.443,-1,4
73,3.30898,1.443,-1,4
74,3.31042,1.440,-1,4
75,3.31186,1.448,-1,4
76,3.31332,1.457,-1,4
77,3.31478,1.456,-1,4
78,3.31623,1.451,-1,4
79,3.31767,1.449,-1,4
80,3.31912,1.460,-1,4
81,3.32058,1.469,-1,4
82,3.32205,1.469,-1,4
83,3.32351,1.452,-1,4
84,3.32497,1.452,-1,4
85,3.32642,1.466,-1,4
86,3.32789,1.466,-1,4
87,3.33083,1.473,-1,4
88,3.33229,1.463,-1,4
89,3.33375,1.457,-1,4
90,3.33522,1.470,-1,4
91,3.33671,1.485,-1,4
92,3.33819,1.480,-1,4
93,3.33966,1.471,-1,4
94,3.34112,1.466,-1,4
95,3.34259,1.470,-1,4
96,3.34408,1.488,-1,4
97,3.34558,1.495,-1,4
98,3.34706,1.485,-1,4
99,3.34853,1.469,-1,4
100,3.35000,1.473,-1,4
101,3.35149,1.490,-1,4
102,3.35300,1.503,-1,4
103,3.35449,1.499,-1,4
104,3.35598,1.486,-1,4
105,3.35745,1.487,-1,4
106,3.35894,1.512,-1,4
107,3.36196,1.512,-1,4
108,3.36346,1.498,-1,4
109,3.36494,1.482,-1,4
110,3.36643,1.488,-1,4
111,3.36794,1.512,-1,4
112,3.36947,1.527,-1,4
113,3.37098,1.512,-1,4
114,3.37247,1.491,-1,4
115,3.37397,1.493,-1,4
116,3.37548,1.513,-1,4
117,3.37701,1.534,-1,4
118,3.37854,1.524,-1,4
119,3.38004,1.502,-1,4
120,3.38153,1.492,-1,4
121,3.38305,1.519,-1,4
122,3.38459,1.540,-1,4
123,3.38613,1.538,-1,4
124,3.38764,1.510,-1,4
125,3.38914,1.501,-1,4
126,3.39221,1.550,-1,4
127,3.39376,1.550,-1,4
128,3.39528,1.523,-1,4
129,3.39678,1.505,-1,4
130,3.39830,1.519,-1,4
131,3.39985,1.547,-1,4
132,3.40141,1.560,-1,4
133,3.40295,1.542,-1,4
134,3.40446,1.510,-1,4
135,3.40598,1.518,-1,4
136,3.40753,1.546,-1,4
137,3.40909,1.564,-1,4
138,3.41064,1.551,-1,4
139,3.41217,1.527,-1,4
140,3.41369,1.519,-1,4
141,3.41523,1.539,-1,4
142,3.41679,1.567,-1,4
143,3.41835,1.559,-1,4
144,3.41989,1.536,-1,4
145,3.42142,1.528,-1,4
146,3.42295,1.537,-1,4
147,3.42452,1.564,-1,4
148,3.42608,1.563,-1,4
149,3.42762,1.543,-1,4
150,3.42915,1.530,-1,4
151,3.43069,1.542,-1,4
152,3.43226,1.565,-1,4
153,3.43536,1.544,-1,4
154,3.43690,1.533,-1,4
155,3.43690,1.533,-1,4
156,3.43844,1.569,-1,4
157,3.44001,1.569,-1,4
158,3.44157,1.562,-1,4
159,3.44311,1.537,-1,4
160,3.44465,1.535,-1,4
161,3.44620,1.551,-1,4
162,3.44777,1.570,-1,4
163,3.44933,1.563,-1,4
164,3.45087,1.535,-1,4
165,3.45240,1.530,-1,4
166,3.45395,1.552,-1,4
167,3.45552,1.571,-1,4
168,3.45708,1.561,-1,4
169,3.45862,1.534,-1,4
170,3.46014,1.530,-1,4
171,3.46170,1.551,-1,4
172,3.46482,1.557,-1,4
173,3.46635,1.527,-1,4
174,3.46788,1.528,-1,4
175,3.46943,1.550,-1,4
176,3.47099,1.563,-1,4
177,3.47254,1.551,-1,4
178,3.47407,1.524,-1,4
179,3.47559,1.522,-1,4
180,3.47713,1.546,-1,4
181,3.47869,1.559,-1,4
182,3.48023,1.541,-1,4
183,3.48175,1.517,-1,4
184,3.48327,1.536,-1,4
185,3.48480,1.536,-1,4
186,3.48636,1.535,-1,4
187,3.48789,1.535,-1,4
188,3.48940,1.508,-1,4
189,3.49090,1.503,-1,4
190,3.49243,1.528,-1,4
191,3.49397,1.538,-1,4
192,3.49700,1.502,-1,4
193,3.49849,1.492,-1,4
194,3.50000,1.511,-1,4
195,3.50153,1.530,-1,4
196,3.50304,1.512,-1,4
197,3.50453,1.491,-1,4
198,3.50602,1.485,-1,4
199,3.50752,1.498,-1,4
200,3.50903,1.512,-1,4
201,3.51053,1.506,-1,4
202,3.51202,1.482,-1,4
203,3.51349,1.472,-1,4
204,3.51498,1.487,-1,4
205,3.51648,1.502,-1,4
206,3.51797,1.492,-1,4
207,3.51944,1.475,-1,4
208,3.52091,1.464,-1,4
209,3.52238,1.472,-1,4
210,3.52387,1.489,-1,4
211,3.52536,1.487,-1,4
212,3.52682,1.464,-1,4
213,3.52827,1.453,-1,4
214,3.52973,1.460,-1,4
215,3.53120,1.471,-1,4
216,3.53268,1.474,-1,4
217,3.53414,1.461,-1,4
218,3.53558,1.445,-1,4
219,3.53703,1.445,-1,4
220,3.53849,1.458,-1,4
221,3.53995,1.458,-1,4
222,3.54139,1.447,-1,4
223,3.54283,1.439,-1,4
224,3.54427,1.440,-1,4
225,3.54571,1.439,-1,4
226,3.54715,1.438,-1,4
227,3.54858,1.434,-1,4
228,3.55001,1.429,-1,4
229,3.55144,1.427,-1,4
230,3.55287,1.427,-1,4
231,3.55429,1.422,-1,4
232,3.55570,1.415,-1,4
233,3.55712,1.416,-1,4
234,3.55854,1.419,-1,4
235,3.55995,1.413,-1,4
236,3.56136,1.404,-1,4
237,3.56276,1.403,-1,4
238,3.56416,1.403,-1,4
239,3.56557,1.406,-1,4
240,3.56697,1.389,-1,4
241,3.56836,1.389,-1,4
242,3.56974,1.394,-1,4
243,3.57114,1.394,-1,4
244,3.57253,1.383,-1,4
245,3.57392,1.383,-1,4
246,3.57666,1.372,-1,4
247,3.57804,1.378,-1,4
248,3.57942,1.380,-1,4
249,3.58079,1.371,-1,4
250,3.58215,1.358,-1,4
251,3.58350,1.354,-1,4
252,3.58486,1.362,-1,4
253,3.58623,1.366,-1,4
254,3.58758,1.353,-1,4
255,3.58892,1.342,-1,4
256,3.59027,1.345,-1,4
257,3.59162,1.350,-1,4
258,3.59296,1.341,-1,4
259,3.59429,1.336,-1,4
260,3.59563,1.334,-1,4
261,3.59696,1.333,-1,4
262,3.59829,1.329,-1,4
263,3.59962,1.329,-1,4
264,3.60094,1.322,-1,4
265,3.60226,1.314,-1,4
266,3.60357,1.318,-1,4
267,3.60489,1.319,-1,4
268,3.60751,1.301,-1,4
269,3.60881,1.303,-1,4
270,3.61011,1.307,-1,4
271,3.61142,1.303,-1,4
272,3.61271,1.294,-1,4
273,3.61400,1.291,-1,4
274,3.61529,1.290,-1,4
275,3.61658,1.287,-1,4
276,3.61787,1.289,-1,4
277,3.61916,1.290,-1,4
278,3.62043,1.275,-1,4
279,3.62170,1.268,-1,4
280,3.62298,1.274,-1,4
281,3.62425,1.276,-1,4
282,3.62552,1.271,-1,4
283,3.62678,1.259,-1,4
284,3.62804,1.257,-1,4
285,3.62929,1.255,-1,4
286,3.63055,1.253,-1,4
287,3.63180,1.248,-1,4
288,3.63305,1.238,-1,4
289,3.63429,1.233,-1,4
290,3.63552,1.233,-1,4
291,3.63675,1.237,-1,4
292,3.63799,1.237,-1,4
293,3.63922,1.215,-1,4
294,3.64043,1.216,-1,4
295,3.64287,1.221,-1,4
296,3.64408,1.214,-1,4
297,3.64529,1.203,-1,4
298,3.64649,1.201,-1,4
299,3.64769,1.198,-1,4
300,3.64888,1.197,-1,4
301,3.65008,1.193,-1,4
302,3.65126,1.188,-1,4
303,3.65244,1.181,-1,4
304,3.65362,1.176,-1,4
305,3.65479,1.173,-1,4
306,3.65597,1.175,-1,4
307,3.65714,1.171,-1,4
308,3.65830,1.159,-1,4
309,3.65945,1.152,-1,4
310,3.66060,1.153,-1,4
311,3.66176,1.153,-1,4
312,3.66290,1.142,-1,4
313,3.66404,1.136,-1,4
314,3.66517,1.137,-1,4
315,3.66744,1.126,-1,4
316,3.66855,1.117,-1,4
317,3.66967,1.115,-1,4
318,3.67079,1.118,-1,4
319,3.67190,1.112,-1,4
320,3.67300,1.103,-1,4
321,3.67410,1.099,-1,4
322,3.67520,1.098,-1,4
323,3.67629,1.092,-1,4
324,3.67737,1.082,-1,4
325,3.67845,1.078,-1,4
326,3.67953,1.077,-1,4
327,3.68060,1.073,-1,4
328,3.68166,1.066,-1,4
329,3.68273,1.061,-1,4
330,3.68378,1.059,-1,4
331,3.68484,1.043,-1,4
332,3.68588,1.043,-1,4
333,3.68795,1.036,-1,4
334,3.68899,1.037,-1,4
335,3.69002,1.028,-1,4
336,3.69103,1.014,-1,4
337,3.69204,1.009,-1,4
338,3.69305,1.010,-1,4
339,3.69406,1.008,-1,4
340,3.69505,0.994,-1,4
341,3.69603,0.980,-1,4
342,3.69701,0.983,-1,4
343,3.69800,0.986,-1,4
344,3.69898,0.982,-1,4
345,3.69994,0.963,-1,4
346,3.70089,0.949,-1,4
347,3.70185,0.951,-1,4
348,3.70280,0.959,-1,4
349,3.70375,0.946,-1,4
350,3.70468,0.928,-1,4
351,3.70560,0.920,-1,4
352,3.70652,0.926,-1,4
353,3.70837,0.912,-1,4
354,3.70837,0.890,-1,4
355,3.71014,0.884,-1,4
356,3.71104,0.896,-1,4
357,3.71194,0.898,-1,4
358,3.71194,0.878,-1,4
359,3.71367,0.859,-1,4
360,3.71452,0.852,-1,4
361,3.71539,0.862,-1,4
362,3.71625,0.862,-1,4
363,3.71709,0.841,-1,4
364,3.71791,0.820,-1,4
365,3.71873,0.816,-1,4
366,3.71955,0.827,-1,4
367,3.72038,0.827,-1,4
368,3.72119,0.808,-1,4
369,3.72197,0.787,-1,4
370,3.72276,0.784,-1,4
371,3.72355,0.791,-1,4
372,3.72433,0.785,-1,4
373,3.72510,0.769,-1,4
374,3.72586,0.753,-1,4
375,3.72661,0.752,-1,4
376,3.72736,0.756,-1,4
377,3.72811,0.747,-1,4
378,3.72884,0.732,-1,4
379,3.72956,0.722,-1,4
380,3.73028,0.720,-1,4
381,3.73100,0.706,-1,4
382,3.73240,0.692,-1,4
383,3.73240,0.684,-1,4
384,3.73377,0.686,-1,4
385,3.73377,0.686,-1,4
386,3.73513,0.671,-1,4
387,3.73513,0.654,-1,4
388,3.73578,0.650,-1,4
389,3.73643,0.649,-1,4
390,3.73772,0.641,-1,4
391,3.73835,0.628,-1,4
392,3.73897,0.617,-1,4
393,3.73958,0.612,-1,4
394,3.74019,0.610,-1,4
395,3.74079,0.598,-1,4
396,3.74137,0.587,-1,4
397,3.74195,0.575,-1,4
398,3.74252,0.572,-1,4
399,3.74309,0.569,-1,4
400,3.74419,0.543,-1,4
401,3.74473,0.535,-1,4
402,3.74526,0.531,-1,4
403,3.74578,0.524,-1,4
404,3.74629,0.509,-1,4
405,3.74679,0.497,-1,4
406,3.74728,0.490,-1,4
407,3.74776,0.485,-1,4
408,3.74824,0.476,-1,4
409,3.74870,0.462,-1,4
410,3.74915,0.450,-1,4
411,3.74959,0.443,-1,4
412,3.75004,0.442,-1,4
413,3.75046,0.429,-1,4
414,3.75088,0.415,-1,4
415,3.75128,0.403,-1,4
416,3.75168,0.399,-1,4
417,3.75207,0.393,-1,4
418,3.75282,0.366,-1,4
419,3.75318,0.354,-1,4
420,3.75353,0.351,-1,4
421,3.75387,0.343,-1,4
422,3.75420,0.330,-1,4
423,3.75452,0.317,-1,4
424,3.75482,0.307,-1,4
425,3.75513,0.303,-1,4
426,3.75542,0.292,-1,4
427,3.75570,0.279,-1,4
428,3.75597,0.266,-1,4
429,3.75622,0.258,-1,4
430,3.75647,0.251,-1,4
431,3.75672,0.241,-1,4
432,3.75694,0.228,-1,4
433,3.75716,0.215,-1,4
434,3.75737,0.207,-1,4
435,3.75756,0.200,-1,4
436,3.75775,0.189,-1,4
437,3.75793,0.176,-1,4
438,3.75810,0.165,-1,4
439,3.75825,0.151,-1,4
440,3.75840,0.151,-1,4
441,3.75854,0.127,-1,4
442,3.75867,0.127,-1,4
443,3.75879,0.118,-1,4
444,3.75890,0.111,-1,4
445,3.75900,0.090,-1,4
446,3.75917,0.079,-1,4
447,3.75924,0.069,-1,4
448,3.75930,0.062,-1,4
449,3.75935,0.052,-1,4
450,3.75939,0.040,-1,4
451,3.75942,0.030,-1,4
452,3.75944,0.021,-1,4
453,3.75945,0.012,-1,4
454,3.75945,0.002,-1,4
455,3.75945,-0.009,-1,4
456,3.75943,-0.018,-1,4
457,3.75940,-0.025,-1,4
458,3.75937,-0.033,-1,4
459,3.75933,-0.042,-1,4
460,3.75928,-0.052,-1,4
461,3.75922,-0.058,-1,4
462,3.75915,-0.065,-1,4
463,3.75908,-0.073,-1,4
464,3.75900,-0.081,-1,4
465,3.75891,-0.089,-1,4
466,3.75881,-0.097,-1,4
467,3.75871,-0.110,-1,4
468,3.75860,-0.110,-1,4
469,3.75848,-0.127,-1,4
470,3.75835,-0.127,-1,4
471,3.75822,-0.141,-1,4
472,3.75808,-0.149,-1,4
473,3.75777,-0.158,-1,4
474,3.75760,-0.167,-1,4
475,3.75743,-0.174,-1,4
476,3.75725,-0.181,-1,4
477,3.75706,-0.192,-1,4
478,3.75686,-0.198,-1,4
479,3.75665,-0.207,-1,4
480,3.75643,-0.217,-1,4
481,3.75621,-0.224,-1,4
482,3.75598,-0.233,-1,4
483,3.75574,-0.242,-1,4
484,3.75549,-0.251,-1,4
485,3.75523,-0.259,-1,4
486,3.75496,-0.267,-1,4
487,3.75468,-0.276,-1,4
488,3.75440,-0.284,-1,4
489,3.75411,-0.293,-1,4
490,3.75380,-0.301,-1,4
491,3.75350,-0.309,-1,4
492,3.75318,-0.318,-1,4
493,3.75285,-0.325,-1,4
494,3.75252,-0.335,-1,4
495,3.75182,-0.352,-1,4
496,3.75146,-0.360,-1,4
497,3.75110,-0.368,-1,4
498,3.75072,-0.377,-1,4
499,3.75034,-0.383,-1,4
500,3.74994,-0.392,-1,4
501,3.74954,-0.400,-1,4
502,3.74914,-0.408,-1,4
503,3.74872,-0.416,-1,4
504,3.74830,-0.423,-1,4
505,3.74787,-0.431,-1,4
506,3.74743,-0.441,-1,4
507,3.74698,-0.451,-1,4
508,3.74652,-0.458,-1,4
509,3.74605,-0.465,-1,4
510,3.74558,-0.474,-1,4
511,3.74509,-0.483,-1,4
512,3.74460,-0.493,-1,4
513,3.74410,-0.501,-1,4
514,3.74307,-0.517,-1,4
515,3.74307,-0.526,-1,4
516,3.74201,-0.534,-1,4
517,3.74201,-0.541,-1,4
518,3.74092,-0.550,-1,4
519,3.74092,-0.556,-1,4
520,3.74037,-0.565,-1,4
521,3.73980,-0.575,-1,4
522,3.73864,-0.583,-1,4
523,3.73805,-0.590,-1,4
524,3.73745,-0.599,-1,4
525,3.73685,-0.605,-1,4
526,3.73623,-0.615,-1,4
527,3.73561,-0.625,-1,4
528,3.73498,-0.633,-1,4
529,3.73433,-0.640,-1,4
530,3.73369,-0.648,-1,4
531,3.73303,-0.657,-1,4
532,3.73237,-0.662,-1,4
533,3.73170,-0.671,-1,4
534,3.73102,-0.679,-1,4
535,3.73033,-0.686,-1,4
536,3.72964,-0.695,-1,4
537,3.72893,-0.705,-1,4
538,3.72822,-0.712,-1,4
539,3.72750,-0.723,-1,4
540,3.72677,-0.727,-1,4
541,3.72604,-0.743,-1,4
542,3.72454,-0.750,-1,4
543,3.72378,-0.759,-1,4
544,3.72302,-0.768,-1,4
545,3.72224,-0.775,-1,4
546,3.72146,-0.782,-1,4
547,3.72067,-0.790,-1,4
548,3.71987,-0.801,-1,4
549,3.71906,-0.810,-1,4
550,3.71824,-0.818,-1,4
551,3.71742,-0.821,-1,4
552,3.71659,-0.827,-1,4
553,3.71575,-0.838,-1,4
554,3.71490,-0.850,-1,4
555,3.71405,-0.859,-1,4
556,3.71318,-0.864,-1,4
557,3.71231,-0.868,-1,4
558,3.71144,-0.876,-1,4
559,3.71055,-0.889,-1,4
560,3.70965,-0.898,-1,4
561,3.70875,-0.903,-1,4
562,3.70784,-0.904,-1,4
563,3.70600,-0.927,-1,4
564,3.70506,-0.940,-1,4
565,3.70506,-0.944,-1,4
566,3.70412,-0.945,-1,4
567,3.70223,-0.948,-1,4
568,3.70223,-0.961,-1,4
569,3.70029,-0.973,-1,4
570,3.69931,-0.981,-1,4
571,3.69833,-0.984,-1,4
572,3.69734,-0.985,-1,4
573,3.69635,-0.998,-1,4
574,3.69533,-1.013,-1,4
575,3.69431,-1.022,-1,4
576,3.69329,-1.019,-1,4
577,3.69228,-1.017,-1,4
578,3.69124,-1.031,-1,4
579,3.69019,-1.052,-1,4
580,3.68807,-1.056,-1,4
581,3.68807,-1.056,-1,4
582,3.68595,-1.067,-1,4
583,3.68595,-1.086,-1,4
584,3.68486,-1.086,-1,4
585,3.68377,-1.090,-1,4
586,3.68268,-1.090,-1,4
587,3.68159,-1.107,-1,4
588,3.68048,-1.123,-1,4
589,3.67823,-1.129,-1,4
590,3.67710,-1.125,-1,4
591,3.67598,-1.126,-1,4
592,3.67484,-1.138,-1,4
593,3.67368,-1.154,-1,4
594,3.67252,-1.161,-1,4
595,3.67136,-1.166,-1,4
596,3.67019,-1.169,-1,4
597,3.66902,-1.172,-1,4
598,3.66784,-1.179,-1,4
599,3.66665,-1.191,-1,4
600,3.66544,-1.202,-1,4
601,3.66424,-1.202,-1,4
602,3.66304,-1.206,-1,4
603,3.66182,-1.216,-1,4
604,3.66059,-1.225,-1,4
605,3.65937,-1.229,-1,4
606,3.65814,-1.229,-1,4
607,3.65690,-1.237,-1,4
608,3.65439,-1.257,-1,4
609,3.65313,-1.259,-1,4
610,3.65313,-1.263,-1,4
611,3.65187,-1.267,-1,4
612,3.65060,-1.267,-1,4
613,3.64933,-1.284,-1,4
614,3.64805,-1.284,-1,4
615,3.64675,-1.293,-1,4
616,3.64546,-1.293,-1,4
617,3.64287,-1.301,-1,4
618,3.64155,-1.315,-1,4
619,3.64023,-1.320,-1,4
620,3.63891,-1.321,-1,4
621,3.63759,-1.324,-1,4
622,3.63626,-1.329,-1,4
623,3.63492,-1.338,-1,4
624,3.63357,-1.349,-1,4
625,3.63222,-1.354,-1,4
626,3.63086,-1.355,-1,4
627,3.62951,-1.357,-1,4
628,3.62814,-1.366,-1,4
629,3.62676,-1.377,-1,4
630,3.62538,-1.381,-1,4
631,3.62400,-1.384,-1,4
632,3.62261,-1.391,-1,4
633,3.62121,-1.398,-1,4
634,3.61981,-1.404,-1,4
635,3.61840,-1.410,-1,4
636,3.61699,-1.416,-1,4
637,3.61414,-1.429,-1,4
638,3.61270,-1.437,-1,4
639,3.61127,-1.435,-1,4
640,3.60983,-1.436,-1,4
641,3.60839,-1.446,-1,4
642,3.60693,-1.457,-1,4
643,3.60547,-1.464,-1,4
644,3.60400,-1.464,-1,4
645,3.60254,-1.463,-1,4
646,3.60107,-1.472,-1,4
647,3.59958,-1.487,-1,4
648,3.59809,-1.491,-1,4
649,3.59660,-1.489,-1,4
650,3.59511,-1.489,-1,4
651,3.59361,-1.503,-1,4
652,3.59210,-1.511,-1,4
653,3.59058,-1.521,-1,4
654,3.58907,-1.511,-1,4
655,3.58755,-1.511,-1,4
656,3.58449,-1.544,-1,4
657,3.58295,-1.542,-1,4
658,3.58141,-1.532,-1,4
659,3.57988,-1.531,-1,4
660,3.57833,-1.547,-1,4
661,3.57677,-1.566,-1,4
662,3.57520,-1.566,-1,4
663,3.57365,-1.554,-1,4
664,3.57210,-1.551,-1,4
665,3.57053,-1.569,-1,4
666,3.56894,-1.586,-1,4
667,3.56735,-1.589,-1,4
668,3.56578,-1.574,-1,4
669,3.56421,-1.570,-1,4
670,3.56262,-1.589,-1,4
671,3.56101,-1.610,-1,4
672,3.55941,-1.604,-1,4
673,3.55782,-1.589,-1,4
674,3.55623,-1.590,-1,4
675,3.55299,-1.629,-1,4
676,3.55137,-1.620,-1,4
677,3.55137,-1.603,-1,4
678,3.54976,-1.608,-1,4
679,3.54816,-1.608,-1,4
680,3.54488,-1.646,-1,4
681,3.54488,-1.635,-1,4
682,3.54324,-1.619,-1,4
683,3.54162,-1.626,-1,4
684,3.53834,-1.653,-1,4
685,3.53668,-1.665,-1,4
686,3.53503,-1.648,-1,4
687,3.53340,-1.633,-1,4
688,3.53176,-1.642,-1,4
689,3.53009,-1.670,-1,4
690,3.52841,-1.680,-1,4
691,3.52674,-1.662,-1,4
692,3.52510,-1.645,-1,4
693,3.52344,-1.659,-1,4
694,3.52175,-1.685,-1,4
695,3.52006,-1.696,-1,4
696,3.51838,-1.678,-1,4
697,3.51672,-1.659,-1,4
698,3.51505,-1.676,-1,4
699,3.51334,-1.704,-1,4
700,3.51163,-1.711,-1,4
701,3.50994,-1.690,-1,4
702,3.50826,-1.679,-1,4
703,3.50657,-1.695,-1,4
704,3.50485,-1.722,-1,4
705,3.50313,-1.720,-1,4
706,3.50142,-1.702,-1,4
707,3.49973,-1.698,-1,4
708,3.49801,-1.717,-1,4
709,3.49627,-1.735,-1,4
710,3.49455,-1.728,-1,4
711,3.49283,-1.713,-1,4
712,3.49112,-1.715,-1,4
713,3.48938,-1.738,-1,4
714,3.48763,-1.747,-1,4
715,3.48589,-1.738,-1,4
716,3.48417,-1.738,-1,4
717,3.48243,-1.738,-1,4
718,3.48067,-1.758,-1,4
719,3.47892,-1.755,-1,4
720,3.47717,-1.744,-1,4
721,3.47543,-1.746,-1,4
722,3.47367,-1.757,-1,4
723,3.47190,-1.764,-1,4
724,3.46838,-1.757,-1,4
725,3.46662,-1.765,-1,4
726,3.46484,-1.773,-1,4
727,3.46306,-1.778,-1,4
728,3.46129,-1.771,-1,4
729,3.45952,-1.771,-1,4
730,3.45774,-1.784,-1,4
731,3.45595,-1.786,-1,4
732,3.45417,-1.785,-1,4
733,3.45239,-1.780,-1,4
734,3.45060,-1.788,-1,4
735,3.44880,-1.797,-1,4
736,3.44701,-1.796,-1,4
737,3.44522,-1.787,-1,4
738,3.44343,-1.795,-1,4
739,3.44162,-1.804,-1,4
740,3.43981,-1.809,-1,4
741,3.43801,-1.799,-1,4
742,3.43622,-1.799,-1,4
743,3.43441,-1.807,-1,4
744,3.43259,-1.818,-1,4
745,3.43078,-1.814,-1,4
746,3.42897,-1.807,-1,4
747,3.42716,-1.807,-1,4
748,3.42534,-1.820,-1,4
749,3.42351,-1.829,-1,4
750,3.42169,-1.821,-1,4
751,3.41987,-1.817,-1,4
752,3.41805,-1.821,-1,4
753,3.41622,-1.830,-1,4
754,3.41439,-1.835,-1,4
755,3.41256,-1.831,-1,4
756,3.41073,-1.832,-1,4
757,3.40889,-1.832,-1,4
758,3.40706,-1.834,-1,4
759,3.40522,-1.843,-1,4
760,3.40337,-1.843,-1,4
761,3.39969,-1.840,-1,4
762,3.39785,-1.839,-1,4
763,3.39600,-1.848,-1,4
764,3.39415,-1.856,-1,4
765,3.39230,-1.853,-1,4
766,3.39045,-1.841,-1,4
767,3.38861,-1.844,-1,4
768,3.38675,-1.861,-1,4
769,3.38489,-1.864,-1,4
770,3.38303,-1.853,-1,4
771,3.38119,-1.847,-1,4
772,3.37933,-1.856,-1,4
773,3.37746,-1.866,-1,4
774,3.37560,-1.864,-1,4
775,3.37374,-1.859,-1,4
776,3.37188,-1.858,-1,4
777,3.37002,-1.863,-1,4
778,3.36815,-1.869,-1,4
779,3.36628,-1.867,-1,4
780,3.36255,-1.867,-1,4
781,3.36068,-1.865,-1,4
782,3.36068,-1.868,-1,4
783,3.35882,-1.872,-1,4
784,3.35694,-1.872,-1,4
785,3.35507,-1.876,-1,4
786,3.35320,-1.871,-1,4
787,3.35134,-1.862,-1,4
788,3.34946,-1.871,-1,4
789,3.34758,-1.881,-1,4
790,3.34570,-1.879,-1,4
791,3.34383,-1.866,-1,4
792,3.34197,-1.866,-1,4
793,3.34009,-1.883,-1,4
794,3.33821,-1.883,-1,4
795,3.33633,-1.873,-1,4
796,3.33446,-1.873,-1,4
797,3.33258,-1.871,-1,4
798,3.33070,-1.881,-1,4
799,3.32694,-1.880,-1,4
800,3.32506,-1.877,-1,4
801,3.32319,-1.875,-1,4
802,3.32131,-1.880,-1,4
803,3.31943,-1.881,-1,4
804,3.31754,-1.883,-1,4
805,3.31566,-1.883,-1,4
806,3.31378,-1.877,-1,4
807,3.31191,-1.878,-1,4
808,3.31002,-1.885,-1,4
809,3.30813,-1.887,-1,4
810,3.30625,-1.886,-1,4
811,3.30437,-1.876,-1,4
812,3.30249,-1.879,-1,4
813,3.30061,-1.887,-1,4
814,3.29872,-1.891,-1,4
815,3.29683,-1.883,-1,4
816,3.29496,-1.878,-1,4
817,3.29307,-1.884,-1,4
818,3.29118,-1.890,-1,4
819,3.28741,-1.883,-1,4
820,3.28553,-1.882,-1,4
821,3.28364,-1.888,-1,4
822,3.28175,-1.888,-1,4
823,3.27987,-1.885,-1,4
824,3.27798,-1.885,-1,4
825,3.27610,-1.883,-1,4
826,3.27421,-1.886,-1,4
827,3.27233,-1.883,-1,4
828,3.27044,-1.883,-1,4
829,3.26856,-1.884,-1,4
830,3.26668,-1.882,-1,4
831,3.26480,-1.878,-1,4
832,3.26292,-1.879,-1,4
833,3.26104,-1.882,-1,4
834,3.25916,-1.881,-1,4
835,3.25729,-1.874,-1,4
836,3.25541,-1.871,-1,4
837,3.25354,-1.878,-1,4
838,3.25166,-1.877,-1,4
839,3.24979,-1.871,-1,4
840,3.24792,-1.865,-1,4
841,3.24605,-1.871,-1,4
842,3.24418,-1.874,-1,4
843,3.24231,-1.869,-1,4
844,3.24045,-1.862,-1,4
845,3.23859,-1.860,-1,4
846,3.23672,-1.867,-1,4
847,3.23485,-1.867,-1,4
848,3.23299,-1.861,-1,4
849,3.23114,-1.857,-1,4
850,3.22928,-1.859,-1,4
851,3.22742,-1.860,-1,4
852,3.22556,-1.858,-1,4
853,3.22370,-1.857,-1,4
854,3.22185,-1.855,-1,4
855,3.21999,-1.852,-1,4
