cnt,pos,speed,Dir,Force,
1,3.21204,1.253,-1,4
2,3.21330,1.259,-1,4
3,3.21456,1.258,-1,4
4,3.21581,1.251,-1,4
5,3.21706,1.254,-1,4
6,3.21833,1.264,-1,4
7,3.21959,1.266,-1,4
8,3.22085,1.258,-1,4
9,3.22211,1.259,-1,4
10,3.22337,1.259,-1,4
11,3.22463,1.263,-1,4
12,3.22590,1.268,-1,4
13,3.22717,1.269,-1,4
14,3.22844,1.267,-1,4
15,3.22970,1.260,-1,4
16,3.23096,1.265,-1,4
17,3.23223,1.272,-1,4
18,3.23351,1.269,-1,4
19,3.23478,1.269,-1,4
20,3.23604,1.272,-1,4
21,3.23731,1.272,-1,4
22,3.23858,1.271,-1,4
23,3.24113,1.276,-1,4
24,3.24241,1.277,-1,4
25,3.24368,1.272,-1,4
26,3.24495,1.271,-1,4
27,3.24622,1.272,-1,4
28,3.24750,1.278,-1,4
29,3.24878,1.275,-1,4
30,3.25005,1.278,-1,4
31,3.25133,1.281,-1,4
32,3.25261,1.274,-1,4
33,3.25388,1.273,-1,4
34,3.25516,1.276,-1,4
35,3.25644,1.282,-1,4
36,3.25772,1.282,-1,4
37,3.25900,1.278,-1,4
38,3.26028,1.280,-1,4
39,3.26156,1.279,-1,4
40,3.26283,1.276,-1,4
41,3.26411,1.279,-1,4
42,3.26540,1.286,-1,4
43,3.26668,1.281,-1,4
44,3.26796,1.279,-1,4
45,3.27052,1.281,-1,4
46,3.27180,1.283,-1,4
47,3.27180,1.280,-1,4
48,3.27308,1.286,-1,4
49,3.27437,1.286,-1,4
50,3.27693,1.279,-1,4
51,3.27693,1.279,-1,4
52,3.27821,1.279,-1,4
53,3.27950,1.288,-1,4
54,3.28207,1.285,-1,4
55,3.28336,1.285,-1,4
56,3.28464,1.282,-1,4
57,3.28592,1.283,-1,4
58,3.28721,1.287,-1,4
59,3.28850,1.292,-1,4
60,3.28979,1.293,-1,4
61,3.29108,1.288,-1,4
62,3.29236,1.280,-1,4
63,3.29365,1.288,-1,4
64,3.29494,1.291,-1,4
65,3.29623,1.292,-1,4
66,3.29753,1.294,-1,4
67,3.29882,1.294,-1,4
68,3.30011,1.285,-1,4
69,3.30139,1.287,-1,4
70,3.30269,1.295,-1,4
71,3.30398,1.297,-1,4
72,3.30528,1.295,-1,4
73,3.30657,1.295,-1,4
74,3.30787,1.296,-1,4
75,3.31045,1.293,-1,4
76,3.31045,1.296,-1,4
77,3.31175,1.296,-1,4
78,3.31305,1.302,-1,4
79,3.31436,1.302,-1,4
80,3.31694,1.292,-1,4
81,3.31694,1.296,-1,4
82,3.31954,1.298,-1,4
83,3.32084,1.302,-1,4
84,3.32214,1.303,-1,4
85,3.32344,1.296,-1,4
86,3.32472,1.288,-1,4
87,3.32602,1.296,-1,4
88,3.32732,1.304,-1,4
89,3.32863,1.303,-1,4
90,3.32992,1.298,-1,4
91,3.33122,1.295,-1,4
92,3.33251,1.294,-1,4
93,3.33381,1.295,-1,4
94,3.33511,1.304,-1,4
95,3.33642,1.308,-1,4
96,3.33772,1.299,-1,4
97,3.33901,1.291,-1,4
98,3.34031,1.297,-1,4
99,3.34161,1.300,-1,4
100,3.34291,1.304,-1,4
101,3.34422,1.305,-1,4
102,3.34552,1.296,-1,4
103,3.34811,1.293,-1,4
104,3.34941,1.301,-1,4
105,3.35072,1.308,-1,4
106,3.35203,1.305,-1,4
107,3.35333,1.302,-1,4
108,3.35463,1.303,-1,4
109,3.35593,1.298,-1,4
110,3.35723,1.297,-1,4
111,3.35853,1.307,-1,4
112,3.35985,1.313,-1,4
113,3.36116,1.310,-1,4
114,3.36246,1.301,-1,4
115,3.36376,1.299,-1,4
116,3.36506,1.303,-1,4
117,3.36637,1.310,-1,4
118,3.36768,1.316,-1,4
119,3.36900,1.315,-1,4
120,3.37030,1.301,-1,4
121,3.37160,1.297,-1,4
122,3.37291,1.309,-1,4
123,3.37423,1.320,-1,4
124,3.37554,1.317,-1,4
125,3.37685,1.309,-1,4
126,3.37816,1.303,-1,4
127,3.37946,1.305,-1,4
128,3.38077,1.310,-1,4
129,3.38209,1.320,-1,4
130,3.38341,1.322,-1,4
131,3.38473,1.312,-1,4
132,3.38733,1.307,-1,4
133,3.38865,1.318,-1,4
134,3.38997,1.321,-1,4
135,3.39129,1.317,-1,4
136,3.39260,1.313,-1,4
137,3.39260,1.308,-1,4
138,3.39391,1.308,-1,4
139,3.39653,1.315,-1,4
140,3.39653,1.320,-1,4
141,3.39917,1.317,-1,4
142,3.40048,1.311,-1,4
143,3.40179,1.309,-1,4
144,3.40310,1.310,-1,4
145,3.40441,1.311,-1,4
146,3.40573,1.315,-1,4
147,3.40704,1.316,-1,4
148,3.40835,1.309,-1,4
149,3.40966,1.304,-1,4
150,3.41096,1.308,-1,4
151,3.41227,1.311,-1,4
152,3.41358,1.309,-1,4
153,3.41489,1.309,-1,4
154,3.41620,1.307,-1,4
155,3.41750,1.303,-1,4
156,3.41881,1.302,-1,4
157,3.42011,1.307,-1,4
158,3.42142,1.311,-1,4
159,3.42273,1.304,-1,4
160,3.42403,1.301,-1,4
161,3.42533,1.301,-1,4
162,3.42663,1.299,-1,4
163,3.42924,1.306,-1,4
164,3.42924,1.308,-1,4
165,3.43055,1.301,-1,4
166,3.43185,1.301,-1,4
167,3.43314,1.293,-1,4
168,3.43444,1.296,-1,4
169,3.43704,1.302,-1,4
170,3.43834,1.302,-1,4
171,3.43964,1.300,-1,4
172,3.44093,1.293,-1,4
173,3.44222,1.288,-1,4
174,3.44352,1.295,-1,4
175,3.44482,1.302,-1,4
176,3.44612,1.299,-1,4
177,3.44741,1.294,-1,4
178,3.44870,1.290,-1,4
179,3.44999,1.290,-1,4
180,3.45128,1.292,-1,4
181,3.45258,1.292,-1,4
182,3.45387,1.297,-1,4
183,3.45517,1.294,-1,4
184,3.45645,1.282,-1,4
185,3.45773,1.284,-1,4
186,3.45903,1.293,-1,4
187,3.46031,1.288,-1,4
188,3.46160,1.283,-1,4
189,3.46288,1.287,-1,4
190,3.46417,1.279,-1,4
191,3.46544,1.279,-1,4
192,3.46672,1.282,-1,4
193,3.46801,1.282,-1,4
194,3.46928,1.276,-1,4
195,3.47056,1.276,-1,4
196,3.47183,1.274,-1,4
197,3.47311,1.277,-1,4
198,3.47438,1.267,-1,4
199,3.47565,1.267,-1,4
200,3.47819,1.272,-1,4
201,3.47946,1.266,-1,4
202,3.48071,1.257,-1,4
203,3.48198,1.261,-1,4
204,3.48324,1.262,-1,4
205,3.48450,1.259,-1,4
206,3.48575,1.258,-1,4
207,3.48701,1.256,-1,4
208,3.48826,1.252,-1,4
209,3.48951,1.243,-1,4
210,3.49075,1.248,-1,4
211,3.49200,1.248,-1,4
212,3.49325,1.246,-1,4
213,3.49449,1.238,-1,4
214,3.49573,1.241,-1,4
215,3.49696,1.237,-1,4
216,3.49820,1.231,-1,4
217,3.49942,1.226,-1,4
218,3.50066,1.236,-1,4
219,3.50189,1.234,-1,4
220,3.50312,1.225,-1,4
221,3.50434,1.218,-1,4
222,3.50556,1.220,-1,4
223,3.50678,1.221,-1,4
224,3.50799,1.217,-1,4
225,3.50921,1.218,-1,4
226,3.51043,1.217,-1,4
227,3.51164,1.210,-1,4
228,3.51405,1.204,-1,4
229,3.51526,1.211,-1,4
230,3.51647,1.206,-1,4
231,3.51647,1.199,-1,4
232,3.51766,1.201,-1,4
233,3.51887,1.201,-1,4
234,3.52126,1.192,-1,4
235,3.52126,1.190,-1,4
236,3.52364,1.194,-1,4
237,3.52484,1.195,-1,4
238,3.52603,1.191,-1,4
239,3.52721,1.180,-1,4
240,3.52838,1.179,-1,4
241,3.52957,1.184,-1,4
242,3.53075,1.183,-1,4
243,3.53193,1.177,-1,4
244,3.53311,1.177,-1,4
245,3.53429,1.179,-1,4
246,3.53546,1.172,-1,4
247,3.53662,1.165,-1,4
248,3.53779,1.166,-1,4
249,3.53896,1.169,-1,4
250,3.54012,1.166,-1,4
251,3.54128,1.161,-1,4
252,3.54244,1.159,-1,4
253,3.54360,1.159,-1,4
254,3.54475,1.152,-1,4
255,3.54590,1.146,-1,4
256,3.54705,1.148,-1,4
257,3.54934,1.143,-1,4
258,3.54934,1.137,-1,4
259,3.55162,1.134,-1,4
260,3.55162,1.137,-1,4
261,3.55275,1.133,-1,4
262,3.55389,1.133,-1,4
263,3.55613,1.124,-1,4
264,3.55613,1.129,-1,4
265,3.55839,1.125,-1,4
266,3.55950,1.113,-1,4
267,3.56061,1.109,-1,4
268,3.56172,1.114,-1,4
269,3.56284,1.116,-1,4
270,3.56395,1.106,-1,4
271,3.56505,1.100,-1,4
272,3.56615,1.102,-1,4
273,3.56725,1.102,-1,4
274,3.56834,1.093,-1,4
275,3.56943,1.086,-1,4
276,3.57052,1.092,-1,4
277,3.57162,1.096,-1,4
278,3.57270,1.086,-1,4
279,3.57378,1.075,-1,4
280,3.57485,1.073,-1,4
281,3.57593,1.079,-1,4
282,3.57701,1.079,-1,4
283,3.57808,1.068,-1,4
284,3.57914,1.062,-1,4
285,3.58021,1.069,-1,4
286,3.58233,1.058,-1,4
287,3.58338,1.047,-1,4
288,3.58443,1.052,-1,4
289,3.58549,1.058,-1,4
290,3.58654,1.053,-1,4
291,3.58759,1.042,-1,4
292,3.58862,1.037,-1,4
293,3.58967,1.047,-1,4
294,3.59072,1.047,-1,4
295,3.59175,1.034,-1,4
296,3.59277,1.025,-1,4
297,3.59381,1.031,-1,4
298,3.59485,1.041,-1,4
299,3.59588,1.035,-1,4
300,3.59690,1.018,-1,4
301,3.59791,1.015,-1,4
302,3.59894,1.022,-1,4
303,3.59996,1.027,-1,4
304,3.60098,1.019,-1,4
305,3.60199,1.005,-1,4
306,3.60299,1.005,-1,4
307,3.60401,1.014,-1,4
308,3.60502,1.014,-1,4
309,3.60602,0.999,-1,4
310,3.60701,0.992,-1,4
311,3.60801,0.994,-1,4
312,3.61001,0.999,-1,4
313,3.61099,0.983,-1,4
314,3.61197,0.977,-1,4
315,3.61295,0.982,-1,4
316,3.61394,0.990,-1,4
317,3.61492,0.982,-1,4
318,3.61589,0.967,-1,4
319,3.61685,0.964,-1,4
320,3.61783,0.974,-1,4
321,3.61881,0.977,-1,4
322,3.61977,0.964,-1,4
323,3.62072,0.947,-1,4
324,3.62166,0.948,-1,4
325,3.62262,0.959,-1,4
326,3.62359,0.964,-1,4
327,3.62453,0.946,-1,4
328,3.62546,0.931,-1,4
329,3.62640,0.931,-1,4
330,3.62734,0.943,-1,4
331,3.62828,0.944,-1,4
332,3.63012,0.915,-1,4
333,3.63104,0.915,-1,4
334,3.63196,0.924,-1,4
335,3.63289,0.926,-1,4
336,3.63379,0.908,-1,4
337,3.63469,0.892,-1,4
338,3.63558,0.895,-1,4
339,3.63649,0.908,-1,4
340,3.63740,0.908,-1,4
341,3.63829,0.887,-1,4
342,3.63916,0.871,-1,4
343,3.64003,0.875,-1,4
344,3.64092,0.887,-1,4
345,3.64181,0.890,-1,4
346,3.64268,0.869,-1,4
347,3.64353,0.850,-1,4
348,3.64438,0.849,-1,4
349,3.64524,0.866,-1,4
350,3.64611,0.869,-1,4
351,3.64696,0.829,-1,4
352,3.64779,0.826,-1,4
353,3.64862,0.840,-1,4
354,3.64946,0.840,-1,4
355,3.65030,0.846,-1,4
356,3.65113,0.830,-1,4
357,3.65194,0.799,-1,4
358,3.65274,0.799,-1,4
359,3.65355,0.817,-1,4
360,3.65517,0.808,-1,4
361,3.65596,0.789,-1,4
362,3.65674,0.776,-1,4
363,3.65752,0.779,-1,4
364,3.65830,0.787,-1,4
365,3.65909,0.783,-1,4
366,3.65985,0.765,-1,4
367,3.66060,0.752,-1,4
368,3.66135,0.749,-1,4
369,3.66211,0.753,-1,4
370,3.66286,0.752,-1,4
371,3.66360,0.739,-1,4
372,3.66433,0.729,-1,4
373,3.66505,0.725,-1,4
374,3.66577,0.724,-1,4
375,3.66649,0.718,-1,4
376,3.66720,0.709,-1,4
377,3.66790,0.697,-1,4
378,3.66860,0.697,-1,4
379,3.66929,0.689,-1,4
380,3.67065,0.675,-1,4
381,3.67065,0.668,-1,4
382,3.67198,0.662,-1,4
383,3.67198,0.664,-1,4
384,3.67265,0.664,-1,4
385,3.67330,0.644,-1,4
386,3.67395,0.644,-1,4
387,3.67458,0.630,-1,4
388,3.67584,0.626,-1,4
389,3.67646,0.620,-1,4
390,3.67707,0.610,-1,4
391,3.67767,0.600,-1,4
392,3.67826,0.595,-1,4
393,3.67885,0.590,-1,4
394,3.67944,0.583,-1,4
395,3.68001,0.572,-1,4
396,3.68057,0.563,-1,4
397,3.68113,0.555,-1,4
398,3.68168,0.551,-1,4
399,3.68222,0.544,-1,4
400,3.68276,0.534,-1,4
401,3.68328,0.524,-1,4
402,3.68380,0.516,-1,4
403,3.68430,0.509,-1,4
404,3.68481,0.501,-1,4
405,3.68530,0.491,-1,4
406,3.68578,0.481,-1,4
407,3.68625,0.474,-1,4
408,3.68672,0.459,-1,4
409,3.68718,0.459,-1,4
410,3.68763,0.449,-1,4
411,3.68806,0.437,-1,4
412,3.68849,0.430,-1,4
413,3.68892,0.424,-1,4
414,3.68933,0.413,-1,4
415,3.68973,0.401,-1,4
416,3.69050,0.383,-1,4
417,3.69088,0.376,-1,4
418,3.69124,0.365,-1,4
419,3.69160,0.352,-1,4
420,3.69194,0.342,-1,4
421,3.69227,0.334,-1,4
422,3.69260,0.327,-1,4
423,3.69291,0.316,-1,4
424,3.69322,0.305,-1,4
425,3.69351,0.295,-1,4
426,3.69380,0.287,-1,4
427,3.69408,0.277,-1,4
428,3.69434,0.267,-1,4
429,3.69460,0.256,-1,4
430,3.69485,0.246,-1,4
431,3.69508,0.237,-1,4
432,3.69531,0.226,-1,4
433,3.69553,0.216,-1,4
434,3.69573,0.202,-1,4
435,3.69592,0.195,-1,4
436,3.69611,0.173,-1,4
437,3.69628,0.163,-1,4
438,3.69659,0.149,-1,4
439,3.69659,0.143,-1,4
440,3.69686,0.130,-1,4
441,3.69686,0.130,-1,4
442,3.69710,0.109,-1,4
443,3.69710,0.098,-1,4
444,3.69728,0.090,-1,4
445,3.69736,0.079,-1,4
446,3.69743,0.068,-1,4
447,3.69749,0.058,-1,4
448,3.69754,0.047,-1,4
449,3.69757,0.037,-1,4
450,3.69760,0.026,-1,4
451,3.69762,0.015,-1,4
452,3.69762,0.004,-1,4
453,3.69761,-0.006,-1,4
454,3.69760,-0.015,-1,4
455,3.69757,-0.025,-1,4
456,3.69754,-0.035,-1,4
457,3.69749,-0.044,-1,4
458,3.69744,-0.054,-1,4
459,3.69738,-0.063,-1,4
460,3.69731,-0.071,-1,4
461,3.69723,-0.081,-1,4
462,3.69714,-0.089,-1,4
463,3.69704,-0.097,-1,4
464,3.69693,-0.108,-1,4
465,3.69669,-0.125,-1,4
466,3.69669,-0.125,-1,4
467,3.69656,-0.143,-1,4
468,3.69641,-0.143,-1,4
469,3.69626,-0.161,-1,4
470,3.69610,-0.161,-1,4
471,3.69593,-0.182,-1,4
472,3.69575,-0.189,-1,4
473,3.69536,-0.199,-1,4
474,3.69515,-0.210,-1,4
475,3.69493,-0.219,-1,4
476,3.69470,-0.227,-1,4
477,3.69447,-0.237,-1,4
478,3.69422,-0.246,-1,4
479,3.69396,-0.256,-1,4
480,3.69370,-0.264,-1,4
481,3.69343,-0.273,-1,4
482,3.69315,-0.282,-1,4
483,3.69285,-0.291,-1,4
484,3.69255,-0.300,-1,4
485,3.69224,-0.309,-1,4
486,3.69193,-0.318,-1,4
487,3.69160,-0.327,-1,4
488,3.69126,-0.336,-1,4
489,3.69092,-0.346,-1,4
490,3.69056,-0.356,-1,4
491,3.69020,-0.365,-1,4
492,3.68982,-0.385,-1,4
493,3.68904,-0.393,-1,4
494,3.68864,-0.402,-1,4
495,3.68823,-0.412,-1,4
496,3.68781,-0.421,-1,4
497,3.68738,-0.430,-1,4
498,3.68694,-0.440,-1,4
499,3.68649,-0.446,-1,4
500,3.68604,-0.456,-1,4
501,3.68557,-0.466,-1,4
502,3.68510,-0.474,-1,4
503,3.68462,-0.481,-1,4
504,3.68413,-0.489,-1,4
505,3.68363,-0.498,-1,4
506,3.68312,-0.508,-1,4
507,3.68260,-0.517,-1,4
508,3.68208,-0.525,-1,4
509,3.68155,-0.533,-1,4
510,3.68101,-0.539,-1,4
511,3.68046,-0.559,-1,4
512,3.67933,-0.567,-1,4
513,3.67876,-0.575,-1,4
514,3.67817,-0.582,-1,4
515,3.67758,-0.592,-1,4
516,3.67698,-0.603,-1,4
517,3.67637,-0.609,-1,4
518,3.67575,-0.615,-1,4
519,3.67513,-0.624,-1,4
520,3.67450,-0.633,-1,4
521,3.67386,-0.639,-1,4
522,3.67321,-0.651,-1,4
523,3.67255,-0.661,-1,4
524,3.67188,-0.666,-1,4
525,3.67121,-0.676,-1,4
526,3.67053,-0.681,-1,4
527,3.66983,-0.691,-1,4
528,3.66914,-0.696,-1,4
529,3.66843,-0.708,-1,4
530,3.66772,-0.715,-1,4
531,3.66699,-0.730,-1,4
532,3.66626,-0.737,-1,4
533,3.66552,-0.737,-1,4
534,3.66478,-0.755,-1,4
535,3.66402,-0.755,-1,4
536,3.66326,-0.775,-1,4
537,3.66248,-0.780,-1,4
538,3.66092,-0.785,-1,4
539,3.66013,-0.791,-1,4
540,3.65933,-0.800,-1,4
541,3.65851,-0.814,-1,4
542,3.65769,-0.823,-1,4
543,3.65686,-0.829,-1,4
544,3.65603,-0.833,-1,4
545,3.65519,-0.841,-1,4
546,3.65434,-0.851,-1,4
547,3.65348,-0.862,-1,4
548,3.65261,-0.870,-1,4
549,3.65174,-0.872,-1,4
550,3.65086,-0.877,-1,4
551,3.64997,-0.886,-1,4
552,3.64907,-0.901,-1,4
553,3.64816,-0.912,-1,4
554,3.64724,-0.918,-1,4
555,3.64632,-0.917,-1,4
556,3.64540,-0.919,-1,4
557,3.64447,-0.934,-1,4
558,3.64352,-0.949,-1,4
559,3.64256,-0.959,-1,4
560,3.64160,-0.959,-1,4
561,3.63968,-0.968,-1,4
562,3.63968,-0.987,-1,4
563,3.63769,-0.999,-1,4
564,3.63769,-0.999,-1,4
565,3.63570,-0.993,-1,4
566,3.63570,-1.003,-1,4
567,3.63367,-1.024,-1,4
568,3.63263,-1.039,-1,4
569,3.63159,-1.038,-1,4
570,3.63056,-1.035,-1,4
571,3.62952,-1.041,-1,4
572,3.62846,-1.059,-1,4
573,3.62739,-1.074,-1,4
574,3.62631,-1.075,-1,4
575,3.62524,-1.073,-1,4
576,3.62416,-1.080,-1,4
577,3.62306,-1.097,-1,4
578,3.62195,-1.109,-1,4
579,3.62084,-1.112,-1,4
580,3.61973,-1.112,-1,4
581,3.61861,-1.116,-1,4
582,3.61748,-1.127,-1,4
583,3.61634,-1.140,-1,4
584,3.61519,-1.152,-1,4
585,3.61403,-1.157,-1,4
586,3.61173,-1.155,-1,4
587,3.61173,-1.170,-1,4
588,3.60937,-1.187,-1,4
589,3.60937,-1.191,-1,4
590,3.60699,-1.190,-1,4
591,3.60699,-1.191,-1,4
592,3.60580,-1.204,-1,4
593,3.60459,-1.217,-1,4
594,3.60215,-1.224,-1,4
595,3.60093,-1.222,-1,4
596,3.59970,-1.232,-1,4
597,3.59846,-1.238,-1,4
598,3.59721,-1.247,-1,4
599,3.59596,-1.252,-1,4
600,3.59470,-1.262,-1,4
601,3.59344,-1.263,-1,4
602,3.59217,-1.271,-1,4
603,3.59088,-1.284,-1,4
604,3.58960,-1.284,-1,4
605,3.58831,-1.291,-1,4
606,3.58702,-1.291,-1,4
607,3.58572,-1.318,-1,4
608,3.58440,-1.318,-1,4
609,3.58308,-1.316,-1,4
610,3.58177,-1.311,-1,4
611,3.58045,-1.322,-1,4
612,3.57777,-1.346,-1,4
613,3.57642,-1.350,-1,4
614,3.57507,-1.347,-1,4
615,3.57372,-1.351,-1,4
616,3.57236,-1.365,-1,4
617,3.57098,-1.377,-1,4
618,3.56960,-1.378,-1,4
619,3.56822,-1.378,-1,4
620,3.56684,-1.386,-1,4
621,3.56544,-1.396,-1,4
622,3.56404,-1.401,-1,4
623,3.56264,-1.406,-1,4
624,3.56122,-1.414,-1,4
625,3.55981,-1.414,-1,4
626,3.55839,-1.420,-1,4
627,3.55696,-1.428,-1,4
628,3.55552,-1.437,-1,4
629,3.55408,-1.444,-1,4
630,3.55263,-1.448,-1,4
631,3.54973,-1.453,-1,4
632,3.54826,-1.467,-1,4
633,3.54679,-1.479,-1,4
634,3.54531,-1.478,-1,4
635,3.54383,-1.474,-1,4
636,3.54235,-1.479,-1,4
637,3.54086,-1.493,-1,4
638,3.53936,-1.505,-1,4
639,3.53784,-1.513,-1,4
640,3.53634,-1.503,-1,4
641,3.53484,-1.504,-1,4
642,3.53332,-1.518,-1,4
643,3.53179,-1.533,-1,4
644,3.53025,-1.536,-1,4
645,3.52871,-1.535,-1,4
646,3.52719,-1.529,-1,4
647,3.52565,-1.539,-1,4
648,3.52409,-1.552,-1,4
649,3.52097,-1.563,-1,4
650,3.52097,-1.555,-1,4
651,3.51786,-1.558,-1,4
652,3.51786,-1.558,-1,4
653,3.51628,-1.587,-1,4
654,3.51470,-1.587,-1,4
655,3.51153,-1.576,-1,4
656,3.51153,-1.577,-1,4
657,3.50836,-1.594,-1,4
658,3.50676,-1.608,-1,4
659,3.50515,-1.609,-1,4
660,3.50355,-1.595,-1,4
661,3.50196,-1.591,-1,4
662,3.50035,-1.612,-1,4
663,3.49872,-1.630,-1,4
664,3.49709,-1.628,-1,4
665,3.49548,-1.612,-1,4
666,3.49387,-1.610,-1,4
667,3.49224,-1.627,-1,4
668,3.49059,-1.651,-1,4
669,3.48894,-1.649,-1,4
670,3.48731,-1.629,-1,4
671,3.48569,-1.625,-1,4
672,3.48404,-1.646,-1,4
673,3.48237,-1.670,-1,4
674,3.48070,-1.669,-1,4
675,3.47906,-1.645,-1,4
676,3.47742,-1.664,-1,4
677,3.47407,-1.686,-1,4
678,3.47238,-1.684,-1,4
679,3.47072,-1.662,-1,4
680,3.46906,-1.660,-1,4
681,3.46738,-1.682,-1,4
682,3.46567,-1.704,-1,4
683,3.46398,-1.697,-1,4
684,3.46229,-1.681,-1,4
685,3.46062,-1.680,-1,4
686,3.45891,-1.704,-1,4
687,3.45719,-1.722,-1,4
688,3.45548,-1.714,-1,4
689,3.45378,-1.696,-1,4
690,3.45208,-1.699,-1,4
691,3.45036,-1.720,-1,4
692,3.44862,-1.739,-1,4
693,3.44689,-1.728,-1,4
694,3.44518,-1.711,-1,4
695,3.44346,-1.718,-1,4
696,3.44173,-1.749,-1,4
697,3.43998,-1.749,-1,4
698,3.43824,-1.742,-1,4
699,3.43650,-1.731,-1,4
700,3.43477,-1.733,-1,4
701,3.43302,-1.752,-1,4
702,3.43126,-1.761,-1,4
703,3.42950,-1.754,-1,4
704,3.42601,-1.751,-1,4
705,3.42425,-1.762,-1,4
706,3.42248,-1.768,-1,4
707,3.42071,-1.764,-1,4
708,3.41895,-1.760,-1,4
709,3.41719,-1.764,-1,4
710,3.41542,-1.769,-1,4
711,3.41365,-1.773,-1,4
712,3.41187,-1.775,-1,4
713,3.41010,-1.772,-1,4
714,3.40833,-1.772,-1,4
715,3.40655,-1.773,-1,4
716,3.40477,-1.781,-1,4
717,3.40299,-1.784,-1,4
718,3.40121,-1.784,-1,4
719,3.39943,-1.776,-1,4
720,3.39765,-1.777,-1,4
721,3.39586,-1.789,-1,4
722,3.39407,-1.794,-1,4
723,3.39228,-1.791,-1,4
724,3.38872,-1.783,-1,4
725,3.38872,-1.796,-1,4
726,3.38512,-1.805,-1,4
727,3.38512,-1.791,-1,4
728,3.38154,-1.785,-1,4
729,3.38154,-1.788,-1,4
730,3.37794,-1.806,-1,4
731,3.37614,-1.806,-1,4
732,3.37434,-1.799,-1,4
733,3.37255,-1.793,-1,4
734,3.37075,-1.801,-1,4
735,3.36893,-1.811,-1,4
736,3.36712,-1.811,-1,4
737,3.36532,-1.807,-1,4
738,3.36351,-1.808,-1,4
739,3.36170,-1.811,-1,4
740,3.35989,-1.811,-1,4
741,3.35807,-1.817,-1,4
742,3.35625,-1.820,-1,4
743,3.35443,-1.824,-1,4
744,3.35261,-1.814,-1,4
745,3.35080,-1.814,-1,4
746,3.34897,-1.829,-1,4
747,3.34713,-1.835,-1,4
748,3.34530,-1.832,-1,4
749,3.34348,-1.822,-1,4
750,3.34166,-1.823,-1,4
751,3.33982,-1.838,-1,4
752,3.33614,-1.840,-1,4
753,3.33614,-1.832,-1,4
754,3.33247,-1.832,-1,4
755,3.33247,-1.843,-1,4
756,3.32878,-1.851,-1,4
757,3.32878,-1.846,-1,4
758,3.32693,-1.842,-1,4
759,3.32509,-1.842,-1,4
760,3.32140,-1.848,-1,4
761,3.31955,-1.852,-1,4
762,3.31769,-1.855,-1,4
763,3.31584,-1.854,-1,4
764,3.31399,-1.847,-1,4
765,3.31214,-1.849,-1,4
766,3.31028,-1.860,-1,4
767,3.30842,-1.863,-1,4
768,3.30656,-1.861,-1,4
769,3.30471,-1.849,-1,4
770,3.30285,-1.852,-1,4
771,3.30099,-1.861,-1,4
772,3.29912,-1.869,-1,4
773,3.29726,-1.861,-1,4
774,3.29541,-1.852,-1,4
775,3.29355,-1.856,-1,4
776,3.29169,-1.867,-1,4
777,3.28982,-1.869,-1,4
778,3.28796,-1.861,-1,4
779,3.28610,-1.857,-1,4
780,3.28424,-1.862,-1,4
781,3.28237,-1.868,-1,4
782,3.28051,-1.865,-1,4
783,3.27864,-1.860,-1,4
784,3.27678,-1.860,-1,4
785,3.27492,-1.864,-1,4
786,3.27306,-1.863,-1,4
787,3.27119,-1.862,-1,4
788,3.26933,-1.860,-1,4
789,3.26747,-1.860,-1,4
790,3.26375,-1.860,-1,4
791,3.26189,-1.861,-1,4
792,3.26003,-1.864,-1,4
793,3.25817,-1.856,-1,4
794,3.25632,-1.855,-1,4
795,3.25445,-1.861,-1,4
796,3.25259,-1.863,-1,4
797,3.25073,-1.858,-1,4
798,3.24888,-1.852,-1,4
799,3.24703,-1.854,-1,4
800,3.24517,-1.861,-1,4
801,3.24331,-1.861,-1,4
802,3.24145,-1.854,-1,4
803,3.23960,-1.853,-1,4
804,3.23774,-1.855,-1,4
805,3.23588,-1.862,-1,4
806,3.23402,-1.859,-1,4
807,3.23216,-1.857,-1,4
808,3.23031,-1.856,-1,4
809,3.22845,-1.860,-1,4
810,3.22659,-1.861,-1,4
811,3.22286,-1.862,-1,4
812,3.22286,-1.863,-1,4
813,3.21914,-1.862,-1,4
814,3.21727,-1.863,-1,4
815,3.21541,-1.867,-1,4
816,3.21354,-1.870,-1,4
817,3.21167,-1.866,-1,4
