cnt,pos,speed,Dir,Force,
1,3.20768,1.417,-1,4
2,3.20911,1.428,-1,4
3,3.21054,1.432,-1,4
4,3.21197,1.433,-1,4
5,3.21341,1.434,-1,4
6,3.21484,1.432,-1,4
7,3.21627,1.433,-1,4
8,3.21771,1.444,-1,4
9,3.21916,1.450,-1,4
10,3.22061,1.448,-1,4
11,3.22206,1.446,-1,4
12,3.22351,1.446,-1,4
13,3.22496,1.460,-1,4
14,3.22642,1.460,-1,4
15,3.22788,1.458,-1,4
16,3.22934,1.458,-1,4
17,3.23079,1.452,-1,4
18,3.23225,1.463,-1,4
19,3.23373,1.471,-1,4
20,3.23667,1.470,-1,4
21,3.23813,1.463,-1,4
22,3.23959,1.461,-1,4
23,3.24107,1.476,-1,4
24,3.24255,1.486,-1,4
25,3.24403,1.474,-1,4
26,3.24550,1.468,-1,4
27,3.24697,1.470,-1,4
28,3.24844,1.475,-1,4
29,3.24993,1.490,-1,4
30,3.25142,1.487,-1,4
31,3.25289,1.476,-1,4
32,3.25436,1.469,-1,4
33,3.25584,1.479,-1,4
34,3.25733,1.491,-1,4
35,3.25882,1.491,-1,4
36,3.26031,1.483,-1,4
37,3.26178,1.476,-1,4
38,3.26326,1.478,-1,4
39,3.26475,1.487,-1,4
40,3.26624,1.486,-1,4
41,3.26773,1.486,-1,4
42,3.26921,1.480,-1,4
43,3.27069,1.480,-1,4
44,3.27218,1.486,-1,4
45,3.27367,1.494,-1,4
46,3.27516,1.493,-1,4
47,3.27664,1.483,-1,4
48,3.27812,1.479,-1,4
49,3.27961,1.490,-1,4
50,3.28111,1.497,-1,4
51,3.28261,1.489,-1,4
52,3.28409,1.489,-1,4
53,3.28558,1.482,-1,4
54,3.28706,1.485,-1,4
55,3.28856,1.499,-1,4
56,3.29007,1.504,-1,4
57,3.29156,1.494,-1,4
58,3.29304,1.484,-1,4
59,3.29453,1.494,-1,4
60,3.29602,1.494,-1,4
61,3.29903,1.505,-1,4
62,3.29903,1.491,-1,4
63,3.30052,1.479,-1,4
64,3.30200,1.479,-1,4
65,3.30350,1.495,-1,4
66,3.30501,1.507,-1,4
67,3.30801,1.501,-1,4
68,3.30950,1.487,-1,4
69,3.31099,1.486,-1,4
70,3.31249,1.503,-1,4
71,3.31401,1.517,-1,4
72,3.31551,1.507,-1,4
73,3.31701,1.492,-1,4
74,3.31849,1.485,-1,4
75,3.31999,1.493,-1,4
76,3.32150,1.513,-1,4
77,3.32301,1.513,-1,4
78,3.32451,1.497,-1,4
79,3.32599,1.485,-1,4
80,3.32748,1.492,-1,4
81,3.32899,1.508,-1,4
82,3.33051,1.515,-1,4
83,3.33201,1.504,-1,4
84,3.33349,1.482,-1,4
85,3.33498,1.489,-1,4
86,3.33649,1.516,-1,4
87,3.33951,1.505,-1,4
88,3.34100,1.490,-1,4
89,3.34249,1.485,-1,4
90,3.34399,1.499,-1,4
91,3.34551,1.522,-1,4
92,3.34702,1.511,-1,4
93,3.34851,1.493,-1,4
94,3.34999,1.481,-1,4
95,3.35149,1.498,-1,4
96,3.35301,1.517,-1,4
97,3.35453,1.521,-1,4
98,3.35603,1.503,-1,4
99,3.35751,1.480,-1,4
100,3.35900,1.490,-1,4
101,3.36052,1.514,-1,4
102,3.36204,1.526,-1,4
103,3.36355,1.512,-1,4
104,3.36504,1.490,-1,4
105,3.36804,1.508,-1,4
106,3.36804,1.508,-1,4
107,3.36957,1.520,-1,4
108,3.37109,1.496,-1,4
109,3.37259,1.496,-1,4
110,3.37407,1.509,-1,4
111,3.37558,1.509,-1,4
112,3.37864,1.528,-1,4
113,3.38014,1.501,-1,4
114,3.38163,1.489,-1,4
115,3.38314,1.508,-1,4
116,3.38467,1.532,-1,4
117,3.38620,1.530,-1,4
118,3.38771,1.509,-1,4
119,3.38920,1.492,-1,4
120,3.39070,1.506,-1,4
121,3.39224,1.535,-1,4
122,3.39378,1.540,-1,4
123,3.39529,1.514,-1,4
124,3.39679,1.493,-1,4
125,3.39829,1.504,-1,4
126,3.39982,1.530,-1,4
127,3.40137,1.545,-1,4
128,3.40289,1.529,-1,4
129,3.40439,1.497,-1,4
130,3.40589,1.498,-1,4
131,3.40742,1.527,-1,4
132,3.40896,1.545,-1,4
133,3.41050,1.511,-1,4
134,3.41350,1.497,-1,4
135,3.41350,1.517,-1,4
136,3.41656,1.544,-1,4
137,3.41656,1.541,-1,4
138,3.41811,1.517,-1,4
139,3.41962,1.517,-1,4
140,3.42264,1.514,-1,4
141,3.42264,1.536,-1,4
142,3.42572,1.543,-1,4
143,3.42725,1.526,-1,4
144,3.42875,1.504,-1,4
145,3.43027,1.518,-1,4
146,3.43180,1.536,-1,4
147,3.43335,1.543,-1,4
148,3.43487,1.525,-1,4
149,3.43638,1.510,-1,4
150,3.43790,1.515,-1,4
151,3.43944,1.543,-1,4
152,3.44098,1.545,-1,4
153,3.44251,1.521,-1,4
154,3.44401,1.507,-1,4
155,3.44553,1.521,-1,4
156,3.44708,1.545,-1,4
157,3.44863,1.547,-1,4
158,3.45015,1.526,-1,4
159,3.45166,1.504,-1,4
160,3.45318,1.524,-1,4
161,3.45628,1.550,-1,4
162,3.45780,1.523,-1,4
163,3.45931,1.511,-1,4
164,3.46084,1.526,-1,4
165,3.46239,1.550,-1,4
166,3.46394,1.550,-1,4
167,3.46546,1.522,-1,4
168,3.46697,1.513,-1,4
169,3.46851,1.531,-1,4
170,3.47006,1.552,-1,4
171,3.47160,1.548,-1,4
172,3.47313,1.525,-1,4
173,3.47465,1.516,-1,4
174,3.47618,1.532,-1,4
175,3.47773,1.555,-1,4
176,3.47928,1.547,-1,4
177,3.48081,1.527,-1,4
178,3.48232,1.517,-1,4
179,3.48386,1.552,-1,4
180,3.48696,1.550,-1,4
181,3.48849,1.530,-1,4
182,3.49001,1.518,-1,4
183,3.49154,1.532,-1,4
184,3.49309,1.550,-1,4
185,3.49464,1.552,-1,4
186,3.49618,1.533,-1,4
187,3.49770,1.521,-1,4
188,3.49922,1.527,-1,4
189,3.50077,1.551,-1,4
190,3.50233,1.554,-1,4
191,3.50386,1.533,-1,4
192,3.50539,1.524,-1,4
193,3.50692,1.530,-1,4
194,3.50847,1.549,-1,4
195,3.51002,1.554,-1,4
196,3.51156,1.540,-1,4
197,3.51308,1.525,-1,4
198,3.51461,1.529,-1,4
199,3.51616,1.551,-1,4
200,3.51772,1.555,-1,4
201,3.51926,1.543,-1,4
202,3.52079,1.527,-1,4
203,3.52232,1.528,-1,4
204,3.52387,1.550,-1,4
205,3.52543,1.559,-1,4
206,3.52697,1.544,-1,4
207,3.52850,1.525,-1,4
208,3.53003,1.548,-1,4
209,3.53157,1.548,-1,4
210,3.53468,1.551,-1,4
211,3.53468,1.527,-1,4
212,3.53621,1.527,-1,4
213,3.53774,1.527,-1,4
214,3.54084,1.556,-1,4
215,3.54239,1.550,-1,4
216,3.54392,1.532,-1,4
217,3.54545,1.528,-1,4
218,3.54699,1.539,-1,4
219,3.54854,1.553,-1,4
220,3.55009,1.547,-1,4
221,3.55162,1.530,-1,4
222,3.55315,1.531,-1,4
223,3.55468,1.533,-1,4
224,3.55623,1.547,-1,4
225,3.55777,1.544,-1,4
226,3.55930,1.532,-1,4
227,3.56083,1.525,-1,4
228,3.56236,1.533,-1,4
229,3.56390,1.541,-1,4
230,3.56544,1.536,-1,4
231,3.56697,1.532,-1,4
232,3.56849,1.521,-1,4
233,3.57002,1.527,-1,4
234,3.57156,1.538,-1,4
235,3.57309,1.538,-1,4
236,3.57461,1.514,-1,4
237,3.57613,1.514,-1,4
238,3.57918,1.531,-1,4
239,3.57918,1.532,-1,4
240,3.58223,1.517,-1,4
241,3.58223,1.504,-1,4
242,3.58525,1.514,-1,4
243,3.58678,1.527,-1,4
244,3.58830,1.522,-1,4
245,3.58981,1.511,-1,4
246,3.59131,1.504,-1,4
247,3.59282,1.506,-1,4
248,3.59433,1.517,-1,4
249,3.59585,1.519,-1,4
250,3.59736,1.506,-1,4
251,3.59885,1.494,-1,4
252,3.60035,1.501,-1,4
253,3.60186,1.509,-1,4
254,3.60487,1.500,-1,4
255,3.60487,1.500,-1,4
256,3.60636,1.492,-1,4
257,3.60785,1.492,-1,4
258,3.60935,1.502,-1,4
259,3.61085,1.502,-1,4
260,3.61234,1.483,-1,4
261,3.61382,1.483,-1,4
262,3.61680,1.488,-1,4
263,3.61829,1.496,-1,4
264,3.61978,1.488,-1,4
265,3.62125,1.473,-1,4
266,3.62273,1.473,-1,4
267,3.62421,1.485,-1,4
268,3.62570,1.485,-1,4
269,3.62718,1.480,-1,4
270,3.62864,1.468,-1,4
271,3.63011,1.465,-1,4
272,3.63158,1.472,-1,4
273,3.63306,1.477,-1,4
274,3.63453,1.469,-1,4
275,3.63599,1.458,-1,4
276,3.63744,1.459,-1,4
277,3.63891,1.465,-1,4
278,3.64037,1.463,-1,4
279,3.64183,1.455,-1,4
280,3.64328,1.449,-1,4
281,3.64618,1.455,-1,4
282,3.64764,1.454,-1,4
283,3.64764,1.443,-1,4
284,3.64908,1.443,-1,4
285,3.65051,1.443,-1,4
286,3.65196,1.443,-1,4
287,3.65340,1.444,-1,4
288,3.65484,1.438,-1,4
289,3.65627,1.432,-1,4
290,3.65770,1.428,-1,4
291,3.66056,1.429,-1,4
292,3.66198,1.426,-1,4
293,3.66340,1.416,-1,4
294,3.66481,1.412,-1,4
295,3.66623,1.420,-1,4
296,3.66765,1.417,-1,4
297,3.66905,1.407,-1,4
298,3.67045,1.402,-1,4
299,3.67185,1.399,-1,4
300,3.67326,1.404,-1,4
301,3.67466,1.406,-1,4
302,3.67606,1.399,-1,4
303,3.67745,1.385,-1,4
304,3.67883,1.381,-1,4
305,3.68021,1.387,-1,4
306,3.68161,1.391,-1,4
307,3.68299,1.385,-1,4
308,3.68437,1.376,-1,4
309,3.68573,1.368,-1,4
310,3.68710,1.367,-1,4
311,3.68847,1.373,-1,4
312,3.68985,1.375,-1,4
313,3.69121,1.362,-1,4
314,3.69256,1.352,-1,4
315,3.69392,1.355,-1,4
316,3.69527,1.356,-1,4
317,3.69662,1.350,-1,4
318,3.69797,1.343,-1,4
319,3.69931,1.341,-1,4
320,3.70065,1.341,-1,4
321,3.70332,1.332,-1,4
322,3.70332,1.327,-1,4
323,3.70465,1.323,-1,4
324,3.70730,1.328,-1,4
325,3.70730,1.328,-1,4
326,3.70994,1.312,-1,4
327,3.71124,1.303,-1,4
328,3.71255,1.312,-1,4
329,3.71387,1.318,-1,4
330,3.71518,1.304,-1,4
331,3.71647,1.292,-1,4
332,3.71776,1.291,-1,4
333,3.71905,1.293,-1,4
334,3.72034,1.292,-1,4
335,3.72164,1.292,-1,4
336,3.72292,1.283,-1,4
337,3.72419,1.270,-1,4
338,3.72546,1.273,-1,4
339,3.72674,1.276,-1,4
340,3.72801,1.273,-1,4
341,3.72927,1.262,-1,4
342,3.73053,1.258,-1,4
343,3.73179,1.262,-1,4
344,3.73305,1.256,-1,4
345,3.73430,1.248,-1,4
346,3.73554,1.244,-1,4
347,3.73804,1.245,-1,4
348,3.73927,1.235,-1,4
349,3.74050,1.227,-1,4
350,3.74173,1.232,-1,4
351,3.74296,1.227,-1,4
352,3.74418,1.224,-1,4
353,3.74540,1.220,-1,4
354,3.74662,1.217,-1,4
355,3.74783,1.211,-1,4
356,3.74903,1.204,-1,4
357,3.75024,1.207,-1,4
358,3.75144,1.202,-1,4
359,3.75263,1.193,-1,4
360,3.75383,1.193,-1,4
361,3.75502,1.193,-1,4
362,3.75621,1.186,-1,4
363,3.75738,1.176,-1,4
364,3.75973,1.177,-1,4
365,3.76091,1.175,-1,4
366,3.76207,1.165,-1,4
367,3.76323,1.156,-1,4
368,3.76439,1.157,-1,4
369,3.76554,1.154,-1,4
370,3.76669,1.146,-1,4
371,3.76783,1.140,-1,4
372,3.76897,1.143,-1,4
373,3.77011,1.140,-1,4
374,3.77124,1.129,-1,4
375,3.77236,1.119,-1,4
376,3.77348,1.119,-1,4
377,3.77460,1.119,-1,4
378,3.77571,1.112,-1,4
379,3.77681,1.104,-1,4
380,3.77791,1.102,-1,4
381,3.77901,1.098,-1,4
382,3.78010,1.087,-1,4
383,3.78118,1.079,-1,4
384,3.78226,1.083,-1,4
385,3.78441,1.073,-1,4
386,3.78441,1.060,-1,4
387,3.78547,1.054,-1,4
388,3.78653,1.054,-1,4
389,3.78759,1.056,-1,4
390,3.78864,1.056,-1,4
391,3.78968,1.032,-1,4
392,3.79072,1.033,-1,4
393,3.79279,1.036,-1,4
394,3.79381,1.027,-1,4
395,3.79482,1.012,-1,4
396,3.79583,1.004,-1,4
397,3.79684,1.008,-1,4
398,3.79785,1.010,-1,4
399,3.79884,0.997,-1,4
400,3.79983,0.981,-1,4
401,3.80081,0.980,-1,4
402,3.80179,0.984,-1,4
403,3.80277,0.980,-1,4
404,3.80373,0.959,-1,4
405,3.80468,0.948,-1,4
406,3.80563,0.952,-1,4
407,3.80659,0.960,-1,4
408,3.80754,0.948,-1,4
409,3.80846,0.927,-1,4
410,3.80938,0.918,-1,4
411,3.81030,0.923,-1,4
412,3.81123,0.925,-1,4
413,3.81304,0.892,-1,4
414,3.81304,0.884,-1,4
415,3.81481,0.893,-1,4
416,3.81481,0.897,-1,4
417,3.81659,0.882,-1,4
418,3.81659,0.861,-1,4
419,3.81830,0.849,-1,4
420,3.81830,0.854,-1,4
421,3.82002,0.859,-1,4
422,3.82087,0.849,-1,4
423,3.82169,0.828,-1,4
424,3.82251,0.815,-1,4
425,3.82333,0.819,-1,4
426,3.82415,0.826,-1,4
427,3.82497,0.817,-1,4
428,3.82577,0.797,-1,4
429,3.82654,0.778,-1,4
430,3.82732,0.774,-1,4
431,3.82810,0.780,-1,4
432,3.82888,0.780,-1,4
433,3.82964,0.766,-1,4
434,3.83039,0.747,-1,4
435,3.83113,0.737,-1,4
436,3.83186,0.737,-1,4
437,3.83260,0.738,-1,4
438,3.83333,0.726,-1,4
439,3.83404,0.711,-1,4
440,3.83474,0.695,-1,4
441,3.83613,0.695,-1,4
442,3.83681,0.687,-1,4
443,3.83749,0.674,-1,4
444,3.83749,0.663,-1,4
445,3.83815,0.657,-1,4
446,3.83881,0.657,-1,4
447,3.84011,0.646,-1,4
448,3.84074,0.633,-1,4
449,3.84137,0.622,-1,4
450,3.84198,0.618,-1,4
451,3.84260,0.614,-1,4
452,3.84321,0.608,-1,4
453,3.84380,0.597,-1,4
454,3.84439,0.584,-1,4
455,3.84496,0.577,-1,4
456,3.84554,0.574,-1,4
457,3.84610,0.567,-1,4
458,3.84666,0.557,-1,4
459,3.84721,0.545,-1,4
460,3.84774,0.538,-1,4
461,3.84828,0.532,-1,4
462,3.84880,0.527,-1,4
463,3.84932,0.516,-1,4
464,3.84982,0.504,-1,4
465,3.85032,0.494,-1,4
466,3.85081,0.487,-1,4
467,3.85129,0.481,-1,4
468,3.85176,0.475,-1,4
469,3.85268,0.453,-1,4
470,3.85312,0.444,-1,4
471,3.85356,0.440,-1,4
472,3.85399,0.431,-1,4
473,3.85442,0.423,-1,4
474,3.85483,0.409,-1,4
475,3.85523,0.402,-1,4
476,3.85562,0.392,-1,4
477,3.85601,0.389,-1,4
478,3.85639,0.378,-1,4
479,3.85675,0.366,-1,4
480,3.85711,0.355,-1,4
481,3.85746,0.346,-1,4
482,3.85779,0.338,-1,4
483,3.85812,0.330,-1,4
484,3.85845,0.322,-1,4
485,3.85876,0.309,-1,4
486,3.85905,0.299,-1,4
487,3.85934,0.290,-1,4
488,3.85990,0.273,-1,4
489,3.86016,0.260,-1,4
490,3.86041,0.249,-1,4
491,3.86041,0.240,-1,4
492,3.86065,0.231,-1,4
493,3.86088,0.231,-1,4
494,3.86110,0.224,-1,4
495,3.86132,0.212,-1,4
496,3.86171,0.190,-1,4
497,3.86189,0.182,-1,4
498,3.86206,0.174,-1,4
499,3.86223,0.164,-1,4
500,3.86238,0.153,-1,4
501,3.86252,0.142,-1,4
502,3.86266,0.135,-1,4
503,3.86278,0.125,-1,4
504,3.86290,0.116,-1,4
505,3.86300,0.105,-1,4
506,3.86310,0.094,-1,4
507,3.86318,0.086,-1,4
508,3.86326,0.077,-1,4
509,3.86332,0.066,-1,4
510,3.86338,0.056,-1,4
511,3.86343,0.046,-1,4
512,3.86346,0.035,-1,4
513,3.86349,0.025,-1,4
514,3.86350,0.016,-1,4
515,3.86351,0.006,-1,4
516,3.86350,-0.005,-1,4
517,3.86347,-0.023,-1,4
518,3.86347,-0.031,-1,4
519,3.86340,-0.039,-1,4
520,3.86340,-0.048,-1,4
521,3.86329,-0.055,-1,4
522,3.86329,-0.064,-1,4
523,3.86316,-0.073,-1,4
524,3.86316,-0.082,-1,4
525,3.86299,-0.086,-1,4
526,3.86289,-0.097,-1,4
527,3.86279,-0.106,-1,4
528,3.86267,-0.112,-1,4
529,3.86255,-0.122,-1,4
530,3.86242,-0.127,-1,4
531,3.86229,-0.136,-1,4
532,3.86214,-0.143,-1,4
533,3.86199,-0.154,-1,4
534,3.86183,-0.160,-1,4
535,3.86166,-0.170,-1,4
536,3.86148,-0.178,-1,4
537,3.86130,-0.185,-1,4
538,3.86110,-0.195,-1,4
539,3.86090,-0.204,-1,4
540,3.86069,-0.212,-1,4
541,3.86047,-0.220,-1,4
542,3.86024,-0.230,-1,4
543,3.86000,-0.239,-1,4
544,3.85975,-0.257,-1,4
545,3.85923,-0.266,-1,4
546,3.85895,-0.274,-1,4
547,3.85867,-0.282,-1,4
548,3.85838,-0.290,-1,4
549,3.85808,-0.299,-1,4
550,3.85778,-0.307,-1,4
551,3.85746,-0.316,-1,4
552,3.85714,-0.325,-1,4
553,3.85680,-0.332,-1,4
554,3.85646,-0.341,-1,4
555,3.85612,-0.347,-1,4
556,3.85576,-0.358,-1,4
557,3.85539,-0.366,-1,4
558,3.85502,-0.373,-1,4
559,3.85464,-0.381,-1,4
560,3.85425,-0.389,-1,4
561,3.85385,-0.395,-1,4
562,3.85345,-0.406,-1,4
563,3.85304,-0.410,-1,4
564,3.85262,-0.427,-1,4
565,3.85219,-0.427,-1,4
566,3.85175,-0.443,-1,4
567,3.85131,-0.452,-1,4
568,3.85086,-0.461,-1,4
569,3.85040,-0.461,-1,4
570,3.84993,-0.474,-1,4
571,3.84946,-0.482,-1,4
572,3.84848,-0.490,-1,4
573,3.84799,-0.499,-1,4
574,3.84748,-0.509,-1,4
575,3.84696,-0.516,-1,4
576,3.84644,-0.524,-1,4
577,3.84591,-0.531,-1,4
578,3.84537,-0.539,-1,4
579,3.84482,-0.547,-1,4
580,3.84427,-0.553,-1,4
581,3.84371,-0.560,-1,4
582,3.84314,-0.567,-1,4
583,3.84256,-0.576,-1,4
584,3.84198,-0.585,-1,4
585,3.84138,-0.596,-1,4
586,3.84078,-0.603,-1,4
587,3.84017,-0.610,-1,4
588,3.83956,-0.613,-1,4
589,3.83894,-0.620,-1,4
590,3.83831,-0.631,-1,4
591,3.83766,-0.642,-1,4
592,3.83636,-0.659,-1,4
593,3.83569,-0.666,-1,4
594,3.83502,-0.671,-1,4
595,3.83502,-0.679,-1,4
596,3.83365,-0.685,-1,4
597,3.83365,-0.696,-1,4
598,3.83296,-0.705,-1,4
599,3.83225,-0.714,-1,4
600,3.83082,-0.721,-1,4
601,3.83009,-0.729,-1,4
602,3.82935,-0.738,-1,4
603,3.82860,-0.748,-1,4
604,3.82785,-0.755,-1,4
605,3.82709,-0.761,-1,4
606,3.82632,-0.768,-1,4
607,3.82554,-0.776,-1,4
608,3.82476,-0.782,-1,4
609,3.82397,-0.794,-1,4
610,3.82316,-0.806,-1,4
611,3.82235,-0.816,-1,4
612,3.82153,-0.823,-1,4
613,3.82070,-0.823,-1,4
614,3.81987,-0.841,-1,4
615,3.81903,-0.841,-1,4
616,3.81818,-0.853,-1,4
617,3.81732,-0.861,-1,4
618,3.81645,-0.866,-1,4
619,3.81558,-0.869,-1,4
620,3.81381,-0.893,-1,4
621,3.81291,-0.905,-1,4
622,3.81200,-0.909,-1,4
623,3.81109,-0.908,-1,4
624,3.81018,-0.913,-1,4
625,3.80925,-0.928,-1,4
626,3.80831,-0.941,-1,4
627,3.80736,-0.954,-1,4
628,3.80640,-0.952,-1,4
629,3.80545,-0.953,-1,4
630,3.80449,-0.963,-1,4
631,3.80351,-0.981,-1,4
632,3.80251,-0.993,-1,4
633,3.80152,-0.996,-1,4
634,3.80053,-0.990,-1,4
635,3.79953,-1.001,-1,4
636,3.79851,-1.021,-1,4
637,3.79747,-1.034,-1,4
638,3.79644,-1.036,-1,4
639,3.79540,-1.033,-1,4
640,3.79436,-1.057,-1,4
641,3.79330,-1.057,-1,4
642,3.79223,-1.076,-1,4
643,3.79116,-1.076,-1,4
644,3.79008,-1.084,-1,4
645,3.78900,-1.084,-1,4
646,3.78679,-1.109,-1,4
647,3.78568,-1.113,-1,4
648,3.78456,-1.118,-1,4
649,3.78343,-1.126,-1,4
650,3.78229,-1.138,-1,4
651,3.78115,-1.147,-1,4
652,3.77999,-1.157,-1,4
653,3.77883,-1.158,-1,4
654,3.77767,-1.162,-1,4
655,3.77650,-1.171,-1,4
656,3.77531,-1.188,-1,4
657,3.77411,-1.202,-1,4
658,3.77290,-1.204,-1,4
659,3.77170,-1.202,-1,4
660,3.77050,-1.206,-1,4
661,3.76927,-1.224,-1,4
662,3.76803,-1.238,-1,4
663,3.76679,-1.245,-1,4
664,3.76554,-1.245,-1,4
665,3.76430,-1.249,-1,4
666,3.76304,-1.256,-1,4
667,3.76177,-1.269,-1,4
668,3.75920,-1.288,-1,4
669,3.75792,-1.287,-1,4
670,3.75663,-1.290,-1,4
671,3.75663,-1.290,-1,4
672,3.75401,-1.315,-1,4
673,3.75401,-1.319,-1,4
674,3.75269,-1.324,-1,4
675,3.75136,-1.324,-1,4
676,3.74870,-1.338,-1,4
677,3.74735,-1.344,-1,4
678,3.74600,-1.354,-1,4
679,3.74464,-1.358,-1,4
680,3.74328,-1.364,-1,4
681,3.74190,-1.373,-1,4
682,3.74052,-1.379,-1,4
683,3.73914,-1.380,-1,4
684,3.73776,-1.385,-1,4
685,3.73636,-1.399,-1,4
686,3.73495,-1.408,-1,4
687,3.73354,-1.409,-1,4
688,3.73213,-1.411,-1,4
689,3.73072,-1.412,-1,4
690,3.72930,-1.422,-1,4
691,3.72786,-1.435,-1,4
692,3.72642,-1.445,-1,4
693,3.72498,-1.441,-1,4
694,3.72354,-1.438,-1,4
695,3.72209,-1.448,-1,4
696,3.72063,-1.461,-1,4
697,3.71768,-1.476,-1,4
698,3.71621,-1.469,-1,4
699,3.71474,-1.469,-1,4
700,3.71326,-1.486,-1,4
701,3.71175,-1.504,-1,4
702,3.71025,-1.504,-1,4
703,3.70875,-1.500,-1,4
704,3.70725,-1.497,-1,4
705,3.70574,-1.509,-1,4
706,3.70422,-1.526,-1,4
707,3.70268,-1.536,-1,4
708,3.70116,-1.526,-1,4
709,3.69963,-1.524,-1,4
710,3.69810,-1.533,-1,4
711,3.69654,-1.554,-1,4
712,3.69498,-1.564,-1,4
713,3.69342,-1.557,-1,4
714,3.69187,-1.550,-1,4
715,3.69032,-1.556,-1,4
716,3.68714,-1.594,-1,4
717,3.68555,-1.590,-1,4
718,3.68398,-1.578,-1,4
719,3.68240,-1.580,-1,4
720,3.68079,-1.601,-1,4
721,3.67917,-1.621,-1,4
722,3.67755,-1.621,-1,4
723,3.67594,-1.611,-1,4
724,3.67433,-1.607,-1,4
725,3.67271,-1.621,-1,4
726,3.67107,-1.644,-1,4
727,3.66941,-1.656,-1,4
728,3.66777,-1.646,-1,4
729,3.66613,-1.637,-1,4
730,3.66448,-1.646,-1,4
731,3.66282,-1.666,-1,4
732,3.66113,-1.684,-1,4
733,3.65946,-1.679,-1,4
734,3.65779,-1.666,-1,4
735,3.65443,-1.689,-1,4
736,3.65443,-1.708,-1,4
737,3.65101,-1.708,-1,4
738,3.65101,-1.696,-1,4
739,3.64932,-1.695,-1,4
740,3.64762,-1.710,-1,4
741,3.64591,-1.726,-1,4
742,3.64419,-1.726,-1,4
743,3.64073,-1.724,-1,4
744,3.63901,-1.720,-1,4
745,3.63728,-1.733,-1,4
746,3.63553,-1.746,-1,4
747,3.63378,-1.752,-1,4
748,3.63203,-1.753,-1,4
749,3.63028,-1.745,-1,4
750,3.62853,-1.752,-1,4
751,3.62676,-1.767,-1,4
752,3.62499,-1.773,-1,4
753,3.62322,-1.773,-1,4
754,3.62145,-1.772,-1,4
755,3.61967,-1.773,-1,4
756,3.61789,-1.785,-1,4
757,3.61610,-1.788,-1,4
758,3.61430,-1.797,-1,4
759,3.61251,-1.793,-1,4
760,3.61072,-1.795,-1,4
761,3.60892,-1.797,-1,4
762,3.60711,-1.808,-1,4
763,3.60348,-1.814,-1,4
764,3.60348,-1.811,-1,4
765,3.59986,-1.815,-1,4
766,3.59986,-1.826,-1,4
767,3.59620,-1.828,-1,4
768,3.59620,-1.828,-1,4
769,3.59255,-1.827,-1,4
770,3.59255,-1.834,-1,4
771,3.58887,-1.839,-1,4
772,3.58704,-1.837,-1,4
773,3.58520,-1.840,-1,4
774,3.58335,-1.846,-1,4
775,3.58150,-1.847,-1,4
776,3.57966,-1.846,-1,4
777,3.57781,-1.847,-1,4
778,3.57595,-1.857,-1,4
779,3.57409,-1.860,-1,4
780,3.57224,-1.855,-1,4
781,3.57038,-1.856,-1,4
782,3.56852,-1.860,-1,4
783,3.56665,-1.872,-1,4
784,3.56478,-1.869,-1,4
785,3.56292,-1.863,-1,4
786,3.56105,-1.867,-1,4
787,3.55918,-1.876,-1,4
788,3.55730,-1.879,-1,4
789,3.55542,-1.875,-1,4
790,3.55354,-1.883,-1,4
791,3.54978,-1.884,-1,4
792,3.54789,-1.885,-1,4
793,3.54600,-1.890,-1,4
794,3.54411,-1.893,-1,4
795,3.54222,-1.893,-1,4
796,3.54033,-1.889,-1,4
797,3.53843,-1.900,-1,4
798,3.53652,-1.908,-1,4
799,3.53462,-1.904,-1,4
800,3.53272,-1.896,-1,4
801,3.53082,-1.901,-1,4
802,3.52890,-1.919,-1,4
803,3.52698,-1.919,-1,4
804,3.52507,-1.907,-1,4
805,3.52317,-1.905,-1,4
806,3.52125,-1.921,-1,4
807,3.51931,-1.933,-1,4
808,3.51739,-1.923,-1,4
809,3.51548,-1.912,-1,4
810,3.51162,-1.935,-1,4
811,3.51162,-1.936,-1,4
812,3.50776,-1.926,-1,4
813,3.50776,-1.929,-1,4
814,3.50583,-1.937,-1,4
815,3.50389,-1.937,-1,4
816,3.50195,-1.937,-1,4
817,3.50002,-1.939,-1,4
818,3.49614,-1.942,-1,4
819,3.49419,-1.942,-1,4
820,3.49225,-1.940,-1,4
821,3.49031,-1.947,-1,4
822,3.48836,-1.950,-1,4
823,3.48641,-1.946,-1,4
824,3.48447,-1.942,-1,4
825,3.48252,-1.950,-1,4
826,3.48056,-1.958,-1,4
827,3.47861,-1.952,-1,4
828,3.47666,-1.947,-1,4
829,3.47471,-1.949,-1,4
830,3.47275,-1.959,-1,4
831,3.47080,-1.959,-1,4
832,3.46884,-1.953,-1,4
833,3.46689,-1.953,-1,4
834,3.46493,-1.960,-1,4
835,3.46297,-1.960,-1,4
836,3.45906,-1.956,-1,4
837,3.45710,-1.961,-1,4
838,3.45514,-1.960,-1,4
839,3.45318,-1.960,-1,4
840,3.45122,-1.959,-1,4
841,3.44926,-1.963,-1,4
842,3.44729,-1.963,-1,4
843,3.44534,-1.956,-1,4
844,3.44338,-1.961,-1,4
845,3.44141,-1.965,-1,4
846,3.43945,-1.966,-1,4
847,3.43749,-1.957,-1,4
848,3.43553,-1.957,-1,4
849,3.43357,-1.966,-1,4
850,3.43160,-1.968,-1,4
851,3.42964,-1.961,-1,4
852,3.42768,-1.955,-1,4
853,3.42572,-1.961,-1,4
854,3.42376,-1.966,-1,4
855,3.42179,-1.964,-1,4
856,3.41983,-1.958,-1,4
857,3.41788,-1.961,-1,4
858,3.41395,-1.962,-1,4
