cnt,pos,speed,Dir,Force,
1,3.21986,1.901,-1,4
2,3.21986,1.908,-1,4
3,3.22177,1.909,-1,4
4,3.22368,1.909,-1,4
5,3.22557,1.884,-1,4
6,3.22746,1.888,-1,4
7,3.23123,1.888,-1,4
8,3.23312,1.884,-1,4
9,3.23499,1.875,-1,4
10,3.23686,1.869,-1,4
11,3.23873,1.865,-1,4
12,3.24059,1.863,-1,4
13,3.24245,1.864,-1,4
14,3.24431,1.858,-1,4
15,3.24616,1.848,-1,4
16,3.24800,1.839,-1,4
17,3.24984,1.840,-1,4
18,3.25168,1.847,-1,4
19,3.25352,1.841,-1,4
20,3.25535,1.821,-1,4
21,3.25716,1.816,-1,4
22,3.25898,1.817,-1,4
23,3.26081,1.827,-1,4
24,3.26262,1.816,-1,4
25,3.26442,1.799,-1,4
26,3.26621,1.793,-1,4
27,3.26981,1.801,-1,4
28,3.27160,1.791,-1,4
29,3.27338,1.774,-1,4
30,3.27515,1.772,-1,4
31,3.27692,1.775,-1,4
32,3.27870,1.778,-1,4
33,3.28047,1.766,-1,4
34,3.28222,1.756,-1,4
35,3.28398,1.753,-1,4
36,3.28573,1.750,-1,4
37,3.28748,1.752,-1,4
38,3.28923,1.748,-1,4
39,3.29097,1.740,-1,4
40,3.29270,1.732,-1,4
41,3.29443,1.729,-1,4
42,3.29616,1.727,-1,4
43,3.29789,1.732,-1,4
44,3.29962,1.729,-1,4
45,3.30133,1.713,-1,4
46,3.30303,1.704,-1,4
47,3.30474,1.710,-1,4
48,3.30646,1.717,-1,4
49,3.30818,1.699,-1,4
50,3.30987,1.686,-1,4
51,3.31156,1.686,-1,4
52,3.31325,1.691,-1,4
53,3.31495,1.702,-1,4
54,3.31665,1.685,-1,4
55,3.32001,1.669,-1,4
56,3.32168,1.673,-1,4
57,3.32337,1.685,-1,4
58,3.32505,1.682,-1,4
59,3.32672,1.671,-1,4
60,3.32838,1.657,-1,4
61,3.33003,1.658,-1,4
62,3.33170,1.665,-1,4
63,3.33336,1.663,-1,4
64,3.33502,1.654,-1,4
65,3.33666,1.648,-1,4
66,3.33831,1.645,-1,4
67,3.33995,1.645,-1,4
68,3.34160,1.644,-1,4
69,3.34323,1.636,-1,4
70,3.34487,1.635,-1,4
71,3.34650,1.634,-1,4
72,3.34813,1.627,-1,4
73,3.34975,1.622,-1,4
74,3.35137,1.618,-1,4
75,3.35299,1.624,-1,4
76,3.35623,1.615,-1,4
77,3.35783,1.597,-1,4
78,3.35942,1.598,-1,4
79,3.36103,1.610,-1,4
80,3.36264,1.611,-1,4
81,3.36424,1.599,-1,4
82,3.36583,1.583,-1,4
83,3.36741,1.580,-1,4
84,3.36900,1.594,-1,4
85,3.37060,1.597,-1,4
86,3.37218,1.583,-1,4
87,3.37375,1.570,-1,4
88,3.37532,1.568,-1,4
89,3.37689,1.576,-1,4
90,3.37847,1.581,-1,4
91,3.38004,1.567,-1,4
92,3.38159,1.551,-1,4
93,3.38315,1.554,-1,4
94,3.38471,1.566,-1,4
95,3.38628,1.564,-1,4
96,3.38783,1.551,-1,4
97,3.38936,1.535,-1,4
98,3.39090,1.537,-1,4
99,3.39246,1.557,-1,4
100,3.39401,1.554,-1,4
101,3.39554,1.533,-1,4
102,3.39706,1.518,-1,4
103,3.39858,1.523,-1,4
104,3.40167,1.543,-1,4
105,3.40167,1.525,-1,4
106,3.40319,1.501,-1,4
107,3.40469,1.501,-1,4
108,3.40772,1.523,-1,4
109,3.40925,1.527,-1,4
110,3.40925,1.513,-1,4
111,3.41225,1.493,-1,4
112,3.41374,1.488,-1,4
113,3.41524,1.500,-1,4
114,3.41676,1.515,-1,4
115,3.41826,1.501,-1,4
116,3.41974,1.484,-1,4
117,3.42122,1.476,-1,4
118,3.42270,1.485,-1,4
119,3.42420,1.497,-1,4
120,3.42569,1.493,-1,4
121,3.42717,1.473,-1,4
122,3.42863,1.460,-1,4
123,3.43010,1.471,-1,4
124,3.43158,1.485,-1,4
125,3.43306,1.482,-1,4
126,3.43452,1.459,-1,4
127,3.43597,1.448,-1,4
128,3.43743,1.456,-1,4
129,3.43890,1.474,-1,4
130,3.44038,1.473,-1,4
131,3.44182,1.449,-1,4
132,3.44326,1.431,-1,4
133,3.44616,1.462,-1,4
134,3.44762,1.463,-1,4
135,3.44907,1.443,-1,4
136,3.45049,1.420,-1,4
137,3.45191,1.427,-1,4
138,3.45336,1.450,-1,4
139,3.45482,1.457,-1,4
140,3.45625,1.431,-1,4
141,3.45766,1.408,-1,4
142,3.45908,1.420,-1,4
143,3.46051,1.435,-1,4
144,3.46195,1.440,-1,4
145,3.46338,1.423,-1,4
146,3.46478,1.403,-1,4
147,3.46619,1.407,-1,4
148,3.46761,1.423,-1,4
149,3.46904,1.427,-1,4
150,3.47044,1.407,-1,4
151,3.47184,1.397,-1,4
152,3.47465,1.410,-1,4
153,3.47606,1.408,-1,4
154,3.47746,1.398,-1,4
155,3.47885,1.392,-1,4
156,3.48024,1.394,-1,4
157,3.48164,1.400,-1,4
158,3.48304,1.394,-1,4
159,3.48442,1.383,-1,4
160,3.48581,1.383,-1,4
161,3.48720,1.392,-1,4
162,3.48859,1.388,-1,4
163,3.48996,1.375,-1,4
164,3.49133,1.370,-1,4
165,3.49271,1.377,-1,4
166,3.49409,1.382,-1,4
167,3.49547,1.378,-1,4
168,3.49683,1.366,-1,4
169,3.49819,1.354,-1,4
170,3.49955,1.361,-1,4
171,3.50092,1.371,-1,4
172,3.50229,1.353,-1,4
173,3.50499,1.345,-1,4
174,3.50499,1.353,-1,4
175,3.50634,1.359,-1,4
176,3.50770,1.359,-1,4
177,3.50906,1.358,-1,4
178,3.51041,1.349,-1,4
179,3.51309,1.338,-1,4
180,3.51444,1.346,-1,4
181,3.51578,1.346,-1,4
182,3.51712,1.336,-1,4
183,3.51845,1.332,-1,4
184,3.51979,1.336,-1,4
185,3.52112,1.332,-1,4
186,3.52244,1.324,-1,4
187,3.52377,1.325,-1,4
188,3.52510,1.329,-1,4
189,3.52642,1.325,-1,4
190,3.52774,1.316,-1,4
191,3.52905,1.312,-1,4
192,3.53036,1.313,-1,4
193,3.53168,1.315,-1,4
194,3.53300,1.317,-1,4
195,3.53431,1.312,-1,4
196,3.53561,1.300,-1,4
197,3.53691,1.297,-1,4
198,3.53821,1.302,-1,4
199,3.53951,1.299,-1,4
200,3.54210,1.292,-1,4
201,3.54340,1.291,-1,4
202,3.54469,1.291,-1,4
203,3.54597,1.284,-1,4
204,3.54726,1.284,-1,4
205,3.54854,1.284,-1,4
206,3.54982,1.280,-1,4
207,3.55110,1.277,-1,4
208,3.55237,1.276,-1,4
209,3.55364,1.271,-1,4
210,3.55491,1.264,-1,4
211,3.55618,1.268,-1,4
212,3.55745,1.272,-1,4
213,3.55871,1.267,-1,4
214,3.55997,1.253,-1,4
215,3.56122,1.252,-1,4
216,3.56248,1.258,-1,4
217,3.56374,1.259,-1,4
218,3.56499,1.253,-1,4
219,3.56623,1.245,-1,4
220,3.56871,1.239,-1,4
221,3.56996,1.244,-1,4
222,3.57120,1.245,-1,4
223,3.57120,1.238,-1,4
224,3.57367,1.225,-1,4
225,3.57367,1.224,-1,4
226,3.57612,1.230,-1,4
227,3.57612,1.229,-1,4
228,3.57857,1.221,-1,4
229,3.57978,1.214,-1,4
230,3.58100,1.220,-1,4
231,3.58222,1.215,-1,4
232,3.58342,1.206,-1,4
233,3.58463,1.205,-1,4
234,3.58584,1.206,-1,4
235,3.58704,1.207,-1,4
236,3.58824,1.201,-1,4
237,3.58944,1.194,-1,4
238,3.59063,1.196,-1,4
239,3.59183,1.191,-1,4
240,3.59301,1.185,-1,4
241,3.59420,1.191,-1,4
242,3.59539,1.192,-1,4
243,3.59658,1.183,-1,4
244,3.59775,1.173,-1,4
245,3.59893,1.176,-1,4
246,3.60011,1.182,-1,4
247,3.60128,1.174,-1,4
248,3.60361,1.166,-1,4
249,3.60478,1.168,-1,4
250,3.60478,1.163,-1,4
251,3.60710,1.156,-1,4
252,3.60710,1.156,-1,4
253,3.60942,1.160,-1,4
254,3.60942,1.154,-1,4
255,3.61057,1.154,-1,4
256,3.61286,1.145,-1,4
257,3.61401,1.147,-1,4
258,3.61515,1.144,-1,4
259,3.61629,1.139,-1,4
260,3.61743,1.137,-1,4
261,3.61857,1.139,-1,4
262,3.61970,1.137,-1,4
263,3.62083,1.125,-1,4
264,3.62195,1.123,-1,4
265,3.62308,1.129,-1,4
266,3.62421,1.129,-1,4
267,3.62533,1.119,-1,4
268,3.62644,1.112,-1,4
269,3.62756,1.115,-1,4
270,3.62867,1.116,-1,4
271,3.62978,1.111,-1,4
272,3.63089,1.105,-1,4
273,3.63199,1.104,-1,4
274,3.63310,1.103,-1,4
275,3.63419,1.098,-1,4
276,3.63529,1.093,-1,4
277,3.63638,1.095,-1,4
278,3.63857,1.089,-1,4
279,3.63965,1.079,-1,4
280,3.64072,1.079,-1,4
281,3.64181,1.085,-1,4
282,3.64289,1.082,-1,4
283,3.64396,1.070,-1,4
284,3.64503,1.063,-1,4
285,3.64609,1.068,-1,4
286,3.64716,1.071,-1,4
287,3.64823,1.066,-1,4
288,3.64928,1.054,-1,4
289,3.65034,1.054,-1,4
290,3.65140,1.057,-1,4
291,3.65245,1.056,-1,4
292,3.65350,1.044,-1,4
293,3.65454,1.041,-1,4
294,3.65558,1.044,-1,4
295,3.65663,1.046,-1,4
296,3.65766,1.038,-1,4
297,3.65869,1.029,-1,4
298,3.65972,1.028,-1,4
299,3.66075,1.031,-1,4
300,3.66178,1.027,-1,4
301,3.66280,1.014,-1,4
302,3.66381,1.014,-1,4
303,3.66483,1.018,-1,4
304,3.66585,1.023,-1,4
305,3.66687,0.998,-1,4
306,3.66886,1.000,-1,4
307,3.66987,1.006,-1,4
308,3.67088,1.007,-1,4
309,3.67187,0.996,-1,4
310,3.67286,0.984,-1,4
311,3.67385,0.992,-1,4
312,3.67485,0.997,-1,4
313,3.67584,0.992,-1,4
314,3.67681,0.977,-1,4
315,3.67778,0.970,-1,4
316,3.67876,0.979,-1,4
317,3.67975,0.984,-1,4
318,3.68073,0.978,-1,4
319,3.68169,0.961,-1,4
320,3.68265,0.961,-1,4
321,3.68361,0.967,-1,4
322,3.68459,0.973,-1,4
323,3.68554,0.956,-1,4
324,3.68649,0.945,-1,4
325,3.68839,0.958,-1,4
326,3.68935,0.958,-1,4
327,3.69029,0.941,-1,4
328,3.69122,0.928,-1,4
329,3.69215,0.933,-1,4
330,3.69310,0.947,-1,4
331,3.69404,0.938,-1,4
332,3.69496,0.919,-1,4
333,3.69586,0.909,-1,4
334,3.69679,0.921,-1,4
335,3.69772,0.934,-1,4
336,3.69864,0.923,-1,4
337,3.69954,0.901,-1,4
338,3.70043,0.893,-1,4
339,3.70134,0.907,-1,4
340,3.70226,0.918,-1,4
341,3.70316,0.902,-1,4
342,3.70404,0.881,-1,4
343,3.70492,0.879,-1,4
344,3.70582,0.894,-1,4
345,3.70672,0.901,-1,4
346,3.70760,0.863,-1,4
347,3.70846,0.863,-1,4
348,3.70932,0.874,-1,4
349,3.71020,0.874,-1,4
350,3.71108,0.867,-1,4
351,3.71195,0.867,-1,4
352,3.71364,0.847,-1,4
353,3.71450,0.857,-1,4
354,3.71536,0.859,-1,4
355,3.71620,0.845,-1,4
356,3.71703,0.830,-1,4
357,3.71786,0.828,-1,4
358,3.71870,0.836,-1,4
359,3.71953,0.837,-1,4
360,3.72036,0.827,-1,4
361,3.72118,0.816,-1,4
362,3.72199,0.815,-1,4
363,3.72281,0.817,-1,4
364,3.72362,0.813,-1,4
365,3.72442,0.803,-1,4
366,3.72522,0.799,-1,4
367,3.72602,0.800,-1,4
368,3.72682,0.798,-1,4
369,3.72761,0.792,-1,4
370,3.72840,0.784,-1,4
371,3.72918,0.782,-1,4
372,3.72996,0.786,-1,4
373,3.73075,0.771,-1,4
374,3.73228,0.762,-1,4
375,3.73228,0.763,-1,4
376,3.73381,0.768,-1,4
377,3.73381,0.764,-1,4
378,3.73458,0.753,-1,4
379,3.73533,0.753,-1,4
380,3.73607,0.750,-1,4
381,3.73682,0.747,-1,4
382,3.73831,0.740,-1,4
383,3.73905,0.735,-1,4
384,3.73978,0.730,-1,4
385,3.74051,0.730,-1,4
386,3.74123,0.726,-1,4
387,3.74195,0.717,-1,4
388,3.74266,0.712,-1,4
389,3.74338,0.714,-1,4
390,3.74409,0.713,-1,4
391,3.74480,0.709,-1,4
392,3.74549,0.695,-1,4
393,3.74618,0.692,-1,4
394,3.74687,0.690,-1,4
395,3.74757,0.691,-1,4
396,3.74825,0.682,-1,4
397,3.74892,0.676,-1,4
398,3.74959,0.669,-1,4
399,3.75026,0.672,-1,4
400,3.75093,0.669,-1,4
401,3.75159,0.662,-1,4
402,3.75225,0.656,-1,4
403,3.75290,0.652,-1,4
404,3.75356,0.655,-1,4
405,3.75421,0.649,-1,4
406,3.75485,0.640,-1,4
407,3.75548,0.636,-1,4
408,3.75612,0.634,-1,4
409,3.75675,0.629,-1,4
410,3.75737,0.626,-1,4
411,3.75861,0.617,-1,4
412,3.75922,0.614,-1,4
413,3.75983,0.611,-1,4
414,3.76044,0.607,-1,4
415,3.76104,0.601,-1,4
416,3.76164,0.600,-1,4
417,3.76224,0.594,-1,4
418,3.76283,0.592,-1,4
419,3.76341,0.585,-1,4
420,3.76399,0.581,-1,4
421,3.76457,0.576,-1,4
422,3.76514,0.573,-1,4
423,3.76571,0.567,-1,4
424,3.76627,0.563,-1,4
425,3.76683,0.560,-1,4
426,3.76739,0.557,-1,4
427,3.76794,0.552,-1,4
428,3.76849,0.547,-1,4
429,3.76903,0.543,-1,4
430,3.76957,0.539,-1,4
431,3.77010,0.533,-1,4
432,3.77063,0.529,-1,4
433,3.77115,0.523,-1,4
434,3.77168,0.521,-1,4
435,3.77219,0.517,-1,4
436,3.77270,0.511,-1,4
437,3.77321,0.504,-1,4
438,3.77421,0.497,-1,4
439,3.77470,0.492,-1,4
440,3.77470,0.492,-1,4
441,3.77518,0.482,-1,4
442,3.77567,0.482,-1,4
443,3.77615,0.479,-1,4
444,3.77662,0.475,-1,4
445,3.77709,0.468,-1,4
446,3.77755,0.461,-1,4
447,3.77801,0.457,-1,4
448,3.77846,0.449,-1,4
449,3.77891,0.443,-1,4
450,3.77979,0.438,-1,4
451,3.77979,0.438,-1,4
452,3.78023,0.432,-1,4
453,3.78066,0.432,-1,4
454,3.78108,0.425,-1,4
455,3.78150,0.421,-1,4
456,3.78192,0.412,-1,4
457,3.78274,0.407,-1,4
458,3.78314,0.403,-1,4
459,3.78353,0.394,-1,4
460,3.78392,0.390,-1,4
461,3.78431,0.386,-1,4
462,3.78469,0.381,-1,4
463,3.78507,0.376,-1,4
464,3.78543,0.369,-1,4
465,3.78580,0.363,-1,4
466,3.78616,0.360,-1,4
467,3.78651,0.356,-1,4
468,3.78686,0.347,-1,4
469,3.78721,0.345,-1,4
470,3.78754,0.339,-1,4
471,3.78788,0.335,-1,4
472,3.78821,0.330,-1,4
473,3.78853,0.322,-1,4
474,3.78885,0.318,-1,4
475,3.78916,0.313,-1,4
476,3.78947,0.308,-1,4
477,3.78977,0.302,-1,4
478,3.79007,0.295,-1,4
479,3.79036,0.289,-1,4
480,3.79064,0.284,-1,4
481,3.79092,0.278,-1,4
482,3.79119,0.271,-1,4
483,3.79145,0.265,-1,4
484,3.79171,0.259,-1,4
485,3.79197,0.254,-1,4
486,3.79221,0.248,-1,4
487,3.79246,0.242,-1,4
488,3.79269,0.234,-1,4
489,3.79292,0.230,-1,4
490,3.79314,0.224,-1,4
491,3.79336,0.218,-1,4
492,3.79357,0.210,-1,4
493,3.79377,0.202,-1,4
494,3.79397,0.198,-1,4
495,3.79416,0.191,-1,4
496,3.79452,0.176,-1,4
497,3.79469,0.170,-1,4
498,3.79486,0.164,-1,4
499,3.79501,0.158,-1,4
500,3.79516,0.151,-1,4
501,3.79531,0.146,-1,4
502,3.79545,0.137,-1,4
503,3.79558,0.134,-1,4
504,3.79571,0.126,-1,4
505,3.79583,0.123,-1,4
506,3.79594,0.115,-1,4
507,3.79605,0.109,-1,4
508,3.79616,0.105,-1,4
509,3.79625,0.096,-1,4
510,3.79635,0.093,-1,4
511,3.79643,0.087,-1,4
512,3.79651,0.079,-1,4
513,3.79659,0.074,-1,4
514,3.79672,0.063,-1,4
515,3.79672,0.056,-1,4
516,3.79683,0.050,-1,4
517,3.79683,0.046,-1,4
518,3.79691,0.039,-1,4
519,3.79691,0.033,-1,4
520,3.79694,0.027,-1,4
521,3.79697,0.021,-1,4
522,3.79700,0.015,-1,4
523,3.79701,0.008,-1,4
524,3.79701,0.002,-1,4
525,3.79701,-0.004,-1,4
526,3.79700,-0.008,-1,4
527,3.79699,-0.013,-1,4
528,3.79697,-0.018,-1,4
529,3.79695,-0.023,-1,4
530,3.79692,-0.026,-1,4
531,3.79689,-0.030,-1,4
532,3.79686,-0.034,-1,4
533,3.79682,-0.039,-1,4
534,3.79678,-0.042,-1,4
535,3.79673,-0.045,-1,4
536,3.79668,-0.049,-1,4
537,3.79663,-0.053,-1,4
538,3.79657,-0.057,-1,4
539,3.79651,-0.061,-1,4
540,3.79645,-0.064,-1,4
541,3.79638,-0.069,-1,4
542,3.79623,-0.076,-1,4
543,3.79615,-0.080,-1,4
544,3.79607,-0.085,-1,4
545,3.79598,-0.089,-1,4
546,3.79589,-0.091,-1,4
547,3.79579,-0.098,-1,4
548,3.79569,-0.102,-1,4
549,3.79558,-0.105,-1,4
550,3.79547,-0.111,-1,4
551,3.79536,-0.114,-1,4
552,3.79524,-0.120,-1,4
553,3.79511,-0.124,-1,4
554,3.79498,-0.129,-1,4
555,3.79485,-0.134,-1,4
556,3.79471,-0.139,-1,4
557,3.79456,-0.145,-1,4
558,3.79442,-0.150,-1,4
559,3.79426,-0.154,-1,4
560,3.79410,-0.160,-1,4
561,3.79394,-0.165,-1,4
562,3.79376,-0.175,-1,4
563,3.79359,-0.175,-1,4
564,3.79341,-0.181,-1,4
565,3.79322,-0.188,-1,4
566,3.79303,-0.192,-1,4
567,3.79283,-0.196,-1,4
568,3.79263,-0.202,-1,4
569,3.79221,-0.211,-1,4
570,3.79199,-0.217,-1,4
571,3.79177,-0.223,-1,4
572,3.79154,-0.226,-1,4
573,3.79131,-0.232,-1,4
574,3.79108,-0.236,-1,4
575,3.79084,-0.241,-1,4
576,3.79059,-0.247,-1,4
577,3.79034,-0.251,-1,4
578,3.79008,-0.258,-1,4
579,3.78982,-0.262,-1,4
580,3.78955,-0.269,-1,4
581,3.78927,-0.274,-1,4
582,3.78899,-0.280,-1,4
583,3.78871,-0.284,-1,4
584,3.78842,-0.290,-1,4
585,3.78812,-0.295,-1,4
586,3.78782,-0.300,-1,4
587,3.78752,-0.304,-1,4
588,3.78721,-0.310,-1,4
589,3.78689,-0.317,-1,4
590,3.78657,-0.320,-1,4
591,3.78625,-0.326,-1,4
592,3.78592,-0.331,-1,4
593,3.78558,-0.337,-1,4
594,3.78524,-0.343,-1,4
595,3.78489,-0.349,-1,4
596,3.78453,-0.355,-1,4
597,3.78417,-0.360,-1,4
598,3.78381,-0.367,-1,4
599,3.78343,-0.373,-1,4
600,3.78305,-0.379,-1,4
601,3.78267,-0.385,-1,4
602,3.78228,-0.391,-1,4
603,3.78188,-0.398,-1,4
604,3.78148,-0.410,-1,4
605,3.78065,-0.413,-1,4
606,3.78023,-0.422,-1,4
607,3.77981,-0.426,-1,4
608,3.77938,-0.432,-1,4
609,3.77894,-0.438,-1,4
610,3.77849,-0.443,-1,4
611,3.77804,-0.451,-1,4
612,3.77759,-0.456,-1,4
613,3.77712,-0.463,-1,4
614,3.77665,-0.471,-1,4
615,3.77618,-0.474,-1,4
616,3.77570,-0.481,-1,4
617,3.77521,-0.490,-1,4
618,3.77471,-0.497,-1,4
619,3.77421,-0.501,-1,4
620,3.77370,-0.507,-1,4
621,3.77319,-0.514,-1,4
622,3.77267,-0.522,-1,4
623,3.77214,-0.535,-1,4
624,3.77106,-0.541,-1,4
625,3.77051,-0.547,-1,4
626,3.77051,-0.557,-1,4
627,3.76996,-0.557,-1,4
628,3.76940,-0.562,-1,4
629,3.76883,-0.567,-1,4
630,3.76826,-0.574,-1,4
631,3.76767,-0.591,-1,4
632,3.76649,-0.597,-1,4
633,3.76588,-0.602,-1,4
634,3.76528,-0.606,-1,4
635,3.76466,-0.615,-1,4
636,3.76404,-0.623,-1,4
637,3.76341,-0.629,-1,4
638,3.76278,-0.634,-1,4
639,3.76213,-0.643,-1,4
640,3.76148,-0.654,-1,4
641,3.76082,-0.659,-1,4
642,3.76016,-0.665,-1,4
643,3.75949,-0.669,-1,4
644,3.75881,-0.677,-1,4
645,3.75812,-0.687,-1,4
646,3.75743,-0.693,-1,4
647,3.75673,-0.698,-1,4
648,3.75603,-0.704,-1,4
649,3.75532,-0.712,-1,4
650,3.75460,-0.720,-1,4
651,3.75387,-0.726,-1,4
652,3.75313,-0.736,-1,4
653,3.75239,-0.743,-1,4
654,3.75164,-0.748,-1,4
655,3.75089,-0.756,-1,4
656,3.75012,-0.763,-1,4
657,3.74935,-0.769,-1,4
658,3.74858,-0.775,-1,4
659,3.74780,-0.783,-1,4
660,3.74701,-0.790,-1,4
661,3.74621,-0.799,-1,4
662,3.74540,-0.810,-1,4
663,3.74459,-0.820,-1,4
664,3.74377,-0.829,-1,4
665,3.74294,-0.829,-1,4
666,3.74210,-0.838,-1,4
667,3.74126,-0.840,-1,4
668,3.74042,-0.850,-1,4
669,3.73957,-0.864,-1,4
670,3.73783,-0.876,-1,4
671,3.73695,-0.879,-1,4
672,3.73607,-0.881,-1,4
673,3.73519,-0.885,-1,4
674,3.73429,-0.900,-1,4
675,3.73337,-0.912,-1,4
676,3.73246,-0.913,-1,4
677,3.73155,-0.910,-1,4
678,3.73063,-0.919,-1,4
679,3.72970,-0.934,-1,4
680,3.72875,-0.946,-1,4
681,3.72780,-0.952,-1,4
682,3.72685,-0.950,-1,4
683,3.72590,-0.955,-1,4
684,3.72493,-0.966,-1,4
685,3.72395,-0.979,-1,4
686,3.72297,-0.984,-1,4
687,3.72198,-0.988,-1,4
688,3.72099,-0.989,-1,4
689,3.71999,-1.005,-1,4
690,3.71897,-1.020,-1,4
691,3.71794,-1.025,-1,4
692,3.71692,-1.020,-1,4
693,3.71590,-1.023,-1,4
694,3.71486,-1.038,-1,4
695,3.71380,-1.058,-1,4
696,3.71274,-1.065,-1,4
697,3.71168,-1.061,-1,4
698,3.71061,-1.062,-1,4
699,3.70953,-1.096,-1,4
700,3.70734,-1.097,-1,4
701,3.70625,-1.092,-1,4
702,3.70515,-1.102,-1,4
703,3.70402,-1.122,-1,4
704,3.70289,-1.134,-1,4
705,3.70176,-1.132,-1,4
706,3.70063,-1.126,-1,4
707,3.69949,-1.139,-1,4
708,3.69833,-1.162,-1,4
709,3.69716,-1.172,-1,4
710,3.69599,-1.169,-1,4
711,3.69482,-1.169,-1,4
712,3.69364,-1.181,-1,4
713,3.69244,-1.196,-1,4
714,3.69124,-1.201,-1,4
715,3.69003,-1.211,-1,4
716,3.68882,-1.214,-1,4
717,3.68760,-1.221,-1,4
718,3.68636,-1.234,-1,4
719,3.68512,-1.248,-1,4
720,3.68387,-1.248,-1,4
721,3.68263,-1.247,-1,4
722,3.68137,-1.259,-1,4
723,3.68009,-1.274,-1,4
724,3.67881,-1.285,-1,4
725,3.67752,-1.288,-1,4
726,3.67623,-1.286,-1,4
727,3.67494,-1.295,-1,4
728,3.67230,-1.323,-1,4
729,3.67097,-1.330,-1,4
730,3.66964,-1.335,-1,4
731,3.66831,-1.333,-1,4
732,3.66696,-1.344,-1,4
733,3.66560,-1.359,-1,4
734,3.66423,-1.370,-1,4
735,3.66286,-1.375,-1,4
736,3.66148,-1.381,-1,4
737,3.66009,-1.384,-1,4
738,3.65870,-1.392,-1,4
739,3.65730,-1.402,-1,4
740,3.65588,-1.415,-1,4
741,3.65446,-1.424,-1,4
742,3.65303,-1.427,-1,4
743,3.65160,-1.430,-1,4
744,3.65016,-1.438,-1,4
745,3.64871,-1.450,-1,4
746,3.64725,-1.463,-1,4
747,3.64578,-1.468,-1,4
748,3.64431,-1.472,-1,4
749,3.64284,-1.489,-1,4
750,3.64135,-1.497,-1,4
751,3.63986,-1.497,-1,4
752,3.63835,-1.507,-1,4
753,3.63684,-1.507,-1,4
754,3.63533,-1.521,-1,4
755,3.63381,-1.521,-1,4
756,3.63072,-1.545,-1,4
757,3.62918,-1.548,-1,4
758,3.62763,-1.550,-1,4
759,3.62607,-1.558,-1,4
760,3.62449,-1.574,-1,4
761,3.62291,-1.584,-1,4
762,3.62132,-1.589,-1,4
763,3.61973,-1.586,-1,4
764,3.61814,-1.595,-1,4
765,3.61653,-1.606,-1,4
766,3.61491,-1.621,-1,4
767,3.61328,-1.628,-1,4
768,3.61166,-1.624,-1,4
769,3.61003,-1.629,-1,4
770,3.60839,-1.641,-1,4
771,3.60673,-1.657,-1,4
772,3.60507,-1.663,-1,4
773,3.60340,-1.664,-1,4
774,3.60174,-1.665,-1,4
775,3.60006,-1.678,-1,4
776,3.59667,-1.699,-1,4
777,3.59497,-1.698,-1,4
778,3.59327,-1.700,-1,4
779,3.59156,-1.715,-1,4
780,3.58983,-1.730,-1,4
781,3.58809,-1.732,-1,4
782,3.58637,-1.727,-1,4
783,3.58463,-1.738,-1,4
784,3.58287,-1.756,-1,4
785,3.58111,-1.763,-1,4
786,3.57935,-1.759,-1,4
787,3.57759,-1.762,-1,4
788,3.57581,-1.777,-1,4
789,3.57402,-1.796,-1,4
790,3.57222,-1.791,-1,4
791,3.57044,-1.789,-1,4
792,3.56864,-1.796,-1,4
793,3.56682,-1.820,-1,4
794,3.56499,-1.820,-1,4
795,3.56135,-1.822,-1,4
796,3.56135,-1.837,-1,4
797,3.55766,-1.852,-1,4
798,3.55766,-1.855,-1,4
799,3.55581,-1.855,-1,4
800,3.55395,-1.853,-1,4
801,3.55209,-1.861,-1,4
802,3.55022,-1.872,-1,4
803,3.54834,-1.888,-1,4
804,3.54456,-1.892,-1,4
805,3.54267,-1.895,-1,4
806,3.54077,-1.897,-1,4
807,3.53886,-1.913,-1,4
808,3.53693,-1.925,-1,4
809,3.53500,-1.927,-1,4
810,3.53308,-1.921,-1,4
811,3.53115,-1.928,-1,4
812,3.52921,-1.946,-1,4
813,3.52725,-1.960,-1,4
814,3.52530,-1.952,-1,4
815,3.52335,-1.948,-1,4
816,3.52139,-1.962,-1,4
817,3.51940,-1.982,-1,4
818,3.51742,-1.986,-1,4
819,3.51544,-1.978,-1,4
820,3.51346,-1.981,-1,4
821,3.51146,-1.996,-1,4
822,3.50945,-2.010,-1,4
823,3.50544,-2.009,-1,4
824,3.50544,-2.015,-1,4
825,3.50140,-2.023,-1,4
826,3.50140,-2.032,-1,4
827,3.49733,-2.041,-1,4
828,3.49733,-2.041,-1,4
829,3.49325,-2.034,-1,4
830,3.49120,-2.050,-1,4
831,3.48914,-2.066,-1,4
832,3.48707,-2.068,-1,4
833,3.48501,-2.060,-1,4
834,3.48294,-2.064,-1,4
835,3.48086,-2.082,-1,4
836,3.47877,-2.092,-1,4
837,3.47668,-2.087,-1,4
838,3.47459,-2.086,-1,4
839,3.47250,-2.095,-1,4
840,3.47039,-2.109,-1,4
841,3.46828,-2.113,-1,4
842,3.46616,-2.115,-1,4
843,3.46405,-2.114,-1,4
844,3.46193,-2.121,-1,4
845,3.45979,-2.132,-1,4
846,3.45765,-2.143,-1,4
847,3.45551,-2.141,-1,4
848,3.45337,-2.137,-1,4
849,3.45123,-2.146,-1,4
850,3.44907,-2.160,-1,4
851,3.44690,-2.166,-1,4
852,3.44474,-2.161,-1,4
853,3.44258,-2.174,-1,4
854,3.44040,-2.174,-1,4
855,3.43822,-2.183,-1,4
856,3.43603,-2.184,-1,4
857,3.43385,-2.189,-1,4
858,3.43165,-2.192,-1,4
