cnt,pos,speed,Dir,Force,
1,3.53697,1.010,-1,5
2,3.53798,1.009,-1,5
3,3.53898,0.999,-1,5
4,3.53998,1.002,-1,5
5,3.54100,1.019,-1,5
6,3.54204,1.040,-1,5
7,3.54308,1.042,-1,5
8,3.54411,1.029,-1,5
9,3.54514,1.030,-1,5
10,3.54619,1.055,-1,5
11,3.54727,1.075,-1,5
12,3.54833,1.064,-1,5
13,3.54938,1.051,-1,5
14,3.55045,1.062,-1,5
15,3.55154,1.097,-1,5
16,3.55265,1.108,-1,5
17,3.55374,1.089,-1,5
18,3.55482,1.076,-1,5
19,3.55592,1.101,-1,5
20,3.55705,1.133,-1,5
21,3.55818,1.133,-1,5
22,3.55929,1.112,-1,5
23,3.56041,1.115,-1,5
24,3.56155,1.143,-1,5
25,3.56386,1.145,-1,5
26,3.56386,1.139,-1,5
27,3.56500,1.139,-1,5
28,3.56615,1.157,-1,5
29,3.56734,1.184,-1,5
30,3.56852,1.164,-1,5
31,3.56968,1.164,-1,5
32,3.57085,1.192,-1,5
33,3.57324,1.202,-1,5
34,3.57445,1.202,-1,5
35,3.57564,1.196,-1,5
36,3.57684,1.201,-1,5
37,3.57805,1.212,-1,5
38,3.57928,1.222,-1,5
39,3.58050,1.224,-1,5
40,3.58172,1.222,-1,5
41,3.58295,1.224,-1,5
42,3.58419,1.240,-1,5
43,3.58544,1.251,-1,5
44,3.58668,1.245,-1,5
45,3.58792,1.235,-1,5
46,3.58917,1.249,-1,5
47,3.59044,1.272,-1,5
48,3.59171,1.271,-1,5
49,3.59297,1.257,-1,5
50,3.59422,1.258,-1,5
51,3.59550,1.280,-1,5
52,3.59679,1.284,-1,5
53,3.59807,1.281,-1,5
54,3.59935,1.281,-1,5
55,3.60063,1.284,-1,5
56,3.60192,1.291,-1,5
57,3.60323,1.301,-1,5
58,3.60452,1.299,-1,5
59,3.60582,1.295,-1,5
60,3.60712,1.301,-1,5
61,3.60844,1.315,-1,5
62,3.60976,1.321,-1,5
63,3.61107,1.310,-1,5
64,3.61238,1.326,-1,5
65,3.61504,1.337,-1,5
66,3.61637,1.332,-1,5
67,3.61770,1.326,-1,5
68,3.61770,1.333,-1,5
69,3.61903,1.343,-1,5
70,3.62037,1.343,-1,5
71,3.62308,1.352,-1,5
72,3.62442,1.347,-1,5
73,3.62577,1.346,-1,5
74,3.62713,1.357,-1,5
75,3.62849,1.367,-1,5
76,3.62986,1.363,-1,5
77,3.63122,1.361,-1,5
78,3.63259,1.370,-1,5
79,3.63396,1.376,-1,5
80,3.63534,1.376,-1,5
81,3.63671,1.375,-1,5
82,3.63810,1.383,-1,5
83,3.63948,1.386,-1,5
84,3.64087,1.391,-1,5
85,3.64227,1.392,-1,5
86,3.64366,1.390,-1,5
87,3.64505,1.392,-1,5
88,3.64645,1.406,-1,5
89,3.64786,1.410,-1,5
90,3.64927,1.401,-1,5
91,3.65066,1.399,-1,5
92,3.65208,1.412,-1,5
93,3.65349,1.418,-1,5
94,3.65491,1.415,-1,5
95,3.65632,1.413,-1,5
96,3.65773,1.411,-1,5
97,3.65915,1.417,-1,5
98,3.66058,1.430,-1,5
99,3.66201,1.431,-1,5
100,3.66343,1.419,-1,5
101,3.66485,1.417,-1,5
102,3.66628,1.429,-1,5
103,3.66772,1.439,-1,5
104,3.66915,1.435,-1,5
105,3.67059,1.430,-1,5
106,3.67202,1.430,-1,5
107,3.67345,1.433,-1,5
108,3.67490,1.445,-1,5
109,3.67634,1.447,-1,5
110,3.67778,1.441,-1,5
111,3.68067,1.447,-1,5
112,3.68212,1.445,-1,5
113,3.68356,1.445,-1,5
114,3.68501,1.451,-1,5
115,3.68646,1.450,-1,5
116,3.68791,1.450,-1,5
117,3.68936,1.450,-1,5
118,3.69081,1.446,-1,5
119,3.69226,1.448,-1,5
120,3.69372,1.458,-1,5
121,3.69517,1.458,-1,5
122,3.69662,1.447,-1,5
123,3.69807,1.446,-1,5
124,3.69952,1.454,-1,5
125,3.70098,1.457,-1,5
126,3.70243,1.455,-1,5
127,3.70388,1.452,-1,5
128,3.70533,1.445,-1,5
129,3.70678,1.448,-1,5
130,3.70824,1.459,-1,5
131,3.70969,1.457,-1,5
132,3.71114,1.445,-1,5
133,3.71258,1.441,-1,5
134,3.71403,1.446,-1,5
135,3.71548,1.451,-1,5
136,3.71693,1.454,-1,5
137,3.71838,1.446,-1,5
138,3.71981,1.434,-1,5
139,3.72124,1.432,-1,5
140,3.72269,1.447,-1,5
141,3.72413,1.446,-1,5
142,3.72700,1.432,-1,5
143,3.72843,1.427,-1,5
144,3.72986,1.429,-1,5
145,3.73130,1.437,-1,5
146,3.73273,1.436,-1,5
147,3.73415,1.421,-1,5
148,3.73557,1.416,-1,5
149,3.73699,1.422,-1,5
150,3.73841,1.420,-1,5
151,3.73983,1.418,-1,5
152,3.74125,1.416,-1,5
153,3.74266,1.410,-1,5
154,3.74406,1.403,-1,5
155,3.74547,1.405,-1,5
156,3.74687,1.407,-1,5
157,3.74827,1.399,-1,5
158,3.74967,1.398,-1,5
159,3.75107,1.398,-1,5
160,3.75246,1.389,-1,5
161,3.75385,1.388,-1,5
162,3.75524,1.392,-1,5
163,3.75663,1.392,-1,5
164,3.75801,1.381,-1,5
165,3.75939,1.378,-1,5
166,3.76077,1.379,-1,5
167,3.76215,1.379,-1,5
168,3.76353,1.380,-1,5
169,3.76491,1.380,-1,5
170,3.76628,1.369,-1,5
171,3.76764,1.363,-1,5
172,3.76901,1.368,-1,5
173,3.77038,1.373,-1,5
174,3.77175,1.367,-1,5
175,3.77311,1.364,-1,5
176,3.77448,1.363,-1,5
177,3.77583,1.356,-1,5
178,3.77719,1.358,-1,5
179,3.77856,1.365,-1,5
180,3.77992,1.364,-1,5
181,3.78127,1.354,-1,5
182,3.78263,1.352,-1,5
183,3.78398,1.358,-1,5
184,3.78534,1.358,-1,5
185,3.78670,1.356,-1,5
186,3.78806,1.357,-1,5
187,3.78941,1.354,-1,5
188,3.79076,1.350,-1,5
189,3.79347,1.360,-1,5
190,3.79483,1.355,-1,5
191,3.79618,1.351,-1,5
192,3.79754,1.355,-1,5
193,3.79889,1.355,-1,5
194,3.80024,1.350,-1,5
195,3.80160,1.356,-1,5
196,3.80296,1.361,-1,5
197,3.80432,1.357,-1,5
198,3.80567,1.353,-1,5
199,3.80702,1.356,-1,5
200,3.80838,1.360,-1,5
201,3.80974,1.359,-1,5
202,3.81111,1.364,-1,5
203,3.81247,1.364,-1,5
204,3.81383,1.358,-1,5
205,3.81519,1.358,-1,5
206,3.81655,1.367,-1,5
207,3.81793,1.371,-1,5
208,3.81929,1.367,-1,5
209,3.82066,1.367,-1,5
210,3.82203,1.368,-1,5
211,3.82339,1.366,-1,5
212,3.82476,1.370,-1,5
213,3.82614,1.379,-1,5
214,3.82752,1.376,-1,5
215,3.82889,1.370,-1,5
216,3.83026,1.374,-1,5
217,3.83164,1.378,-1,5
218,3.83302,1.379,-1,5
219,3.83440,1.382,-1,5
220,3.83579,1.384,-1,5
221,3.83717,1.381,-1,5
222,3.83993,1.388,-1,5
223,3.83993,1.392,-1,5
224,3.84272,1.388,-1,5
225,3.84272,1.389,-1,5
226,3.84410,1.394,-1,5
227,3.84550,1.393,-1,5
228,3.84829,1.396,-1,5
229,3.84969,1.403,-1,5
230,3.85109,1.400,-1,5
231,3.85248,1.394,-1,5
232,3.85388,1.399,-1,5
233,3.85529,1.405,-1,5
234,3.85669,1.405,-1,5
235,3.85810,1.406,-1,5
236,3.85951,1.409,-1,5
237,3.86091,1.405,-1,5
238,3.86232,1.403,-1,5
239,3.86373,1.413,-1,5
240,3.86514,1.416,-1,5
241,3.86656,1.416,-1,5
242,3.86797,1.414,-1,5
243,3.86939,1.415,-1,5
244,3.87080,1.412,-1,5
245,3.87222,1.420,-1,5
246,3.87365,1.425,-1,5
247,3.87507,1.423,-1,5
248,3.87648,1.416,-1,5
249,3.87791,1.421,-1,5
250,3.87933,1.427,-1,5
251,3.88076,1.424,-1,5
252,3.88219,1.428,-1,5
253,3.88361,1.426,-1,5
254,3.88503,1.422,-1,5
255,3.88646,1.429,-1,5
256,3.88790,1.435,-1,5
257,3.88933,1.431,-1,5
258,3.89076,1.429,-1,5
259,3.89219,1.435,-1,5
260,3.89506,1.434,-1,5
261,3.89650,1.440,-1,5
262,3.89794,1.442,-1,5
263,3.89938,1.441,-1,5
264,3.90083,1.441,-1,5
265,3.90227,1.442,-1,5
266,3.90371,1.444,-1,5
267,3.90516,1.449,-1,5
268,3.90662,1.456,-1,5
269,3.90806,1.447,-1,5
270,3.90951,1.442,-1,5
271,3.91095,1.448,-1,5
272,3.91241,1.458,-1,5
273,3.91387,1.460,-1,5
274,3.91533,1.459,-1,5
275,3.91678,1.452,-1,5
276,3.91823,1.447,-1,5
277,3.91969,1.461,-1,5
278,3.92116,1.473,-1,5
279,3.92264,1.471,-1,5
280,3.92410,1.460,-1,5
281,3.92555,1.457,-1,5
282,3.92702,1.464,-1,5
283,3.92849,1.477,-1,5
284,3.92997,1.479,-1,5
285,3.93145,1.473,-1,5
286,3.93291,1.463,-1,5
287,3.93438,1.470,-1,5
288,3.93586,1.485,-1,5
289,3.93735,1.486,-1,5
290,3.93883,1.477,-1,5
291,3.94030,1.474,-1,5
292,3.94177,1.474,-1,5
293,3.94327,1.492,-1,5
294,3.94476,1.497,-1,5
295,3.94625,1.483,-1,5
296,3.94772,1.475,-1,5
297,3.94921,1.487,-1,5
298,3.95070,1.496,-1,5
299,3.95220,1.501,-1,5
300,3.95370,1.495,-1,5
301,3.95519,1.486,-1,5
302,3.95668,1.492,-1,5
303,3.95818,1.504,-1,5
304,3.95969,1.508,-1,5
305,3.96119,1.497,-1,5
306,3.96269,1.501,-1,5
307,3.96419,1.501,-1,5
308,3.96569,1.505,-1,5
309,3.96721,1.510,-1,5
310,3.97022,1.507,-1,5
311,3.97173,1.513,-1,5
312,3.97325,1.515,-1,5
313,3.97476,1.511,-1,5
314,3.97628,1.516,-1,5
315,3.97780,1.522,-1,5
316,3.97932,1.521,-1,5
317,3.98084,1.518,-1,5
318,3.98236,1.521,-1,5
319,3.98389,1.526,-1,5
320,3.98542,1.534,-1,5
321,3.98695,1.532,-1,5
322,3.98847,1.522,-1,5
323,3.99000,1.529,-1,5
324,3.99155,1.546,-1,5
325,3.99309,1.547,-1,5
326,3.99463,1.534,-1,5
327,3.99616,1.531,-1,5
328,3.99770,1.540,-1,5
329,3.99926,1.559,-1,5
330,4.00082,1.563,-1,5
331,4.00236,1.541,-1,5
332,4.00390,1.536,-1,5
333,4.00546,1.557,-1,5
334,4.00703,1.573,-1,5
335,4.00860,1.572,-1,5
336,4.01016,1.557,-1,5
337,4.01171,1.550,-1,5
338,4.01328,1.570,-1,5
339,4.01645,1.585,-1,5
340,4.01802,1.567,-1,5
341,4.01959,1.568,-1,5
342,4.02117,1.586,-1,5
343,4.02278,1.601,-1,5
344,4.02437,1.599,-1,5
345,4.02596,1.582,-1,5
346,4.02754,1.582,-1,5
347,4.02914,1.605,-1,5
348,4.03076,1.616,-1,5
349,4.03237,1.612,-1,5
350,4.03397,1.598,-1,5
351,4.03557,1.598,-1,5
352,4.03719,1.623,-1,5
353,4.03883,1.638,-1,5
354,4.04045,1.623,-1,5
355,4.04206,1.609,-1,5
356,4.04368,1.619,-1,5
357,4.04532,1.640,-1,5
358,4.04697,1.653,-1,5
359,4.04862,1.643,-1,5
360,4.05024,1.624,-1,5
361,4.05187,1.633,-1,5
362,4.05353,1.659,-1,5
363,4.05520,1.666,-1,5
364,4.05686,1.658,-1,5
365,4.05850,1.643,-1,5
366,4.06015,1.648,-1,5
367,4.06182,1.673,-1,5
368,4.06351,1.684,-1,5
369,4.06518,1.670,-1,5
370,4.06684,1.660,-1,5
371,4.06850,1.666,-1,5
372,4.07019,1.691,-1,5
373,4.07189,1.699,-1,5
374,4.07357,1.683,-1,5
375,4.07525,1.672,-1,5
376,4.07693,1.687,-1,5
377,4.07864,1.708,-1,5
378,4.08205,1.692,-1,5
379,4.08373,1.682,-1,5
380,4.08543,1.705,-1,5
381,4.08716,1.727,-1,5
382,4.08888,1.720,-1,5
383,4.09058,1.699,-1,5
384,4.09227,1.696,-1,5
385,4.09400,1.723,-1,5
386,4.09574,1.745,-1,5
387,4.09747,1.726,-1,5
388,4.09917,1.705,-1,5
389,4.10088,1.710,-1,5
390,4.10262,1.740,-1,5
391,4.10438,1.756,-1,5
392,4.10611,1.733,-1,5
393,4.10782,1.711,-1,5
394,4.10955,1.726,-1,5
395,4.11130,1.751,-1,5
396,4.11306,1.759,-1,5
397,4.11480,1.742,-1,5
398,4.11652,1.720,-1,5
399,4.11826,1.734,-1,5
400,4.12002,1.761,-1,5
401,4.12178,1.766,-1,5
402,4.12353,1.744,-1,5
403,4.12526,1.731,-1,5
404,4.12700,1.746,-1,5
405,4.12877,1.768,-1,5
406,4.13054,1.766,-1,5
407,4.13229,1.752,-1,5
408,4.13403,1.742,-1,5
409,4.13579,1.755,-1,5
410,4.13755,1.769,-1,5
411,4.13932,1.766,-1,5
412,4.14108,1.757,-1,5
413,4.14283,1.755,-1,5
414,4.14459,1.759,-1,5
415,4.14636,1.770,-1,5
416,4.14989,1.765,-1,5
417,4.14989,1.766,-1,5
418,4.15343,1.765,-1,5
419,4.15343,1.770,-1,5
420,4.15520,1.772,-1,5
421,4.15697,1.772,-1,5
422,4.16051,1.772,-1,5
423,4.16228,1.770,-1,5
424,4.16405,1.768,-1,5
425,4.16583,1.778,-1,5
426,4.16761,1.780,-1,5
427,4.16938,1.773,-1,5
428,4.17116,1.774,-1,5
429,4.17293,1.774,-1,5
430,4.17471,1.784,-1,5
431,4.17650,1.782,-1,5
432,4.17827,1.776,-1,5
433,4.18005,1.779,-1,5
434,4.18183,1.782,-1,5
435,4.18362,1.788,-1,5
436,4.18540,1.782,-1,5
437,4.18718,1.780,-1,5
438,4.18897,1.785,-1,5
439,4.19076,1.791,-1,5
440,4.19254,1.785,-1,5
441,4.19433,1.783,-1,5
442,4.19611,1.784,-1,5
443,4.19790,1.793,-1,5
444,4.19970,1.795,-1,5
445,4.20148,1.783,-1,5
446,4.20326,1.783,-1,5
447,4.20506,1.797,-1,5
448,4.20685,1.797,-1,5
449,4.20865,1.793,-1,5
450,4.21043,1.783,-1,5
451,4.21221,1.785,-1,5
452,4.21401,1.794,-1,5
453,4.21759,1.791,-1,5
454,4.21938,1.785,-1,5
455,4.22117,1.788,-1,5
456,4.22295,1.788,-1,5
457,4.22474,1.787,-1,5
458,4.22653,1.788,-1,5
459,4.22832,1.791,-1,5
460,4.23010,1.784,-1,5
461,4.23188,1.782,-1,5
462,4.23366,1.778,-1,5
463,4.23545,1.790,-1,5
464,4.23724,1.793,-1,5
465,4.23902,1.778,-1,5
466,4.24079,1.771,-1,5
467,4.24257,1.775,-1,5
468,4.24436,1.791,-1,5
469,4.24615,1.789,-1,5
470,4.24792,1.771,-1,5
471,4.24968,1.761,-1,5
472,4.25145,1.773,-1,5
473,4.25324,1.785,-1,5
474,4.25502,1.781,-1,5
475,4.25678,1.762,-1,5
476,4.25853,1.751,-1,5
477,4.26030,1.769,-1,5
478,4.26208,1.778,-1,5
479,4.26385,1.769,-1,5
480,4.26560,1.752,-1,5
481,4.26735,1.746,-1,5
482,4.26911,1.762,-1,5
483,4.27088,1.768,-1,5
484,4.27263,1.752,-1,5
485,4.27437,1.742,-1,5
486,4.27611,1.742,-1,5
487,4.27786,1.750,-1,5
488,4.27961,1.751,-1,5
489,4.28135,1.738,-1,5
490,4.28309,1.735,-1,5
491,4.28482,1.735,-1,5
492,4.28656,1.736,-1,5
493,4.28829,1.730,-1,5
494,4.29001,1.725,-1,5
495,4.29174,1.727,-1,5
496,4.29347,1.727,-1,5
497,4.29518,1.715,-1,5
498,4.29690,1.713,-1,5
499,4.29861,1.717,-1,5
500,4.30033,1.717,-1,5
501,4.30204,1.709,-1,5
502,4.30373,1.696,-1,5
503,4.30543,1.698,-1,5
504,4.30714,1.702,-1,5
505,4.30884,1.702,-1,5
506,4.31053,1.686,-1,5
507,4.31221,1.682,-1,5
508,4.31390,1.688,-1,5
509,4.31559,1.695,-1,5
510,4.31728,1.683,-1,5
511,4.31894,1.663,-1,5
512,4.32061,1.667,-1,5
513,4.32229,1.682,-1,5
514,4.32397,1.677,-1,5
515,4.32563,1.660,-1,5
516,4.32727,1.648,-1,5
517,4.32893,1.656,-1,5
518,4.33060,1.672,-1,5
519,4.33226,1.660,-1,5
520,4.33390,1.636,-1,5
521,4.33553,1.631,-1,5
522,4.33717,1.645,-1,5
523,4.33883,1.657,-1,5
524,4.34047,1.643,-1,5
525,4.34209,1.613,-1,5
526,4.34370,1.614,-1,5
527,4.34534,1.638,-1,5
528,4.34698,1.643,-1,5
529,4.34860,1.620,-1,5
530,4.35020,1.598,-1,5
531,4.35180,1.602,-1,5
532,4.35343,1.627,-1,5
533,4.35506,1.630,-1,5
534,4.35824,1.582,-1,5
535,4.35984,1.594,-1,5
536,4.36145,1.616,-1,5
537,4.36307,1.615,-1,5
538,4.36466,1.586,-1,5
539,4.36622,1.564,-1,5
540,4.36781,1.588,-1,5
541,4.36942,1.610,-1,5
542,4.37102,1.598,-1,5
543,4.37258,1.567,-1,5
544,4.37414,1.559,-1,5
545,4.37572,1.578,-1,5
546,4.37732,1.603,-1,5
547,4.37891,1.591,-1,5
548,4.38047,1.556,-1,5
549,4.38202,1.549,-1,5
550,4.38359,1.575,-1,5
551,4.38519,1.596,-1,5
552,4.38677,1.583,-1,5
553,4.38833,1.551,-1,5
554,4.38987,1.543,-1,5
555,4.39144,1.572,-1,5
556,4.39303,1.590,-1,5
557,4.39461,1.576,-1,5
558,4.39615,1.548,-1,5
559,4.39770,1.543,-1,5
560,4.39927,1.568,-1,5
561,4.40085,1.589,-1,5
562,4.40243,1.572,-1,5
563,4.40397,1.547,-1,5
564,4.40552,1.547,-1,5
565,4.40709,1.575,-1,5
566,4.40868,1.589,-1,5
567,4.41025,1.571,-1,5
568,4.41180,1.547,-1,5
569,4.41336,1.555,-1,5
570,4.41494,1.586,-1,5
571,4.41654,1.595,-1,5
572,4.41811,1.568,-1,5
573,4.41966,1.565,-1,5
574,4.42282,1.596,-1,5
575,4.42442,1.602,-1,5
576,4.42599,1.573,-1,5
577,4.42755,1.554,-1,5
578,4.42913,1.580,-1,5
579,4.43073,1.608,-1,5
580,4.43234,1.605,-1,5
581,4.43392,1.582,-1,5
582,4.43549,1.571,-1,5
583,4.43708,1.588,-1,5
584,4.43870,1.617,-1,5
585,4.44031,1.614,-1,5
586,4.44190,1.589,-1,5
587,4.44349,1.586,-1,5
588,4.44509,1.603,-1,5
589,4.44671,1.620,-1,5
590,4.44833,1.620,-1,5
591,4.44993,1.598,-1,5
592,4.45152,1.596,-1,5
593,4.45314,1.614,-1,5
594,4.45476,1.627,-1,5
595,4.45638,1.620,-1,5
596,4.45799,1.609,-1,5
597,4.45959,1.602,-1,5
598,4.46122,1.620,-1,5
599,4.46285,1.638,-1,5
600,4.46448,1.626,-1,5
601,4.46609,1.610,-1,5
602,4.46770,1.610,-1,5
603,4.46933,1.627,-1,5
604,4.47097,1.640,-1,5
605,4.47260,1.630,-1,5
606,4.47420,1.609,-1,5
607,4.47582,1.614,-1,5
608,4.47745,1.631,-1,5
609,4.47909,1.639,-1,5
610,4.48072,1.630,-1,5
611,4.48233,1.614,-1,5
612,4.48394,1.630,-1,5
613,4.48557,1.630,-1,5
614,4.48884,1.625,-1,5
615,4.48884,1.617,-1,5
616,4.49046,1.617,-1,5
617,4.49207,1.617,-1,5
618,4.49534,1.637,-1,5
619,4.49696,1.625,-1,5
620,4.49857,1.611,-1,5
621,4.50019,1.616,-1,5
622,4.50182,1.628,-1,5
623,4.50345,1.630,-1,5
624,4.50507,1.620,-1,5
625,4.50667,1.605,-1,5
626,4.50828,1.611,-1,5
627,4.50991,1.629,-1,5
628,4.51154,1.623,-1,5
629,4.51314,1.603,-1,5
630,4.51474,1.599,-1,5
631,4.51635,1.609,-1,5
632,4.51797,1.623,-1,5
633,4.51959,1.619,-1,5
634,4.52119,1.595,-1,5
635,4.52277,1.587,-1,5
636,4.52438,1.605,-1,5
637,4.52599,1.617,-1,5
638,4.52761,1.611,-1,5
639,4.52920,1.589,-1,5
640,4.53077,1.577,-1,5
641,4.53237,1.596,-1,5
642,4.53398,1.613,-1,5
643,4.53558,1.601,-1,5
644,4.53716,1.580,-1,5
645,4.53874,1.576,-1,5
646,4.54033,1.588,-1,5
647,4.54193,1.606,-1,5
648,4.54353,1.595,-1,5
649,4.54510,1.573,-1,5
650,4.54667,1.572,-1,5
651,4.54827,1.592,-1,5
652,4.54986,1.590,-1,5
653,4.55302,1.570,-1,5
654,4.55459,1.569,-1,5
655,4.55618,1.592,-1,5
656,4.55779,1.603,-1,5
657,4.55937,1.581,-1,5
658,4.56093,1.565,-1,5
659,4.56251,1.574,-1,5
660,4.56410,1.595,-1,5
661,4.56571,1.603,-1,5
662,4.56729,1.584,-1,5
663,4.56886,1.565,-1,5
664,4.57043,1.578,-1,5
665,4.57204,1.603,-1,5
666,4.57364,1.605,-1,5
667,4.57523,1.589,-1,5
668,4.57680,1.574,-1,5
669,4.57839,1.585,-1,5
670,4.58000,1.612,-1,5
671,4.58161,1.614,-1,5
672,4.58321,1.594,-1,5
673,4.58480,1.587,-1,5
674,4.58640,1.600,-1,5
675,4.58802,1.619,-1,5
676,4.58964,1.622,-1,5
677,4.59124,1.605,-1,5
678,4.59284,1.598,-1,5
679,4.59446,1.617,-1,5
680,4.59609,1.633,-1,5
681,4.59772,1.629,-1,5
682,4.59934,1.618,-1,5
683,4.60095,1.614,-1,5
684,4.60259,1.633,-1,5
685,4.60424,1.650,-1,5
686,4.60588,1.643,-1,5
687,4.60751,1.631,-1,5
688,4.60914,1.636,-1,5
689,4.61080,1.651,-1,5
690,4.61246,1.661,-1,5
691,4.61577,1.646,-1,5
692,4.61742,1.651,-1,5
693,4.61909,1.671,-1,5
694,4.62077,1.682,-1,5
695,4.62245,1.677,-1,5
696,4.62411,1.662,-1,5
697,4.62578,1.665,-1,5
698,4.62747,1.692,-1,5
699,4.62917,1.704,-1,5
700,4.63087,1.692,-1,5
701,4.63255,1.679,-1,5
702,4.63423,1.687,-1,5
703,4.63594,1.712,-1,5
704,4.63767,1.722,-1,5
705,4.63937,1.703,-1,5
706,4.64107,1.697,-1,5
707,4.64278,1.712,-1,5
708,4.64451,1.733,-1,5
709,4.64624,1.733,-1,5
710,4.64796,1.714,-1,5
711,4.64967,1.712,-1,5
712,4.65141,1.739,-1,5
713,4.65316,1.753,-1,5
714,4.65490,1.741,-1,5
715,4.65663,1.722,-1,5
716,4.65836,1.733,-1,5
717,4.66012,1.766,-1,5
718,4.66189,1.767,-1,5
719,4.66363,1.743,-1,5
720,4.66537,1.737,-1,5
721,4.66713,1.756,-1,5
722,4.66891,1.782,-1,5
723,4.67069,1.778,-1,5
724,4.67243,1.748,-1,5
725,4.67418,1.750,-1,5
726,4.67596,1.777,-1,5
727,4.67775,1.792,-1,5
728,4.67953,1.780,-1,5
729,4.68129,1.755,-1,5
730,4.68306,1.793,-1,5
731,4.68485,1.793,-1,5
732,4.68843,1.782,-1,5
733,4.68843,1.770,-1,5
734,4.69020,1.783,-1,5
735,4.69198,1.783,-1,5
736,4.69378,1.799,-1,5
737,4.69558,1.786,-1,5
738,4.69915,1.785,-1,5
739,4.70095,1.797,-1,5
740,4.70276,1.808,-1,5
741,4.70456,1.799,-1,5
742,4.70635,1.792,-1,5
743,4.70815,1.802,-1,5
744,4.70996,1.808,-1,5
745,4.71177,1.807,-1,5
746,4.71357,1.801,-1,5
747,4.71537,1.806,-1,5
748,4.71719,1.815,-1,5
749,4.71900,1.813,-1,5
750,4.72081,1.805,-1,5
751,4.72262,1.811,-1,5
752,4.72443,1.816,-1,5
753,4.72625,1.820,-1,5
754,4.72807,1.814,-1,5
755,4.72987,1.808,-1,5
756,4.73169,1.820,-1,5
757,4.73351,1.820,-1,5
758,4.73533,1.821,-1,5
759,4.73715,1.814,-1,5
760,4.73897,1.817,-1,5
761,4.74079,1.825,-1,5
762,4.74261,1.823,-1,5
763,4.74444,1.822,-1,5
764,4.74626,1.822,-1,5
765,4.74808,1.823,-1,5
766,4.74991,1.827,-1,5
767,4.75173,1.822,-1,5
768,4.75355,1.825,-1,5
769,4.75539,1.825,-1,5
770,4.75903,1.824,-1,5
771,4.76086,1.820,-1,5
772,4.76269,1.830,-1,5
773,4.76269,1.830,-1,5
774,4.76452,1.826,-1,5
775,4.76635,1.826,-1,5
776,4.76999,1.823,-1,5
777,4.76999,1.836,-1,5
778,4.77367,1.840,-1,5
779,4.77549,1.824,-1,5
780,4.77731,1.818,-1,5
781,4.77914,1.828,-1,5
782,4.78097,1.836,-1,5
783,4.78281,1.839,-1,5
784,4.78464,1.826,-1,5
785,4.78646,1.822,-1,5
786,4.78829,1.829,-1,5
787,4.79012,1.832,-1,5
788,4.79195,1.835,-1,5
789,4.79378,1.830,-1,5
790,4.79561,1.822,-1,5
791,4.79743,1.827,-1,5
792,4.79926,1.827,-1,5
793,4.80110,1.835,-1,5
794,4.80293,1.832,-1,5
795,4.80475,1.819,-1,5
796,4.80657,1.819,-1,5
797,4.80839,1.824,-1,5
798,4.81022,1.834,-1,5
799,4.81206,1.834,-1,5
800,4.81387,1.811,-1,5
801,4.81568,1.811,-1,5
802,4.81750,1.823,-1,5
803,4.81933,1.831,-1,5
804,4.82116,1.825,-1,5
805,4.82296,1.802,-1,5
806,4.82477,1.808,-1,5
807,4.82659,1.821,-1,5
808,4.82842,1.825,-1,5
809,4.83023,1.813,-1,5
810,4.83203,1.797,-1,5
811,4.83383,1.805,-1,5
812,4.83565,1.818,-1,5
813,4.83746,1.813,-1,5
814,4.83926,1.798,-1,5
815,4.84106,1.798,-1,5
816,4.84286,1.801,-1,5
817,4.84466,1.806,-1,5
818,4.84646,1.795,-1,5
819,4.85005,1.796,-1,5
820,4.85184,1.792,-1,5
821,4.85363,1.787,-1,5
822,4.85542,1.789,-1,5
823,4.85721,1.792,-1,5
824,4.85900,1.793,-1,5
825,4.86078,1.773,-1,5
826,4.86255,1.776,-1,5
827,4.86434,1.785,-1,5
828,4.86613,1.791,-1,5
829,4.86791,1.777,-1,5
830,4.86967,1.759,-1,5
831,4.87144,1.769,-1,5
832,4.87322,1.783,-1,5
833,4.87500,1.777,-1,5
834,4.87675,1.758,-1,5
835,4.87851,1.753,-1,5
836,4.88027,1.767,-1,5
837,4.88205,1.775,-1,5
838,4.88381,1.760,-1,5
839,4.88555,1.743,-1,5
840,4.88730,1.753,-1,5
841,4.88907,1.764,-1,5
842,4.89083,1.758,-1,5
843,4.89257,1.741,-1,5
844,4.89430,1.736,-1,5
845,4.89606,1.752,-1,5
846,4.89781,1.755,-1,5
847,4.89955,1.738,-1,5
848,4.90127,1.724,-1,5
849,4.90300,1.730,-1,5
850,4.90475,1.748,-1,5
851,4.90650,1.744,-1,5
852,4.90821,1.719,-1,5
853,4.90992,1.711,-1,5
854,4.91165,1.728,-1,5
855,4.91339,1.739,-1,5
856,4.91512,1.728,-1,5
857,4.91853,1.704,-1,5
858,4.92025,1.725,-1,5
859,4.92198,1.726,-1,5
860,4.92369,1.710,-1,5
861,4.92538,1.692,-1,5
862,4.92707,1.697,-1,5
863,4.92879,1.715,-1,5
864,4.93050,1.709,-1,5
865,4.93219,1.690,-1,5
866,4.93387,1.685,-1,5
867,4.93557,1.694,-1,5
868,4.93727,1.699,-1,5
869,4.93896,1.690,-1,5
870,4.94063,1.676,-1,5
871,4.94231,1.681,-1,5
872,4.94401,1.692,-1,5
873,4.94569,1.685,-1,5
