cnt,pos,speed,Dir,Force,
1,3.14995,1.017,-1,5
2,3.15099,1.034,-1,5
3,3.15202,1.032,-1,5
4,3.15304,1.024,-1,5
5,3.15408,1.033,-1,5
6,3.15514,1.060,-1,5
7,3.15621,1.073,-1,5
8,3.15728,1.069,-1,5
9,3.15834,1.065,-1,5
10,3.15943,1.085,-1,5
11,3.16054,1.108,-1,5
12,3.16165,1.112,-1,5
13,3.16275,1.099,-1,5
14,3.16385,1.105,-1,5
15,3.16499,1.136,-1,5
16,3.16615,1.158,-1,5
17,3.16729,1.148,-1,5
18,3.16843,1.136,-1,5
19,3.16959,1.156,-1,5
20,3.17077,1.186,-1,5
21,3.17196,1.191,-1,5
22,3.17314,1.177,-1,5
23,3.17433,1.187,-1,5
24,3.17554,1.214,-1,5
25,3.17677,1.227,-1,5
26,3.17798,1.217,-1,5
27,3.17920,1.216,-1,5
28,3.18044,1.242,-1,5
29,3.18170,1.259,-1,5
30,3.18297,1.263,-1,5
31,3.18423,1.260,-1,5
32,3.18549,1.268,-1,5
33,3.18678,1.284,-1,5
34,3.18808,1.298,-1,5
35,3.18939,1.312,-1,5
36,3.19201,1.312,-1,5
37,3.19201,1.312,-1,5
38,3.19334,1.347,-1,5
39,3.19469,1.351,-1,5
40,3.19739,1.353,-1,5
41,3.19739,1.369,-1,5
42,3.19876,1.386,-1,5
43,3.20153,1.388,-1,5
44,3.20292,1.392,-1,5
45,3.20433,1.402,-1,5
46,3.20575,1.422,-1,5
47,3.20718,1.434,-1,5
48,3.20862,1.441,-1,5
49,3.21006,1.440,-1,5
50,3.21151,1.448,-1,5
51,3.21299,1.476,-1,5
52,3.21448,1.492,-1,5
53,3.21597,1.488,-1,5
54,3.21746,1.494,-1,5
55,3.21897,1.507,-1,5
56,3.22050,1.530,-1,5
57,3.22204,1.544,-1,5
58,3.22359,1.551,-1,5
59,3.22514,1.548,-1,5
60,3.22671,1.566,-1,5
61,3.22830,1.593,-1,5
62,3.22990,1.603,-1,5
63,3.23151,1.605,-1,5
64,3.23312,1.611,-1,5
65,3.23474,1.625,-1,5
66,3.23640,1.652,-1,5
67,3.23806,1.669,-1,5
68,3.23973,1.667,-1,5
69,3.24140,1.672,-1,5
70,3.24310,1.693,-1,5
71,3.24482,1.719,-1,5
72,3.24655,1.736,-1,5
73,3.24828,1.733,-1,5
74,3.25002,1.737,-1,5
75,3.25178,1.760,-1,5
76,3.25357,1.788,-1,5
77,3.25537,1.806,-1,5
78,3.25718,1.804,-1,5
79,3.25898,1.803,-1,5
80,3.26081,1.831,-1,5
81,3.26267,1.861,-1,5
82,3.26455,1.875,-1,5
83,3.26642,1.871,-1,5
84,3.26830,1.876,-1,5
85,3.27020,1.906,-1,5
86,3.27214,1.935,-1,5
87,3.27408,1.944,-1,5
88,3.27602,1.943,-1,5
89,3.27798,1.953,-1,5
90,3.28197,2.007,-1,5
91,3.28398,2.015,-1,5
92,3.28600,2.019,-1,5
93,3.28804,2.033,-1,5
94,3.29010,2.062,-1,5
95,3.29218,2.080,-1,5
96,3.29427,2.093,-1,5
97,3.29637,2.096,-1,5
98,3.29848,2.110,-1,5
99,3.30061,2.137,-1,5
100,3.30278,2.162,-1,5
101,3.30494,2.170,-1,5
102,3.30711,2.168,-1,5
103,3.30930,2.189,-1,5
104,3.31152,2.222,-1,5
105,3.31376,2.240,-1,5
106,3.31600,2.237,-1,5
107,3.31825,2.245,-1,5
108,3.32052,2.270,-1,5
109,3.32281,2.298,-1,5
110,3.32512,2.310,-1,5
111,3.32743,2.308,-1,5
112,3.32975,2.320,-1,5
113,3.33210,2.349,-1,5
114,3.33447,2.372,-1,5
115,3.33685,2.377,-1,5
116,3.33923,2.376,-1,5
117,3.34162,2.395,-1,5
118,3.34404,2.422,-1,5
119,3.34648,2.439,-1,5
120,3.34892,2.442,-1,5
121,3.35137,2.451,-1,5
122,3.35384,2.462,-1,5
123,3.35632,2.486,-1,5
124,3.35883,2.503,-1,5
125,3.36134,2.510,-1,5
126,3.36385,2.511,-1,5
127,3.36637,2.527,-1,5
128,3.36892,2.545,-1,5
129,3.37148,2.563,-1,5
130,3.37405,2.568,-1,5
131,3.37661,2.564,-1,5
132,3.37919,2.580,-1,5
133,3.38180,2.603,-1,5
134,3.38441,2.611,-1,5
135,3.38702,2.611,-1,5
136,3.38964,2.617,-1,5
137,3.39227,2.631,-1,5
138,3.39491,2.639,-1,5
139,3.39756,2.651,-1,5
140,3.40286,2.651,-1,5
141,3.40552,2.664,-1,5
142,3.40820,2.676,-1,5
143,3.41088,2.678,-1,5
144,3.41355,2.676,-1,5
145,3.41623,2.679,-1,5
146,3.41892,2.690,-1,5
147,3.42162,2.699,-1,5
148,3.42432,2.694,-1,5
149,3.42701,2.693,-1,5
150,3.42970,2.697,-1,5
151,3.43241,2.701,-1,5
152,3.43512,2.710,-1,5
153,3.43782,2.708,-1,5
154,3.44052,2.698,-1,5
155,3.44322,2.702,-1,5
156,3.44594,2.712,-1,5
157,3.44865,2.709,-1,5
158,3.45135,2.703,-1,5
159,3.45405,2.699,-1,5
160,3.45946,2.704,-1,5
161,3.46215,2.699,-1,5
162,3.46485,2.691,-1,5
163,3.46754,2.691,-1,5
164,3.47023,2.691,-1,5
165,3.47292,2.688,-1,5
166,3.47559,2.679,-1,5
167,3.47827,2.672,-1,5
168,3.48094,2.670,-1,5
169,3.48361,2.675,-1,5
170,3.48628,2.664,-1,5
171,3.48893,2.647,-1,5
172,3.49157,2.647,-1,5
173,3.49422,2.648,-1,5
174,3.49686,2.642,-1,5
175,3.49949,2.629,-1,5
176,3.50212,2.624,-1,5
177,3.50473,2.614,-1,5
178,3.50735,2.615,-1,5
179,3.50995,2.606,-1,5
180,3.51255,2.594,-1,5
181,3.51513,2.586,-1,5
182,3.51771,2.577,-1,5
183,3.52028,2.572,-1,5
184,3.52285,2.565,-1,5
185,3.52540,2.550,-1,5
186,3.52793,2.536,-1,5
187,3.53047,2.537,-1,5
188,3.53300,2.530,-1,5
189,3.53551,2.513,-1,5
190,3.53801,2.498,-1,5
191,3.54051,2.496,-1,5
192,3.54299,2.485,-1,5
193,3.54546,2.472,-1,5
194,3.54793,2.461,-1,5
195,3.55037,2.449,-1,5
196,3.55281,2.436,-1,5
197,3.55524,2.431,-1,5
198,3.55766,2.419,-1,5
199,3.56006,2.402,-1,5
200,3.56245,2.392,-1,5
201,3.56483,2.381,-1,5
202,3.56720,2.369,-1,5
203,3.56957,2.362,-1,5
204,3.57191,2.343,-1,5
205,3.57423,2.326,-1,5
206,3.57656,2.322,-1,5
207,3.57887,2.316,-1,5
208,3.58117,2.294,-1,5
209,3.58344,2.274,-1,5
210,3.58571,2.274,-1,5
211,3.58798,2.263,-1,5
212,3.59022,2.245,-1,5
213,3.59245,2.227,-1,5
214,3.59467,2.220,-1,5
215,3.59688,2.210,-1,5
216,3.59907,2.194,-1,5
217,3.60125,2.178,-1,5
218,3.60341,2.163,-1,5
219,3.60557,2.156,-1,5
220,3.60771,2.145,-1,5
221,3.60984,2.129,-1,5
222,3.61195,2.111,-1,5
223,3.61406,2.104,-1,5
224,3.61615,2.093,-1,5
225,3.61823,2.079,-1,5
226,3.62029,2.064,-1,5
227,3.62235,2.051,-1,5
228,3.62439,2.045,-1,5
229,3.62642,2.033,-1,5
230,3.62844,2.014,-1,5
231,3.63044,2.002,-1,5
232,3.63244,1.996,-1,5
233,3.63443,1.992,-1,5
234,3.63640,1.971,-1,5
235,3.63836,1.956,-1,5
236,3.64030,1.948,-1,5
237,3.64225,1.947,-1,5
238,3.64419,1.938,-1,5
239,3.64611,1.918,-1,5
240,3.64802,1.910,-1,5
241,3.64992,1.905,-1,5
242,3.65183,1.907,-1,5
243,3.65372,1.888,-1,5
244,3.65559,1.874,-1,5
245,3.65746,1.869,-1,5
246,3.65933,1.867,-1,5
247,3.66119,1.865,-1,5
248,3.66305,1.854,-1,5
249,3.66489,1.841,-1,5
250,3.66673,1.838,-1,5
251,3.66856,1.833,-1,5
252,3.67040,1.839,-1,5
253,3.67223,1.833,-1,5
254,3.67404,1.812,-1,5
255,3.67585,1.811,-1,5
256,3.67767,1.819,-1,5
257,3.67950,1.828,-1,5
258,3.68132,1.816,-1,5
259,3.68311,1.794,-1,5
260,3.68491,1.799,-1,5
261,3.68673,1.816,-1,5
262,3.68855,1.823,-1,5
263,3.69035,1.804,-1,5
264,3.69214,1.789,-1,5
265,3.69394,1.803,-1,5
266,3.69577,1.825,-1,5
267,3.69759,1.823,-1,5
268,3.69940,1.804,-1,5
269,3.70120,1.799,-1,5
270,3.70486,1.840,-1,5
271,3.70486,1.826,-1,5
272,3.70668,1.818,-1,5
273,3.70850,1.818,-1,5
274,3.71033,1.830,-1,5
275,3.71218,1.849,-1,5
276,3.71403,1.843,-1,5
277,3.71773,1.850,-1,5
278,3.71959,1.869,-1,5
279,3.72147,1.877,-1,5
280,3.72334,1.873,-1,5
281,3.72522,1.877,-1,5
282,3.72712,1.898,-1,5
283,3.72903,1.908,-1,5
284,3.73093,1.904,-1,5
285,3.73284,1.912,-1,5
286,3.73477,1.930,-1,5
287,3.73672,1.947,-1,5
288,3.73866,1.945,-1,5
289,3.74061,1.947,-1,5
290,3.74457,1.986,-1,5
291,3.74656,1.993,-1,5
292,3.74855,1.991,-1,5
293,3.75056,2.010,-1,5
294,3.75259,2.031,-1,5
295,3.75463,2.041,-1,5
296,3.75668,2.049,-1,5
297,3.75874,2.058,-1,5
298,3.76082,2.077,-1,5
299,3.76291,2.092,-1,5
300,3.76502,2.109,-1,5
301,3.76714,2.119,-1,5
302,3.76926,2.126,-1,5
303,3.77141,2.143,-1,5
304,3.77358,2.169,-1,5
305,3.77576,2.186,-1,5
306,3.77795,2.186,-1,5
307,3.78015,2.200,-1,5
308,3.78238,2.229,-1,5
309,3.78463,2.250,-1,5
310,3.78688,2.255,-1,5
311,3.78915,2.264,-1,5
312,3.79143,2.288,-1,5
313,3.79375,2.314,-1,5
314,3.79607,2.327,-1,5
315,3.79841,2.337,-1,5
316,3.80075,2.343,-1,5
317,3.80313,2.378,-1,5
318,3.80553,2.398,-1,5
319,3.80793,2.404,-1,5
320,3.81034,2.412,-1,5
321,3.81278,2.438,-1,5
322,3.81525,2.464,-1,5
323,3.81772,2.475,-1,5
324,3.82020,2.480,-1,5
325,3.82270,2.502,-1,5
326,3.82523,2.524,-1,5
327,3.82777,2.542,-1,5
328,3.83032,2.551,-1,5
329,3.83289,2.565,-1,5
330,3.83547,2.582,-1,5
331,3.83807,2.607,-1,5
332,3.84070,2.622,-1,5
333,3.84332,2.629,-1,5
334,3.84597,2.643,-1,5
335,3.84863,2.663,-1,5
336,3.85132,2.688,-1,5
337,3.85402,2.700,-1,5
338,3.85672,2.705,-1,5
339,3.85945,2.725,-1,5
340,3.86220,2.753,-1,5
341,3.86497,2.767,-1,5
342,3.86774,2.772,-1,5
343,3.87053,2.787,-1,5
344,3.87334,2.810,-1,5
345,3.87617,2.830,-1,5
346,3.87901,2.843,-1,5
347,3.88186,2.850,-1,5
348,3.88473,2.867,-1,5
349,3.88762,2.891,-1,5
350,3.89053,2.906,-1,5
351,3.89344,2.918,-1,5
352,3.89637,2.926,-1,5
353,3.89932,2.945,-1,5
354,3.90228,2.969,-1,5
355,3.90526,2.978,-1,5
356,3.90825,2.992,-1,5
357,3.91126,3.003,-1,5
358,3.91428,3.020,-1,5
359,3.91732,3.041,-1,5
360,3.92037,3.054,-1,5
361,3.92344,3.065,-1,5
362,3.92651,3.078,-1,5
363,3.92961,3.097,-1,5
364,3.93272,3.112,-1,5
365,3.93585,3.131,-1,5
366,3.93900,3.141,-1,5
367,3.94215,3.153,-1,5
368,3.94532,3.192,-1,5
369,3.95172,3.202,-1,5
370,3.95172,3.218,-1,5
371,3.95494,3.218,-1,5
372,3.95817,3.231,-1,5
373,3.96141,3.248,-1,5
374,3.96468,3.266,-1,5
375,3.96796,3.278,-1,5
376,3.97125,3.288,-1,5
377,3.97455,3.305,-1,5
378,3.97787,3.321,-1,5
379,3.98120,3.332,-1,5
380,3.98455,3.344,-1,5
381,3.98791,3.358,-1,5
382,3.99128,3.371,-1,5
383,3.99467,3.390,-1,5
384,3.99807,3.399,-1,5
385,4.00148,3.409,-1,5
386,4.00490,3.426,-1,5
387,4.00834,3.436,-1,5
388,4.01179,3.449,-1,5
389,4.01524,3.457,-1,5
390,4.01871,3.468,-1,5
391,4.02219,3.481,-1,5
392,4.02569,3.494,-1,5
393,4.02918,3.496,-1,5
394,4.03269,3.505,-1,5
395,4.03621,3.519,-1,5
396,4.03973,3.527,-1,5
397,4.04327,3.532,-1,5
398,4.04680,3.535,-1,5
399,4.05035,3.548,-1,5
400,4.05390,3.555,-1,5
401,4.05746,3.559,-1,5
402,4.06103,3.564,-1,5
403,4.06459,3.567,-1,5
404,4.06817,3.574,-1,5
405,4.07175,3.578,-1,5
406,4.07533,3.582,-1,5
407,4.07892,3.587,-1,5
408,4.08250,3.588,-1,5
409,4.08609,3.588,-1,5
410,4.08968,3.594,-1,5
411,4.09328,3.591,-1,5
412,4.09687,3.596,-1,5
413,4.10047,3.594,-1,5
414,4.10406,3.592,-1,5
415,4.10765,3.591,-1,5
416,4.11124,3.589,-1,5
417,4.11841,3.586,-1,5
418,4.12199,3.580,-1,5
419,4.12557,3.579,-1,5
420,4.12914,3.574,-1,5
421,4.13271,3.569,-1,5
422,4.13628,3.568,-1,5
423,4.13984,3.562,-1,5
424,4.14340,3.559,-1,5
425,4.14695,3.553,-1,5
426,4.15050,3.550,-1,5
427,4.15405,3.544,-1,5
428,4.15758,3.536,-1,5
429,4.16112,3.532,-1,5
430,4.16465,3.529,-1,5
431,4.16817,3.520,-1,5
432,4.17168,3.514,-1,5
433,4.17519,3.507,-1,5
434,4.17869,3.504,-1,5
435,4.18218,3.495,-1,5
436,4.18567,3.485,-1,5
437,4.18915,3.479,-1,5
438,4.19262,3.474,-1,5
439,4.19609,3.467,-1,5
440,4.19955,3.460,-1,5
441,4.20300,3.452,-1,5
442,4.20645,3.446,-1,5
443,4.20989,3.438,-1,5
444,4.21332,3.432,-1,5
445,4.21674,3.426,-1,5
446,4.22016,3.416,-1,5
447,4.22357,3.411,-1,5
448,4.22697,3.402,-1,5
449,4.23037,3.397,-1,5
450,4.23376,3.387,-1,5
451,4.23714,3.384,-1,5
452,4.24051,3.373,-1,5
453,4.24388,3.364,-1,5
454,4.24724,3.357,-1,5
455,4.25059,3.353,-1,5
456,4.25393,3.344,-1,5
457,4.25727,3.329,-1,5
458,4.26060,3.322,-1,5
459,4.26392,3.322,-1,5
460,4.26723,3.305,-1,5
461,4.27054,3.305,-1,5
462,4.27383,3.297,-1,5
463,4.27712,3.290,-1,5
464,4.28041,3.283,-1,5
465,4.28369,3.276,-1,5
466,4.29022,3.262,-1,5
467,4.29348,3.256,-1,5
468,4.29673,3.248,-1,5
469,4.29997,3.243,-1,5
470,4.30321,3.239,-1,5
471,4.30644,3.229,-1,5
472,4.30966,3.218,-1,5
473,4.31287,3.215,-1,5
474,4.31608,3.212,-1,5
475,4.31929,3.202,-1,5
476,4.32248,3.194,-1,5
477,4.32566,3.184,-1,5
478,4.32885,3.184,-1,5
479,4.33203,3.177,-1,5
480,4.33520,3.173,-1,5
481,4.33835,3.155,-1,5
482,4.34151,3.159,-1,5
483,4.34466,3.151,-1,5
484,4.34781,3.145,-1,5
485,4.35094,3.137,-1,5
486,4.35407,3.127,-1,5
487,4.35719,3.124,-1,5
488,4.36032,3.122,-1,5
489,4.36343,3.113,-1,5
490,4.36653,3.099,-1,5
491,4.36963,3.098,-1,5
492,4.37272,3.095,-1,5
493,4.37581,3.086,-1,5
494,4.37888,3.076,-1,5
495,4.38195,3.071,-1,5
496,4.38501,3.059,-1,5
497,4.38807,3.060,-1,5
498,4.39112,3.050,-1,5
499,4.39416,3.039,-1,5
500,4.39719,3.032,-1,5
501,4.40022,3.026,-1,5
502,4.40324,3.017,-1,5
503,4.40625,3.012,-1,5
504,4.40925,2.998,-1,5
505,4.41224,2.992,-1,5
506,4.41522,2.981,-1,5
507,4.41819,2.973,-1,5
508,4.42116,2.964,-1,5
509,4.42411,2.953,-1,5
510,4.42706,2.946,-1,5
511,4.42999,2.935,-1,5
512,4.43292,2.924,-1,5
513,4.43583,2.913,-1,5
514,4.43874,2.906,-1,5
515,4.44163,2.888,-1,5
516,4.44452,2.888,-1,5
517,4.44739,2.859,-1,5
518,4.45025,2.859,-1,5
519,4.45310,2.848,-1,5
520,4.45593,2.839,-1,5
521,4.45876,2.828,-1,5
522,4.46158,2.815,-1,5
523,4.46717,2.790,-1,5
524,4.46995,2.778,-1,5
525,4.47272,2.771,-1,5
526,4.47548,2.756,-1,5
527,4.47821,2.739,-1,5
528,4.48094,2.727,-1,5
529,4.48366,2.723,-1,5
530,4.48637,2.708,-1,5
531,4.48906,2.692,-1,5
532,4.49175,2.682,-1,5
533,4.49441,2.668,-1,5
534,4.49708,2.661,-1,5
535,4.49972,2.649,-1,5
536,4.50236,2.634,-1,5
537,4.50498,2.622,-1,5
538,4.50759,2.606,-1,5
539,4.51019,2.600,-1,5
540,4.51278,2.591,-1,5
541,4.51535,2.573,-1,5
542,4.51791,2.558,-1,5
543,4.52046,2.554,-1,5
544,4.52301,2.542,-1,5
545,4.52553,2.527,-1,5
546,4.52805,2.514,-1,5
547,4.53055,2.508,-1,5
548,4.53305,2.494,-1,5
549,4.53553,2.483,-1,5
550,4.53801,2.475,-1,5
551,4.54047,2.462,-1,5
552,4.54292,2.451,-1,5
553,4.54536,2.443,-1,5
554,4.54780,2.435,-1,5
555,4.55022,2.422,-1,5
556,4.55263,2.413,-1,5
557,4.55504,2.403,-1,5
558,4.55743,2.398,-1,5
559,4.55982,2.389,-1,5
560,4.56220,2.381,-1,5
561,4.56457,2.366,-1,5
562,4.56694,2.368,-1,5
563,4.56930,2.364,-1,5
564,4.57165,2.350,-1,5
565,4.57634,2.345,-1,5
566,4.57634,2.339,-1,5
567,4.57868,2.332,-1,5
568,4.58101,2.332,-1,5
569,4.58334,2.327,-1,5
570,4.58566,2.327,-1,5
571,4.58798,2.323,-1,5
572,4.59031,2.323,-1,5
573,4.59494,2.318,-1,5
574,4.59726,2.316,-1,5
575,4.59957,2.316,-1,5
576,4.60189,2.319,-1,5
577,4.60421,2.319,-1,5
578,4.60653,2.322,-1,5
579,4.60886,2.326,-1,5
580,4.61119,2.325,-1,5
581,4.61352,2.336,-1,5
582,4.61586,2.340,-1,5
583,4.61821,2.347,-1,5
584,4.62055,2.345,-1,5
585,4.62292,2.365,-1,5
586,4.62529,2.373,-1,5
587,4.62767,2.378,-1,5
588,4.63006,2.389,-1,5
589,4.63246,2.405,-1,5
590,4.63488,2.419,-1,5
591,4.63732,2.432,-1,5
592,4.63976,2.445,-1,5
593,4.64222,2.463,-1,5
594,4.64471,2.486,-1,5
595,4.64721,2.503,-1,5
596,4.64973,2.515,-1,5
597,4.65227,2.543,-1,5
598,4.65484,2.569,-1,5
599,4.65743,2.592,-1,5
600,4.66004,2.611,-1,5
601,4.66269,2.645,-1,5
602,4.66536,2.669,-1,5
603,4.66805,2.697,-1,5
604,4.67079,2.732,-1,5
605,4.67355,2.761,-1,5
606,4.67634,2.792,-1,5
607,4.67917,2.829,-1,5
608,4.68203,2.864,-1,5
609,4.68493,2.899,-1,5
610,4.68787,2.937,-1,5
611,4.69085,2.979,-1,5
612,4.69387,3.017,-1,5
613,4.69692,3.056,-1,5
614,4.70002,3.103,-1,5
615,4.70317,3.188,-1,5
616,4.70636,3.188,-1,5
617,4.70959,3.239,-1,5
618,4.71288,3.285,-1,5
619,4.71621,3.329,-1,5
620,4.71959,3.378,-1,5
621,4.72302,3.482,-1,5
622,4.73003,3.530,-1,5
623,4.73361,3.581,-1,5
624,4.73724,3.632,-1,5
625,4.74093,3.686,-1,5
626,4.74467,3.742,-1,5
627,4.74846,3.792,-1,5
628,4.75230,3.842,-1,5
629,4.75620,3.899,-1,5
630,4.76016,3.957,-1,5
631,4.76416,4.005,-1,5
632,4.76822,4.056,-1,5
633,4.77233,4.110,-1,5
634,4.77649,4.165,-1,5
635,4.78071,4.214,-1,5
636,4.78497,4.265,-1,5
637,4.78929,4.315,-1,5
638,4.79366,4.370,-1,5
639,4.79808,4.418,-1,5
640,4.80254,4.465,-1,5
641,4.80705,4.509,-1,5
642,4.81161,4.556,-1,5
643,4.81621,4.603,-1,5
644,4.82085,4.641,-1,5
645,4.82553,4.683,-1,5
646,4.83026,4.726,-1,5
647,4.83502,4.762,-1,5
648,4.83982,4.797,-1,5
649,4.84465,4.835,-1,5
650,4.84952,4.864,-1,5
651,4.85442,4.900,-1,5
652,4.85935,4.932,-1,5
653,4.86431,4.959,-1,5
654,4.86929,4.982,-1,5
655,4.87430,5.008,-1,5
656,4.87933,5.033,-1,5
657,4.88438,5.055,-1,5
658,4.88945,5.069,-1,5
659,4.89454,5.086,-1,5
660,4.89964,5.102,-1,5
661,4.90476,5.116,-1,5
662,4.90989,5.131,-1,5
663,4.91503,5.142,-1,5
664,4.92018,5.145,-1,5
665,4.92533,5.155,-1,5
666,4.93050,5.167,-1,5
667,4.93567,5.169,-1,5
668,4.94084,5.172,-1,5
669,4.94601,5.175,-1,5
670,4.95119,5.181,-1,5
671,4.95637,5.179,-1,5
672,4.96155,5.177,-1,5
673,4.96673,5.175,-1,5
674,4.97190,5.174,-1,5
675,4.97707,5.171,-1,5
676,4.98224,5.168,-1,5
677,4.98740,5.160,-1,5
678,4.99255,5.153,-1,5
679,4.99770,5.153,-1,5
680,5.00286,5.151,-1,5
681,5.00799,5.138,-1,5
682,5.01312,5.128,-1,5
683,5.01824,5.122,-1,5
684,5.02847,5.109,-1,5
685,5.02847,5.109,-1,5
686,5.03356,5.079,-1,5
687,5.03864,5.079,-1,5
688,5.04371,5.061,-1,5
689,5.04877,5.061,-1,5
690,5.05382,5.042,-1,5
691,5.05886,5.023,-1,5
692,5.06889,5.007,-1,5
693,5.07389,4.998,-1,5
694,5.07888,4.990,-1,5
695,5.08386,4.981,-1,5
696,5.08882,4.965,-1,5
697,5.09377,4.942,-1,5
698,5.09869,4.927,-1,5
699,5.10361,4.922,-1,5
700,5.10852,4.908,-1,5
701,5.11341,4.888,-1,5
702,5.11828,4.869,-1,5
703,5.12313,4.854,-1,5
704,5.12798,4.846,-1,5
705,5.13281,4.834,-1,5
706,5.13763,4.813,-1,5
707,5.14242,4.795,-1,5
708,5.14721,4.784,-1,5
709,5.15198,4.773,-1,5
710,5.15674,4.757,-1,5
711,5.16147,4.734,-1,5
712,5.16619,4.722,-1,5
713,5.17090,4.709,-1,5
714,5.17560,4.694,-1,5
715,5.18027,4.675,-1,5
716,5.18493,4.658,-1,5
717,5.18957,4.641,-1,5
718,5.19420,4.631,-1,5
719,5.19882,4.615,-1,5
720,5.20341,4.596,-1,5
721,5.20799,4.577,-1,5
722,5.21255,4.563,-1,5
723,5.21710,4.550,-1,5
724,5.22164,4.534,-1,5
725,5.22615,4.511,-1,5
726,5.23064,4.495,-1,5
727,5.23512,4.477,-1,5
728,5.23958,4.462,-1,5
729,5.24403,4.443,-1,5
730,5.24845,4.425,-1,5
731,5.25286,4.405,-1,5
732,5.25725,4.391,-1,5
733,5.26162,4.374,-1,5
734,5.26597,4.353,-1,5
735,5.27031,4.333,-1,5
736,5.27462,4.318,-1,5
737,5.27893,4.305,-1,5
738,5.28321,4.285,-1,5
739,5.28748,4.264,-1,5
740,5.29172,4.244,-1,5
741,5.29595,4.231,-1,5
742,5.30436,4.197,-1,5
743,5.30854,4.173,-1,5
744,5.31269,4.157,-1,5
745,5.31684,4.141,-1,5
746,5.32096,4.123,-1,5
747,5.32507,4.108,-1,5
748,5.32915,4.087,-1,5
749,5.33322,4.071,-1,5
750,5.33728,4.056,-1,5
751,5.34132,4.042,-1,5
752,5.34534,4.020,-1,5
753,5.34935,4.006,-1,5
754,5.35334,3.990,-1,5
755,5.35732,3.979,-1,5
756,5.36128,3.963,-1,5
757,5.36522,3.942,-1,5
758,5.36915,3.931,-1,5
759,5.37307,3.918,-1,5
760,5.37698,3.904,-1,5
761,5.38087,3.890,-1,5
762,5.38474,3.872,-1,5
763,5.38860,3.861,-1,5
764,5.39245,3.850,-1,5
765,5.39629,3.840,-1,5
766,5.40011,3.821,-1,5
767,5.40392,3.806,-1,5
768,5.40772,3.802,-1,5
769,5.41151,3.791,-1,5
770,5.41529,3.778,-1,5
771,5.41905,3.766,-1,5
772,5.42281,3.756,-1,5
773,5.42656,3.746,-1,5
774,5.43029,3.739,-1,5
775,5.43402,3.725,-1,5
776,5.43774,3.718,-1,5
777,5.44144,3.704,-1,5
778,5.44514,3.702,-1,5
779,5.44884,3.692,-1,5
780,5.45252,3.679,-1,5
781,5.45619,3.674,-1,5
782,5.46352,3.662,-1,5
783,5.46717,3.655,-1,5
784,5.47082,3.648,-1,5
785,5.47082,3.640,-1,5
786,5.47810,3.638,-1,5
787,5.47810,3.637,-1,5
788,5.48174,3.633,-1,5
789,5.48537,3.624,-1,5
790,5.48899,3.624,-1,5
791,5.49262,3.624,-1,5
792,5.49987,3.624,-1,5
793,5.50348,3.620,-1,5
794,5.50710,3.615,-1,5
795,5.51072,3.618,-1,5
796,5.51433,3.617,-1,5
797,5.51795,3.619,-1,5
798,5.52157,3.618,-1,5
799,5.52519,3.616,-1,5
800,5.52881,3.620,-1,5
801,5.53243,3.624,-1,5
802,5.53605,3.621,-1,5
803,5.53967,3.622,-1,5
804,5.54330,3.624,-1,5
805,5.54693,3.628,-1,5
806,5.55056,3.633,-1,5
807,5.55419,3.633,-1,5
808,5.55783,3.638,-1,5
809,5.56147,3.642,-1,5
810,5.56512,3.647,-1,5
811,5.56877,3.650,-1,5
812,5.57242,3.653,-1,5
813,5.57608,3.658,-1,5
814,5.57975,3.665,-1,5
815,5.58342,3.670,-1,5
816,5.58709,3.674,-1,5
817,5.59077,3.678,-1,5
818,5.59445,3.686,-1,5
819,5.59815,3.692,-1,5
820,5.60184,3.692,-1,5
821,5.60554,3.701,-1,5
822,5.60925,3.708,-1,5
823,5.61296,3.716,-1,5
824,5.61669,3.723,-1,5
825,5.62041,3.727,-1,5
826,5.62415,3.736,-1,5
827,5.62789,3.741,-1,5
828,5.63164,3.750,-1,5
829,5.63540,3.757,-1,5
830,5.63916,3.774,-1,5
831,5.64672,3.783,-1,5
832,5.65050,3.787,-1,5
833,5.65430,3.798,-1,5
834,5.65811,3.805,-1,5
835,5.66192,3.813,-1,5
836,5.66574,3.820,-1,5
837,5.66957,3.830,-1,5
838,5.67341,3.841,-1,5
839,5.67726,3.846,-1,5
840,5.68111,3.855,-1,5
841,5.68498,3.865,-1,5
842,5.68885,3.877,-1,5
843,5.69274,3.888,-1,5
844,5.69664,3.895,-1,5
845,5.70054,3.907,-1,5
846,5.70446,3.919,-1,5
847,5.70839,3.929,-1,5
848,5.71233,3.936,-1,5
849,5.71628,3.951,-1,5
850,5.72024,3.964,-1,5
851,5.72422,3.973,-1,5
852,5.72820,3.985,-1,5
853,5.73220,3.997,-1,5
854,5.73621,4.011,-1,5
855,5.74023,4.022,-1,5
856,5.74426,4.034,-1,5
857,5.74831,4.049,-1,5
858,5.75237,4.059,-1,5
859,5.75645,4.077,-1,5
860,5.76054,4.088,-1,5
861,5.76464,4.103,-1,5
862,5.76875,4.115,-1,5
863,5.77289,4.132,-1,5
864,5.77703,4.148,-1,5
865,5.78119,4.159,-1,5
866,5.78537,4.176,-1,5
867,5.78956,4.191,-1,5
868,5.79377,4.207,-1,5
869,5.79799,4.223,-1,5
870,5.80223,4.237,-1,5
871,5.80648,4.248,-1,5
872,5.81075,4.271,-1,5
873,5.81504,4.287,-1,5
