cnt,pos,speed,Dir,Force,
1,3.25475,1.011,-1,5
2,3.25575,1.001,-1,5
3,3.25674,0.992,-1,5
4,3.25774,1.002,-1,5
5,3.25877,1.024,-1,5
6,3.25980,1.033,-1,5
7,3.26082,1.022,-1,5
8,3.26184,1.012,-1,5
9,3.26286,1.025,-1,5
10,3.26391,1.050,-1,5
11,3.26497,1.054,-1,5
12,3.26600,1.036,-1,5
13,3.26703,1.031,-1,5
14,3.26809,1.056,-1,5
15,3.26917,1.078,-1,5
16,3.27024,1.075,-1,5
17,3.27130,1.054,-1,5
18,3.27235,1.057,-1,5
19,3.27344,1.086,-1,5
20,3.27454,1.104,-1,5
21,3.27564,1.092,-1,5
22,3.27671,1.074,-1,5
23,3.27780,1.089,-1,5
24,3.27892,1.119,-1,5
25,3.28004,1.126,-1,5
26,3.28115,1.103,-1,5
27,3.28225,1.103,-1,5
28,3.28338,1.149,-1,5
29,3.28453,1.149,-1,5
30,3.28567,1.142,-1,5
31,3.28680,1.126,-1,5
32,3.28793,1.134,-1,5
33,3.28909,1.170,-1,5
34,3.29142,1.159,-1,5
35,3.29142,1.160,-1,5
36,3.29258,1.160,-1,5
37,3.29376,1.173,-1,5
38,3.29494,1.186,-1,5
39,3.29613,1.187,-1,5
40,3.29732,1.187,-1,5
41,3.29851,1.193,-1,5
42,3.29971,1.205,-1,5
43,3.30093,1.214,-1,5
44,3.30215,1.221,-1,5
45,3.30337,1.221,-1,5
46,3.30459,1.218,-1,5
47,3.30582,1.234,-1,5
48,3.30707,1.251,-1,5
49,3.30833,1.257,-1,5
50,3.30958,1.246,-1,5
51,3.31083,1.253,-1,5
52,3.31210,1.270,-1,5
53,3.31338,1.282,-1,5
54,3.31466,1.277,-1,5
55,3.31594,1.280,-1,5
56,3.31723,1.294,-1,5
57,3.31854,1.304,-1,5
58,3.31984,1.304,-1,5
59,3.32115,1.309,-1,5
60,3.32247,1.317,-1,5
61,3.32379,1.326,-1,5
62,3.32513,1.334,-1,5
63,3.32647,1.341,-1,5
64,3.32781,1.341,-1,5
65,3.32915,1.344,-1,5
66,3.33051,1.361,-1,5
67,3.33189,1.374,-1,5
68,3.33326,1.373,-1,5
69,3.33463,1.371,-1,5
70,3.33601,1.381,-1,5
71,3.33741,1.392,-1,5
72,3.33881,1.403,-1,5
73,3.34022,1.409,-1,5
74,3.34163,1.409,-1,5
75,3.34304,1.408,-1,5
76,3.34446,1.421,-1,5
77,3.34589,1.439,-1,5
78,3.34733,1.439,-1,5
79,3.34877,1.438,-1,5
80,3.35022,1.445,-1,5
81,3.35167,1.451,-1,5
82,3.35313,1.460,-1,5
83,3.35460,1.477,-1,5
84,3.35755,1.475,-1,5
85,3.35903,1.477,-1,5
86,3.35903,1.491,-1,5
87,3.36202,1.497,-1,5
88,3.36202,1.510,-1,5
89,3.36353,1.507,-1,5
90,3.36503,1.505,-1,5
91,3.36805,1.511,-1,5
92,3.36958,1.532,-1,5
93,3.37112,1.534,-1,5
94,3.37265,1.536,-1,5
95,3.37418,1.529,-1,5
96,3.37572,1.535,-1,5
97,3.37727,1.550,-1,5
98,3.37883,1.566,-1,5
99,3.38039,1.562,-1,5
100,3.38194,1.549,-1,5
101,3.38350,1.554,-1,5
102,3.38507,1.571,-1,5
103,3.38666,1.588,-1,5
104,3.38824,1.587,-1,5
105,3.38981,1.572,-1,5
106,3.39138,1.565,-1,5
107,3.39297,1.587,-1,5
108,3.39457,1.606,-1,5
109,3.39618,1.607,-1,5
110,3.39777,1.590,-1,5
111,3.39935,1.580,-1,5
112,3.40094,1.594,-1,5
113,3.40257,1.622,-1,5
114,3.40418,1.617,-1,5
115,3.40578,1.599,-1,5
116,3.40738,1.593,-1,5
117,3.40898,1.606,-1,5
118,3.41061,1.625,-1,5
119,3.41223,1.624,-1,5
120,3.41384,1.605,-1,5
121,3.41543,1.599,-1,5
122,3.41705,1.617,-1,5
123,3.41868,1.629,-1,5
124,3.42030,1.623,-1,5
125,3.42191,1.607,-1,5
126,3.42351,1.602,-1,5
127,3.42513,1.622,-1,5
128,3.42677,1.633,-1,5
129,3.42838,1.617,-1,5
130,3.42998,1.600,-1,5
131,3.43158,1.600,-1,5
132,3.43484,1.632,-1,5
133,3.43645,1.610,-1,5
134,3.43803,1.586,-1,5
135,3.43963,1.596,-1,5
136,3.44125,1.619,-1,5
137,3.44287,1.622,-1,5
138,3.44447,1.599,-1,5
139,3.44605,1.577,-1,5
140,3.44764,1.587,-1,5
141,3.44925,1.613,-1,5
142,3.45086,1.610,-1,5
143,3.45244,1.579,-1,5
144,3.45400,1.566,-1,5
145,3.45558,1.579,-1,5
146,3.45718,1.597,-1,5
147,3.45877,1.589,-1,5
148,3.46033,1.559,-1,5
149,3.46188,1.551,-1,5
150,3.46345,1.568,-1,5
151,3.46502,1.578,-1,5
152,3.46659,1.564,-1,5
153,3.46813,1.542,-1,5
154,3.46966,1.534,-1,5
155,3.47122,1.551,-1,5
156,3.47278,1.563,-1,5
157,3.47432,1.544,-1,5
158,3.47584,1.518,-1,5
159,3.47736,1.520,-1,5
160,3.47889,1.535,-1,5
161,3.48043,1.538,-1,5
162,3.48196,1.525,-1,5
163,3.48346,1.504,-1,5
164,3.48496,1.500,-1,5
165,3.48648,1.515,-1,5
166,3.48800,1.520,-1,5
167,3.48950,1.502,-1,5
168,3.49099,1.491,-1,5
169,3.49248,1.492,-1,5
170,3.49398,1.496,-1,5
171,3.49548,1.499,-1,5
172,3.49697,1.490,-1,5
173,3.49845,1.482,-1,5
174,3.49993,1.482,-1,5
175,3.50142,1.482,-1,5
176,3.50290,1.482,-1,5
177,3.50437,1.477,-1,5
178,3.50585,1.477,-1,5
179,3.50733,1.474,-1,5
180,3.51027,1.470,-1,5
181,3.51175,1.476,-1,5
182,3.51323,1.476,-1,5
183,3.51470,1.475,-1,5
184,3.51617,1.470,-1,5
185,3.51763,1.463,-1,5
186,3.51911,1.472,-1,5
187,3.52059,1.485,-1,5
188,3.52207,1.476,-1,5
189,3.52353,1.461,-1,5
190,3.52500,1.468,-1,5
191,3.52647,1.479,-1,5
192,3.52796,1.486,-1,5
193,3.52945,1.488,-1,5
194,3.53092,1.471,-1,5
195,3.53239,1.469,-1,5
196,3.53388,1.489,-1,5
197,3.53538,1.499,-1,5
198,3.53687,1.492,-1,5
199,3.53836,1.488,-1,5
200,3.53984,1.488,-1,5
201,3.54134,1.498,-1,5
202,3.54285,1.505,-1,5
203,3.54436,1.509,-1,5
204,3.54586,1.504,-1,5
205,3.54737,1.511,-1,5
206,3.54889,1.516,-1,5
207,3.55040,1.517,-1,5
208,3.55193,1.522,-1,5
209,3.55346,1.533,-1,5
210,3.55499,1.531,-1,5
211,3.55652,1.534,-1,5
212,3.55806,1.537,-1,5
213,3.55961,1.549,-1,5
214,3.56117,1.556,-1,5
215,3.56272,1.557,-1,5
216,3.56427,1.553,-1,5
217,3.56584,1.562,-1,5
218,3.56742,1.582,-1,5
219,3.56900,1.585,-1,5
220,3.57057,1.572,-1,5
221,3.57215,1.576,-1,5
222,3.57375,1.596,-1,5
223,3.57697,1.610,-1,5
224,3.57697,1.610,-1,5
225,3.58017,1.605,-1,5
226,3.58180,1.630,-1,5
227,3.58344,1.641,-1,5
228,3.58508,1.638,-1,5
229,3.58671,1.633,-1,5
230,3.58835,1.641,-1,5
231,3.59002,1.665,-1,5
232,3.59170,1.677,-1,5
233,3.59336,1.669,-1,5
234,3.59503,1.668,-1,5
235,3.59671,1.682,-1,5
236,3.59841,1.701,-1,5
237,3.60013,1.711,-1,5
238,3.60183,1.706,-1,5
239,3.60354,1.707,-1,5
240,3.60527,1.727,-1,5
241,3.60701,1.741,-1,5
242,3.60876,1.749,-1,5
243,3.61050,1.748,-1,5
244,3.61226,1.755,-1,5
245,3.61403,1.772,-1,5
246,3.61582,1.790,-1,5
247,3.61761,1.791,-1,5
248,3.61941,1.793,-1,5
249,3.62121,1.804,-1,5
250,3.62304,1.828,-1,5
251,3.62488,1.840,-1,5
252,3.62671,1.838,-1,5
253,3.62856,1.841,-1,5
254,3.63041,1.858,-1,5
255,3.63230,1.884,-1,5
256,3.63419,1.895,-1,5
257,3.63608,1.888,-1,5
258,3.63798,1.894,-1,5
259,3.63990,1.920,-1,5
260,3.64184,1.945,-1,5
261,3.64379,1.947,-1,5
262,3.64573,1.939,-1,5
263,3.64769,1.959,-1,5
264,3.64967,1.985,-1,5
265,3.65167,2.001,-1,5
266,3.65367,2.000,-1,5
267,3.65567,2.002,-1,5
268,3.65770,2.022,-1,5
269,3.65974,2.045,-1,5
270,3.66386,2.057,-1,5
271,3.66592,2.065,-1,5
272,3.66800,2.083,-1,5
273,3.67011,2.110,-1,5
274,3.67223,2.120,-1,5
275,3.67435,2.114,-1,5
276,3.67647,2.122,-1,5
277,3.67862,2.151,-1,5
278,3.68080,2.178,-1,5
279,3.68297,2.174,-1,5
280,3.68514,2.167,-1,5
281,3.68733,2.187,-1,5
282,3.68955,2.224,-1,5
283,3.69178,2.233,-1,5
284,3.69401,2.224,-1,5
285,3.69624,2.233,-1,5
286,3.69850,2.261,-1,5
287,3.70078,2.281,-1,5
288,3.70307,2.287,-1,5
289,3.70535,2.285,-1,5
290,3.70765,2.297,-1,5
291,3.70998,2.328,-1,5
292,3.71232,2.343,-1,5
293,3.71466,2.337,-1,5
294,3.71700,2.342,-1,5
295,3.71937,2.370,-1,5
296,3.72176,2.391,-1,5
297,3.72415,2.392,-1,5
298,3.72654,2.391,-1,5
299,3.72896,2.412,-1,5
300,3.73383,2.445,-1,5
301,3.73628,2.448,-1,5
302,3.73628,2.454,-1,5
303,3.73874,2.469,-1,5
304,3.74121,2.469,-1,5
305,3.74370,2.491,-1,5
306,3.74620,2.501,-1,5
307,3.74870,2.504,-1,5
308,3.75121,2.514,-1,5
309,3.75374,2.529,-1,5
310,3.75629,2.547,-1,5
311,3.75885,2.555,-1,5
312,3.76140,2.559,-1,5
313,3.76397,2.568,-1,5
314,3.76657,2.592,-1,5
315,3.76917,2.605,-1,5
316,3.77177,2.601,-1,5
317,3.77439,2.615,-1,5
318,3.77702,2.630,-1,5
319,3.77966,2.646,-1,5
320,3.78231,2.651,-1,5
321,3.78497,2.658,-1,5
322,3.78764,2.670,-1,5
323,3.79033,2.684,-1,5
324,3.79302,2.695,-1,5
325,3.79572,2.702,-1,5
326,3.79843,2.710,-1,5
327,3.80115,2.716,-1,5
328,3.80388,2.733,-1,5
329,3.80662,2.742,-1,5
330,3.80937,2.743,-1,5
331,3.81212,2.749,-1,5
332,3.81488,2.766,-1,5
333,3.81765,2.771,-1,5
334,3.82043,2.772,-1,5
335,3.82321,2.782,-1,5
336,3.82600,2.789,-1,5
337,3.82879,2.797,-1,5
338,3.83160,2.802,-1,5
339,3.83440,2.806,-1,5
340,3.83721,2.807,-1,5
341,3.84003,2.819,-1,5
342,3.84285,2.825,-1,5
343,3.84568,2.830,-1,5
344,3.84851,2.825,-1,5
345,3.85134,2.837,-1,5
346,3.85419,2.843,-1,5
347,3.85703,2.843,-1,5
348,3.85988,2.846,-1,5
349,3.86273,2.850,-1,5
350,3.86558,2.851,-1,5
351,3.86843,2.855,-1,5
352,3.87129,2.861,-1,5
353,3.87415,2.860,-1,5
354,3.87701,2.860,-1,5
355,3.87987,2.863,-1,5
356,3.88274,2.864,-1,5
357,3.88560,2.864,-1,5
358,3.88847,2.866,-1,5
359,3.89133,2.863,-1,5
360,3.89420,2.869,-1,5
361,3.89707,2.867,-1,5
362,3.89994,2.868,-1,5
363,3.90280,2.866,-1,5
364,3.90566,2.863,-1,5
365,3.90853,2.869,-1,5
366,3.91140,2.867,-1,5
367,3.91426,2.858,-1,5
368,3.91712,2.861,-1,5
369,3.91998,2.861,-1,5
370,3.92284,2.861,-1,5
371,3.92570,2.859,-1,5
372,3.92855,2.851,-1,5
373,3.93140,2.851,-1,5
374,3.93425,2.849,-1,5
375,3.93710,2.850,-1,5
376,3.93995,2.846,-1,5
377,3.94279,2.840,-1,5
378,3.94562,2.837,-1,5
379,3.94846,2.835,-1,5
380,3.95129,2.832,-1,5
381,3.95412,2.829,-1,5
382,3.95694,2.824,-1,5
383,3.95976,2.816,-1,5
384,3.96257,2.811,-1,5
385,3.96538,2.812,-1,5
386,3.96819,2.805,-1,5
387,3.97099,2.799,-1,5
388,3.97378,2.794,-1,5
389,3.97657,2.786,-1,5
390,3.97935,2.785,-1,5
391,3.98213,2.778,-1,5
392,3.98490,2.766,-1,5
393,3.98767,2.766,-1,5
394,3.99043,2.761,-1,5
395,3.99319,2.758,-1,5
396,3.99594,2.753,-1,5
397,3.99868,2.739,-1,5
398,4.00142,2.737,-1,5
399,4.00688,2.727,-1,5
400,4.00960,2.717,-1,5
401,4.01231,2.714,-1,5
402,4.01502,2.708,-1,5
403,4.01773,2.706,-1,5
404,4.02043,2.700,-1,5
405,4.02311,2.685,-1,5
406,4.02579,2.682,-1,5
407,4.02847,2.678,-1,5
408,4.03115,2.673,-1,5
409,4.03381,2.665,-1,5
410,4.03647,2.650,-1,5
411,4.04177,2.650,-1,5
412,4.04441,2.640,-1,5
413,4.04703,2.628,-1,5
414,4.04966,2.628,-1,5
415,4.05228,2.621,-1,5
416,4.05490,2.612,-1,5
417,4.05750,2.608,-1,5
418,4.06010,2.599,-1,5
419,4.06270,2.593,-1,5
420,4.06528,2.587,-1,5
421,4.06787,2.586,-1,5
422,4.07044,2.572,-1,5
423,4.07301,2.566,-1,5
424,4.07557,2.566,-1,5
425,4.07813,2.559,-1,5
426,4.08068,2.552,-1,5
427,4.08322,2.541,-1,5
428,4.08576,2.538,-1,5
429,4.08830,2.537,-1,5
430,4.09083,2.532,-1,5
431,4.09335,2.518,-1,5
432,4.09587,2.518,-1,5
433,4.09838,2.514,-1,5
434,4.10089,2.508,-1,5
435,4.10339,2.501,-1,5
436,4.10589,2.500,-1,5
437,4.10838,2.495,-1,5
438,4.11087,2.490,-1,5
439,4.11336,2.487,-1,5
440,4.11585,2.484,-1,5
441,4.11833,2.481,-1,5
442,4.12080,2.476,-1,5
443,4.12328,2.476,-1,5
444,4.12575,2.474,-1,5
445,4.12822,2.472,-1,5
446,4.13069,2.467,-1,5
447,4.13316,2.471,-1,5
448,4.13563,2.471,-1,5
449,4.13810,2.467,-1,5
450,4.14056,2.463,-1,5
451,4.14303,2.471,-1,5
452,4.14550,2.470,-1,5
453,4.14797,2.465,-1,5
454,4.15044,2.467,-1,5
455,4.15291,2.474,-1,5
456,4.15538,2.472,-1,5
457,4.15785,2.472,-1,5
458,4.16033,2.477,-1,5
459,4.16281,2.477,-1,5
460,4.16528,2.477,-1,5
461,4.16776,2.480,-1,5
462,4.17025,2.486,-1,5
463,4.17274,2.487,-1,5
464,4.17523,2.490,-1,5
465,4.17771,2.488,-1,5
466,4.18021,2.494,-1,5
467,4.18271,2.499,-1,5
468,4.18521,2.502,-1,5
469,4.18771,2.498,-1,5
470,4.19021,2.505,-1,5
471,4.19272,2.509,-1,5
472,4.19523,2.511,-1,5
473,4.19774,2.512,-1,5
474,4.20026,2.518,-1,5
475,4.20278,2.517,-1,5
476,4.20530,2.521,-1,5
477,4.20783,2.525,-1,5
478,4.21035,2.525,-1,5
479,4.21541,2.526,-1,5
480,4.21794,2.531,-1,5
481,4.22047,2.532,-1,5
482,4.22300,2.534,-1,5
483,4.22553,2.528,-1,5
484,4.22807,2.533,-1,5
485,4.23060,2.533,-1,5
486,4.23313,2.530,-1,5
487,4.23566,2.529,-1,5
488,4.23819,2.531,-1,5
489,4.24071,2.526,-1,5
490,4.24324,2.522,-1,5
491,4.24576,2.525,-1,5
492,4.24828,2.521,-1,5
493,4.25080,2.515,-1,5
494,4.25331,2.510,-1,5
495,4.25582,2.513,-1,5
496,4.25833,2.508,-1,5
497,4.26083,2.503,-1,5
498,4.26333,2.497,-1,5
499,4.26583,2.497,-1,5
500,4.26832,2.492,-1,5
501,4.27080,2.487,-1,5
502,4.27328,2.480,-1,5
503,4.27576,2.479,-1,5
504,4.27824,2.475,-1,5
505,4.28071,2.467,-1,5
506,4.28317,2.465,-1,5
507,4.28563,2.463,-1,5
508,4.28809,2.456,-1,5
509,4.29054,2.447,-1,5
510,4.29299,2.451,-1,5
511,4.29543,2.445,-1,5
512,4.29787,2.438,-1,5
513,4.30030,2.433,-1,5
514,4.30273,2.432,-1,5
515,4.30516,2.429,-1,5
516,4.30759,2.426,-1,5
517,4.31001,2.417,-1,5
518,4.31242,2.416,-1,5
519,4.31484,2.415,-1,5
520,4.31725,2.416,-1,5
521,4.31966,2.404,-1,5
522,4.32206,2.403,-1,5
523,4.32447,2.408,-1,5
524,4.32687,2.405,-1,5
525,4.32927,2.396,-1,5
526,4.33167,2.402,-1,5
527,4.33647,2.395,-1,5
528,4.33887,2.397,-1,5
529,4.34127,2.404,-1,5
530,4.34367,2.399,-1,5
531,4.34607,2.397,-1,5
532,4.34847,2.403,-1,5
533,4.35088,2.406,-1,5
534,4.35328,2.406,-1,5
535,4.35569,2.409,-1,5
536,4.35810,2.413,-1,5
537,4.36052,2.414,-1,5
538,4.36294,2.419,-1,5
539,4.36536,2.425,-1,5
540,4.36779,2.427,-1,5
541,4.37022,2.433,-1,5
542,4.37266,2.442,-1,5
543,4.37511,2.442,-1,5
544,4.37756,2.449,-1,5
545,4.38002,2.464,-1,5
546,4.38249,2.469,-1,5
547,4.38496,2.470,-1,5
548,4.38744,2.486,-1,5
549,4.38994,2.496,-1,5
550,4.39244,2.502,-1,5
551,4.39495,2.511,-1,5
552,4.39748,2.528,-1,5
553,4.40002,2.537,-1,5
554,4.40257,2.549,-1,5
555,4.40513,2.559,-1,5
556,4.40770,2.575,-1,5
557,4.41029,2.592,-1,5
558,4.41289,2.600,-1,5
559,4.41551,2.616,-1,5
560,4.41814,2.631,-1,5
561,4.42079,2.648,-1,5
562,4.42345,2.659,-1,5
563,4.42613,2.680,-1,5
564,4.42882,2.696,-1,5
565,4.43153,2.707,-1,5
566,4.43426,2.727,-1,5
567,4.43700,2.745,-1,5
568,4.43976,2.762,-1,5
569,4.44254,2.779,-1,5
570,4.44534,2.798,-1,5
571,4.44816,2.814,-1,5
572,4.45099,2.830,-1,5
573,4.45384,2.855,-1,5
574,4.45671,2.873,-1,5
575,4.45960,2.888,-1,5
576,4.46251,2.909,-1,5
577,4.46544,2.929,-1,5
578,4.47135,2.969,-1,5
579,4.47434,2.989,-1,5
580,4.47735,3.009,-1,5
581,4.48038,3.025,-1,5
582,4.48343,3.050,-1,5
583,4.48650,3.069,-1,5
584,4.48959,3.089,-1,5
585,4.49269,3.107,-1,5
586,4.49582,3.132,-1,5
587,4.49898,3.151,-1,5
588,4.50215,3.173,-1,5
589,4.50534,3.193,-1,5
590,4.50855,3.211,-1,5
591,4.51178,3.231,-1,5
592,4.51504,3.256,-1,5
593,4.51831,3.273,-1,5
594,4.52161,3.294,-1,5
595,4.52492,3.312,-1,5
596,4.52825,3.333,-1,5
597,4.53161,3.356,-1,5
598,4.53498,3.370,-1,5
599,4.53837,3.393,-1,5
600,4.54178,3.407,-1,5
601,4.54521,3.430,-1,5
602,4.54866,3.449,-1,5
603,4.55212,3.464,-1,5
604,4.55560,3.480,-1,5
605,4.55910,3.500,-1,5
606,4.56262,3.520,-1,5
607,4.56616,3.536,-1,5
608,4.56971,3.554,-1,5
609,4.57328,3.566,-1,5
610,4.57686,3.588,-1,5
611,4.58047,3.601,-1,5
612,4.58408,3.618,-1,5
613,4.58772,3.632,-1,5
614,4.59136,3.648,-1,5
615,4.59502,3.662,-1,5
616,4.59870,3.677,-1,5
617,4.60239,3.690,-1,5
618,4.60609,3.702,-1,5
619,4.60980,3.711,-1,5
620,4.61353,3.727,-1,5
621,4.61727,3.738,-1,5
622,4.62102,3.749,-1,5
623,4.62478,3.758,-1,5
624,4.62854,3.764,-1,5
625,4.63232,3.781,-1,5
626,4.63611,3.790,-1,5
627,4.63990,3.793,-1,5
628,4.64370,3.799,-1,5
629,4.64751,3.811,-1,5
630,4.65133,3.817,-1,5
631,4.65516,3.823,-1,5
632,4.65898,3.824,-1,5
633,4.66281,3.831,-1,5
634,4.66664,3.834,-1,5
635,4.67048,3.840,-1,5
636,4.67432,3.839,-1,5
637,4.67816,3.841,-1,5
638,4.68201,3.843,-1,5
639,4.68585,3.843,-1,5
640,4.68969,3.843,-1,5
641,4.69354,3.841,-1,5
642,4.69737,3.839,-1,5
643,4.70122,3.835,-1,5
644,4.70889,3.834,-1,5
645,4.71272,3.834,-1,5
646,4.71655,3.827,-1,5
647,4.72037,3.824,-1,5
648,4.72419,3.818,-1,5
649,4.72800,3.814,-1,5
650,4.73181,3.807,-1,5
651,4.73561,3.801,-1,5
652,4.73940,3.795,-1,5
653,4.74319,3.789,-1,5
654,4.74698,3.783,-1,5
655,4.75075,3.775,-1,5
656,4.75451,3.761,-1,5
657,4.75827,3.756,-1,5
658,4.76202,3.750,-1,5
659,4.76576,3.742,-1,5
660,4.76949,3.732,-1,5
661,4.77321,3.721,-1,5
662,4.77693,3.717,-1,5
663,4.78064,3.705,-1,5
664,4.78433,3.697,-1,5
665,4.78802,3.690,-1,5
666,4.79170,3.680,-1,5
667,4.79537,3.671,-1,5
668,4.79903,3.662,-1,5
669,4.80268,3.649,-1,5
670,4.80633,3.642,-1,5
671,4.80996,3.630,-1,5
672,4.81358,3.622,-1,5
673,4.81719,3.608,-1,5
674,4.82079,3.599,-1,5
675,4.82438,3.592,-1,5
676,4.82796,3.582,-1,5
677,4.83153,3.569,-1,5
678,4.83509,3.558,-1,5
679,4.83864,3.551,-1,5
680,4.84218,3.540,-1,5
681,4.84571,3.531,-1,5
682,4.84923,3.517,-1,5
683,4.85274,3.512,-1,5
684,4.85624,3.501,-1,5
685,4.85973,3.491,-1,5
686,4.86321,3.479,-1,5
687,4.86668,3.461,-1,5
688,4.87014,3.461,-1,5
689,4.87359,3.453,-1,5
690,4.87703,3.438,-1,5
691,4.88388,3.422,-1,5
692,4.88730,3.412,-1,5
693,4.89070,3.404,-1,5
694,4.89409,3.387,-1,5
695,4.89747,3.382,-1,5
696,4.90084,3.373,-1,5
697,4.90421,3.365,-1,5
698,4.90756,3.355,-1,5
699,4.91090,3.344,-1,5
700,4.91424,3.334,-1,5
701,4.91757,3.329,-1,5
702,4.92089,3.319,-1,5
703,4.92420,3.310,-1,5
704,4.92750,3.301,-1,5
705,4.93079,3.294,-1,5
706,4.93408,3.283,-1,5
707,4.93735,3.278,-1,5
708,4.94062,3.266,-1,5
709,4.94388,3.259,-1,5
710,4.94714,3.257,-1,5
711,4.95038,3.246,-1,5
712,4.95362,3.238,-1,5
713,4.95685,3.230,-1,5
714,4.96008,3.229,-1,5
715,4.96330,3.221,-1,5
716,4.96651,3.212,-1,5
717,4.96972,3.209,-1,5
718,4.97293,3.205,-1,5
719,4.97613,3.201,-1,5
720,4.97932,3.195,-1,5
721,4.98251,3.190,-1,5
722,4.98570,3.190,-1,5
723,4.98888,3.183,-1,5
724,4.99207,3.188,-1,5
725,4.99525,3.179,-1,5
726,4.99843,3.179,-1,5
727,5.00161,3.179,-1,5
728,5.00479,3.181,-1,5
729,5.00797,3.177,-1,5
730,5.01115,3.179,-1,5
731,5.01432,3.177,-1,5
732,5.01750,3.178,-1,5
733,5.02387,3.186,-1,5
734,5.02705,3.185,-1,5
735,5.03024,3.186,-1,5
736,5.03343,3.190,-1,5
737,5.03662,3.193,-1,5
738,5.03983,3.202,-1,5
739,5.04303,3.201,-1,5
740,5.04623,3.207,-1,5
741,5.04945,3.213,-1,5
742,5.05266,3.229,-1,5
743,5.05589,3.233,-1,5
744,5.05913,3.233,-1,5
745,5.06236,3.235,-1,5
746,5.06560,3.245,-1,5
747,5.06886,3.254,-1,5
748,5.07212,3.262,-1,5
749,5.07539,3.266,-1,5
750,5.07866,3.274,-1,5
751,5.08194,3.282,-1,5
752,5.08524,3.293,-1,5
753,5.08854,3.300,-1,5
754,5.09184,3.301,-1,5
755,5.09515,3.310,-1,5
756,5.09846,3.318,-1,5
757,5.10179,3.326,-1,5
758,5.10512,3.329,-1,5
759,5.10845,3.333,-1,5
760,5.11179,3.340,-1,5
761,5.11514,3.349,-1,5
762,5.11849,3.353,-1,5
763,5.12185,3.352,-1,5
764,5.12520,3.357,-1,5
765,5.12856,3.361,-1,5
766,5.13193,3.367,-1,5
767,5.13530,3.373,-1,5
768,5.13868,3.370,-1,5
769,5.14205,3.370,-1,5
770,5.14542,3.375,-1,5
771,5.14880,3.377,-1,5
772,5.15218,3.381,-1,5
773,5.15555,3.375,-1,5
774,5.15893,3.374,-1,5
775,5.16230,3.375,-1,5
776,5.16568,3.380,-1,5
777,5.16906,3.375,-1,5
778,5.17243,3.372,-1,5
779,5.17580,3.369,-1,5
780,5.17917,3.371,-1,5
781,5.18254,3.375,-1,5
782,5.18591,3.364,-1,5
783,5.18927,3.362,-1,5
784,5.19263,3.364,-1,5
785,5.19936,3.364,-1,5
786,5.20271,3.355,-1,5
787,5.20607,3.351,-1,5
788,5.20942,3.354,-1,5
789,5.21278,3.356,-1,5
790,5.21612,3.346,-1,5
791,5.21946,3.343,-1,5
792,5.22281,3.343,-1,5
793,5.22615,3.343,-1,5
794,5.22949,3.342,-1,5
795,5.23282,3.333,-1,5
796,5.23616,3.331,-1,5
797,5.23949,3.330,-1,5
798,5.24281,3.328,-1,5
799,5.24614,3.330,-1,5
800,5.24946,3.321,-1,5
801,5.25278,3.318,-1,5
802,5.25610,3.321,-1,5
803,5.25943,3.323,-1,5
804,5.26274,3.316,-1,5
805,5.26606,3.314,-1,5
806,5.26937,3.313,-1,5
807,5.27269,3.316,-1,5
808,5.27600,3.317,-1,5
809,5.27932,3.312,-1,5
810,5.28262,3.309,-1,5
811,5.28593,3.310,-1,5
812,5.28925,3.316,-1,5
813,5.29257,3.316,-1,5
814,5.29588,3.309,-1,5
815,5.29918,3.307,-1,5
816,5.30250,3.312,-1,5
817,5.30581,3.315,-1,5
818,5.30912,3.314,-1,5
819,5.31243,3.310,-1,5
820,5.31575,3.311,-1,5
821,5.31906,3.311,-1,5
822,5.32238,3.319,-1,5
823,5.32569,3.317,-1,5
824,5.32900,3.315,-1,5
825,5.33564,3.320,-1,5
826,5.33564,3.322,-1,5
827,5.33896,3.319,-1,5
828,5.34560,3.319,-1,5
829,5.34892,3.324,-1,5
830,5.35225,3.328,-1,5
831,5.35558,3.328,-1,5
832,5.35891,3.327,-1,5
833,5.36224,3.328,-1,5
834,5.36557,3.334,-1,5
835,5.36891,3.339,-1,5
836,5.37225,3.339,-1,5
837,5.37558,3.333,-1,5
838,5.37892,3.342,-1,5
839,5.38227,3.345,-1,5
840,5.38562,3.353,-1,5
841,5.38897,3.349,-1,5
842,5.39232,3.350,-1,5
843,5.39568,3.360,-1,5
844,5.39905,3.366,-1,5
845,5.40241,3.367,-1,5
846,5.40578,3.366,-1,5
847,5.40915,3.372,-1,5
848,5.41253,3.380,-1,5
849,5.41592,3.389,-1,5
850,5.41931,3.390,-1,5
851,5.42610,3.401,-1,5
852,5.42951,3.407,-1,5
853,5.43292,3.413,-1,5
854,5.43634,3.419,-1,5
855,5.43976,3.420,-1,5
856,5.44319,3.432,-1,5
857,5.44663,3.442,-1,5
858,5.45008,3.446,-1,5
859,5.45353,3.451,-1,5
860,5.45699,3.460,-1,5
861,5.46046,3.468,-1,5
862,5.46394,3.482,-1,5
863,5.46743,3.488,-1,5
864,5.47092,3.494,-1,5
865,5.47443,3.507,-1,5
866,5.47795,3.519,-1,5
867,5.48148,3.533,-1,5
868,5.48502,3.540,-1,5
869,5.48857,3.549,-1,5
870,5.49214,3.565,-1,5
871,5.49572,3.583,-1,5
872,5.49931,3.592,-1,5
873,5.50291,3.604,-1,5
