cnt,pos,speed,Dir,Force,
1,3.14540,1.008,-1,5
2,3.14642,1.017,-1,5
3,3.14744,1.014,-1,5
4,3.14845,1.011,-1,5
5,3.14947,1.021,-1,5
6,3.15051,1.043,-1,5
7,3.15156,1.054,-1,5
8,3.15261,1.041,-1,5
9,3.15364,1.035,-1,5
10,3.15469,1.052,-1,5
11,3.15577,1.075,-1,5
12,3.15685,1.078,-1,5
13,3.15791,1.066,-1,5
14,3.15898,1.070,-1,5
15,3.16008,1.094,-1,5
16,3.16118,1.108,-1,5
17,3.16228,1.098,-1,5
18,3.16337,1.086,-1,5
19,3.16447,1.103,-1,5
20,3.16560,1.132,-1,5
21,3.16674,1.136,-1,5
22,3.16786,1.117,-1,5
23,3.16897,1.113,-1,5
24,3.17011,1.140,-1,5
25,3.17127,1.160,-1,5
26,3.17242,1.149,-1,5
27,3.17356,1.138,-1,5
28,3.17471,1.154,-1,5
29,3.17589,1.176,-1,5
30,3.17706,1.175,-1,5
31,3.17822,1.161,-1,5
32,3.17939,1.169,-1,5
33,3.18058,1.189,-1,5
34,3.18178,1.201,-1,5
35,3.18297,1.193,-1,5
36,3.18416,1.188,-1,5
37,3.18536,1.204,-1,5
38,3.18658,1.214,-1,5
39,3.18779,1.216,-1,5
40,3.18901,1.221,-1,5
41,3.19024,1.231,-1,5
42,3.19147,1.231,-1,5
43,3.19395,1.244,-1,5
44,3.19395,1.249,-1,5
45,3.19520,1.248,-1,5
46,3.19645,1.248,-1,5
47,3.19770,1.273,-1,5
48,3.19898,1.272,-1,5
49,3.20151,1.266,-1,5
50,3.20279,1.276,-1,5
51,3.20408,1.289,-1,5
52,3.20538,1.296,-1,5
53,3.20667,1.295,-1,5
54,3.20797,1.301,-1,5
55,3.20928,1.311,-1,5
56,3.21060,1.313,-1,5
57,3.21191,1.316,-1,5
58,3.21324,1.327,-1,5
59,3.21457,1.336,-1,5
60,3.21591,1.337,-1,5
61,3.21726,1.344,-1,5
62,3.21861,1.349,-1,5
63,3.21996,1.355,-1,5
64,3.22133,1.366,-1,5
65,3.22270,1.374,-1,5
66,3.22408,1.375,-1,5
67,3.22545,1.374,-1,5
68,3.22684,1.387,-1,5
69,3.22824,1.404,-1,5
70,3.22965,1.406,-1,5
71,3.23105,1.404,-1,5
72,3.23246,1.411,-1,5
73,3.23388,1.416,-1,5
74,3.23531,1.431,-1,5
75,3.23675,1.442,-1,5
76,3.23819,1.443,-1,5
77,3.23963,1.439,-1,5
78,3.24108,1.450,-1,5
79,3.24255,1.468,-1,5
80,3.24402,1.472,-1,5
81,3.24550,1.476,-1,5
82,3.24698,1.484,-1,5
83,3.24847,1.486,-1,5
84,3.24997,1.497,-1,5
85,3.25148,1.509,-1,5
86,3.25299,1.511,-1,5
87,3.25451,1.519,-1,5
88,3.25603,1.528,-1,5
89,3.25756,1.531,-1,5
90,3.25910,1.535,-1,5
91,3.26065,1.547,-1,5
92,3.26220,1.561,-1,5
93,3.26376,1.561,-1,5
94,3.26533,1.567,-1,5
95,3.26690,1.567,-1,5
96,3.26847,1.574,-1,5
97,3.27006,1.589,-1,5
98,3.27325,1.592,-1,5
99,3.27485,1.600,-1,5
100,3.27646,1.609,-1,5
101,3.27808,1.618,-1,5
102,3.27970,1.623,-1,5
103,3.28132,1.621,-1,5
104,3.28294,1.626,-1,5
105,3.28459,1.643,-1,5
106,3.28623,1.646,-1,5
107,3.28787,1.640,-1,5
108,3.28951,1.641,-1,5
109,3.29117,1.651,-1,5
110,3.29283,1.665,-1,5
111,3.29450,1.668,-1,5
112,3.29615,1.654,-1,5
113,3.29781,1.655,-1,5
114,3.29948,1.672,-1,5
115,3.30116,1.683,-1,5
116,3.30285,1.682,-1,5
117,3.30452,1.669,-1,5
118,3.30618,1.664,-1,5
119,3.30786,1.684,-1,5
120,3.30956,1.697,-1,5
121,3.31125,1.689,-1,5
122,3.31292,1.675,-1,5
123,3.31459,1.670,-1,5
124,3.31628,1.688,-1,5
125,3.31799,1.702,-1,5
126,3.31967,1.687,-1,5
127,3.32134,1.671,-1,5
128,3.32302,1.675,-1,5
129,3.32471,1.687,-1,5
130,3.32640,1.698,-1,5
131,3.32809,1.683,-1,5
132,3.32975,1.664,-1,5
133,3.33142,1.670,-1,5
134,3.33311,1.686,-1,5
135,3.33479,1.687,-1,5
136,3.33647,1.671,-1,5
137,3.33812,1.654,-1,5
138,3.33978,1.658,-1,5
139,3.34145,1.677,-1,5
140,3.34313,1.654,-1,5
141,3.34478,1.654,-1,5
142,3.34642,1.639,-1,5
143,3.34806,1.641,-1,5
144,3.34972,1.657,-1,5
145,3.35138,1.657,-1,5
146,3.35301,1.618,-1,5
147,3.35463,1.618,-1,5
148,3.35789,1.637,-1,5
149,3.35952,1.633,-1,5
150,3.36113,1.613,-1,5
151,3.36273,1.597,-1,5
152,3.36434,1.605,-1,5
153,3.36595,1.613,-1,5
154,3.36755,1.602,-1,5
155,3.36914,1.591,-1,5
156,3.37072,1.577,-1,5
157,3.37230,1.579,-1,5
158,3.37388,1.584,-1,5
159,3.37546,1.575,-1,5
160,3.37701,1.558,-1,5
161,3.37857,1.558,-1,5
162,3.38013,1.560,-1,5
163,3.38169,1.554,-1,5
164,3.38323,1.543,-1,5
165,3.38476,1.533,-1,5
166,3.38629,1.532,-1,5
167,3.38784,1.542,-1,5
168,3.38937,1.532,-1,5
169,3.39088,1.514,-1,5
170,3.39239,1.503,-1,5
171,3.39390,1.512,-1,5
172,3.39542,1.518,-1,5
173,3.39693,1.517,-1,5
174,3.39843,1.495,-1,5
175,3.39991,1.478,-1,5
176,3.40140,1.490,-1,5
177,3.40290,1.502,-1,5
178,3.40440,1.496,-1,5
179,3.40587,1.476,-1,5
180,3.40734,1.467,-1,5
181,3.40881,1.471,-1,5
182,3.41029,1.485,-1,5
183,3.41178,1.485,-1,5
184,3.41325,1.466,-1,5
185,3.41470,1.455,-1,5
186,3.41617,1.469,-1,5
187,3.41765,1.478,-1,5
188,3.42058,1.463,-1,5
189,3.42204,1.456,-1,5
190,3.42204,1.462,-1,5
191,3.42498,1.479,-1,5
192,3.42646,1.479,-1,5
193,3.42792,1.459,-1,5
194,3.42938,1.459,-1,5
195,3.43085,1.475,-1,5
196,3.43234,1.483,-1,5
197,3.43382,1.481,-1,5
198,3.43529,1.478,-1,5
199,3.43677,1.471,-1,5
200,3.43825,1.483,-1,5
201,3.43975,1.497,-1,5
202,3.44124,1.496,-1,5
203,3.44274,1.495,-1,5
204,3.44424,1.499,-1,5
205,3.44574,1.506,-1,5
206,3.44725,1.511,-1,5
207,3.44877,1.522,-1,5
208,3.45030,1.527,-1,5
209,3.45183,1.527,-1,5
210,3.45336,1.532,-1,5
211,3.45490,1.543,-1,5
212,3.45645,1.548,-1,5
213,3.45801,1.562,-1,5
214,3.45958,1.564,-1,5
215,3.46114,1.563,-1,5
216,3.46272,1.577,-1,5
217,3.46431,1.590,-1,5
218,3.46591,1.598,-1,5
219,3.46751,1.603,-1,5
220,3.46911,1.607,-1,5
221,3.47073,1.615,-1,5
222,3.47236,1.635,-1,5
223,3.47401,1.647,-1,5
224,3.47566,1.645,-1,5
225,3.47731,1.649,-1,5
226,3.47897,1.664,-1,5
227,3.48065,1.683,-1,5
228,3.48235,1.698,-1,5
229,3.48404,1.692,-1,5
230,3.48574,1.694,-1,5
231,3.48745,1.717,-1,5
232,3.48919,1.738,-1,5
233,3.49094,1.747,-1,5
234,3.49268,1.745,-1,5
235,3.49443,1.745,-1,5
236,3.49620,1.770,-1,5
237,3.49800,1.799,-1,5
238,3.49980,1.797,-1,5
239,3.50159,1.797,-1,5
240,3.50339,1.800,-1,5
241,3.50523,1.836,-1,5
242,3.50709,1.852,-1,5
243,3.50894,1.848,-1,5
244,3.51079,1.869,-1,5
245,3.51456,1.901,-1,5
246,3.51647,1.911,-1,5
247,3.51837,1.899,-1,5
248,3.52028,1.910,-1,5
249,3.52222,1.940,-1,5
250,3.52418,1.960,-1,5
251,3.52613,1.955,-1,5
252,3.52809,1.955,-1,5
253,3.53007,1.985,-1,5
254,3.53208,2.006,-1,5
255,3.53409,2.008,-1,5
256,3.53609,2.005,-1,5
257,3.53812,2.026,-1,5
258,3.54017,2.051,-1,5
259,3.54223,2.057,-1,5
260,3.54428,2.055,-1,5
261,3.54635,2.070,-1,5
262,3.54844,2.092,-1,5
263,3.55055,2.104,-1,5
264,3.55265,2.104,-1,5
265,3.55476,2.113,-1,5
266,3.55690,2.131,-1,5
267,3.55905,2.149,-1,5
268,3.56120,2.154,-1,5
269,3.56336,2.157,-1,5
270,3.56552,2.168,-1,5
271,3.56771,2.190,-1,5
272,3.56992,2.201,-1,5
273,3.57212,2.202,-1,5
274,3.57432,2.205,-1,5
275,3.57655,2.227,-1,5
276,3.57880,2.247,-1,5
277,3.58104,2.245,-1,5
278,3.58329,2.245,-1,5
279,3.58555,2.262,-1,5
280,3.58783,2.282,-1,5
281,3.59012,2.285,-1,5
282,3.59240,2.287,-1,5
283,3.59470,2.295,-1,5
284,3.59701,2.312,-1,5
285,3.59933,2.322,-1,5
286,3.60165,2.322,-1,5
287,3.60398,2.330,-1,5
288,3.60632,2.341,-1,5
289,3.60868,2.352,-1,5
290,3.61104,2.359,-1,5
291,3.61340,2.363,-1,5
292,3.61577,2.367,-1,5
293,3.61815,2.382,-1,5
294,3.62054,2.392,-1,5
295,3.62533,2.401,-1,5
296,3.62773,2.404,-1,5
297,3.63014,2.410,-1,5
298,3.63257,2.422,-1,5
299,3.63499,2.429,-1,5
300,3.63742,2.430,-1,5
301,3.63986,2.431,-1,5
302,3.64230,2.442,-1,5
303,3.64475,2.452,-1,5
304,3.64721,2.456,-1,5
305,3.64966,2.456,-1,5
306,3.65212,2.463,-1,5
307,3.65460,2.473,-1,5
308,3.65708,2.477,-1,5
309,3.65955,2.477,-1,5
310,3.66203,2.481,-1,5
311,3.66452,2.492,-1,5
312,3.66702,2.495,-1,5
313,3.66951,2.494,-1,5
314,3.67202,2.502,-1,5
315,3.67703,2.507,-1,5
316,3.67703,2.515,-1,5
317,3.68207,2.522,-1,5
318,3.68459,2.520,-1,5
319,3.68459,2.520,-1,5
320,3.68711,2.535,-1,5
321,3.68965,2.535,-1,5
322,3.69471,2.533,-1,5
323,3.69725,2.538,-1,5
324,3.69979,2.543,-1,5
325,3.70234,2.548,-1,5
326,3.70489,2.549,-1,5
327,3.70744,2.546,-1,5
328,3.70999,2.553,-1,5
329,3.71255,2.559,-1,5
330,3.71511,2.555,-1,5
331,3.71766,2.558,-1,5
332,3.72023,2.563,-1,5
333,3.72279,2.564,-1,5
334,3.72535,2.561,-1,5
335,3.72792,2.567,-1,5
336,3.73049,2.569,-1,5
337,3.73306,2.568,-1,5
338,3.73563,2.569,-1,5
339,3.73820,2.572,-1,5
340,3.74077,2.569,-1,5
341,3.74334,2.570,-1,5
342,3.74591,2.575,-1,5
343,3.74849,2.575,-1,5
344,3.75106,2.575,-1,5
345,3.75363,2.573,-1,5
346,3.75621,2.574,-1,5
347,3.75878,2.575,-1,5
348,3.76136,2.579,-1,5
349,3.76393,2.573,-1,5
350,3.76651,2.576,-1,5
351,3.76909,2.581,-1,5
352,3.77167,2.577,-1,5
353,3.77424,2.577,-1,5
354,3.77682,2.581,-1,5
355,3.77940,2.580,-1,5
356,3.78198,2.580,-1,5
357,3.78457,2.586,-1,5
358,3.78715,2.583,-1,5
359,3.78974,2.585,-1,5
360,3.79232,2.586,-1,5
361,3.79491,2.590,-1,5
362,3.79751,2.591,-1,5
363,3.80010,2.593,-1,5
364,3.80269,2.589,-1,5
365,3.80529,2.598,-1,5
366,3.80789,2.599,-1,5
367,3.81048,2.597,-1,5
368,3.81309,2.604,-1,5
369,3.81569,2.604,-1,5
370,3.81830,2.605,-1,5
371,3.82090,2.606,-1,5
372,3.82352,2.616,-1,5
373,3.82613,2.613,-1,5
374,3.82875,2.615,-1,5
375,3.83137,2.620,-1,5
376,3.83399,2.622,-1,5
377,3.83661,2.625,-1,5
378,3.83924,2.625,-1,5
379,3.84187,2.630,-1,5
380,3.84451,2.637,-1,5
381,3.84714,2.635,-1,5
382,3.84978,2.640,-1,5
383,3.85242,2.642,-1,5
384,3.85507,2.648,-1,5
385,3.85772,2.647,-1,5
386,3.86037,2.655,-1,5
387,3.86303,2.658,-1,5
388,3.86569,2.654,-1,5
389,3.86835,2.664,-1,5
390,3.87102,2.671,-1,5
391,3.87369,2.668,-1,5
392,3.87636,2.669,-1,5
393,3.87903,2.677,-1,5
394,3.88171,2.676,-1,5
395,3.88439,2.682,-1,5
396,3.88708,2.684,-1,5
397,3.88976,2.684,-1,5
398,3.89245,2.689,-1,5
399,3.89514,2.692,-1,5
400,3.89784,2.696,-1,5
401,3.90053,2.696,-1,5
402,3.90323,2.697,-1,5
403,3.90593,2.700,-1,5
404,3.90864,2.706,-1,5
405,3.91134,2.705,-1,5
406,3.91404,2.702,-1,5
407,3.91675,2.709,-1,5
408,3.91946,2.710,-1,5
409,3.92217,2.712,-1,5
410,3.92489,2.716,-1,5
411,3.92760,2.712,-1,5
412,3.93032,2.716,-1,5
413,3.93303,2.716,-1,5
414,3.93575,2.721,-1,5
415,3.93848,2.721,-1,5
416,3.94120,2.717,-1,5
417,3.94391,2.717,-1,5
418,3.94664,2.723,-1,5
419,3.94936,2.726,-1,5
420,3.95481,2.723,-1,5
421,3.95753,2.724,-1,5
422,3.96025,2.724,-1,5
423,3.96298,2.727,-1,5
424,3.96570,2.723,-1,5
425,3.96843,2.720,-1,5
426,3.97114,2.720,-1,5
427,3.97387,2.724,-1,5
428,3.97659,2.723,-1,5
429,3.97931,2.718,-1,5
430,3.98203,2.717,-1,5
431,3.98474,2.713,-1,5
432,3.98746,2.717,-1,5
433,3.99017,2.709,-1,5
434,3.99288,2.711,-1,5
435,3.99558,2.708,-1,5
436,3.99829,2.701,-1,5
437,4.00099,2.702,-1,5
438,4.00369,2.701,-1,5
439,4.00638,2.693,-1,5
440,4.00907,2.686,-1,5
441,4.01176,2.690,-1,5
442,4.01712,2.679,-1,5
443,4.01712,2.672,-1,5
444,4.01979,2.672,-1,5
445,4.02246,2.667,-1,5
446,4.02513,2.666,-1,5
447,4.02779,2.659,-1,5
448,4.03044,2.652,-1,5
449,4.03309,2.648,-1,5
450,4.03573,2.639,-1,5
451,4.03836,2.636,-1,5
452,4.04099,2.629,-1,5
453,4.04361,2.624,-1,5
454,4.04622,2.608,-1,5
455,4.04883,2.610,-1,5
456,4.05143,2.602,-1,5
457,4.05402,2.590,-1,5
458,4.05661,2.583,-1,5
459,4.05918,2.575,-1,5
460,4.06175,2.567,-1,5
461,4.06431,2.558,-1,5
462,4.06686,2.551,-1,5
463,4.06940,2.539,-1,5
464,4.07193,2.531,-1,5
465,4.07445,2.523,-1,5
466,4.07697,2.517,-1,5
467,4.07947,2.503,-1,5
468,4.08196,2.493,-1,5
469,4.08444,2.478,-1,5
470,4.08692,2.476,-1,5
471,4.08938,2.466,-1,5
472,4.09183,2.450,-1,5
473,4.09427,2.436,-1,5
474,4.09670,2.434,-1,5
475,4.09913,2.425,-1,5
476,4.10153,2.406,-1,5
477,4.10393,2.394,-1,5
478,4.10632,2.390,-1,5
479,4.10869,2.376,-1,5
480,4.11105,2.361,-1,5
481,4.11341,2.353,-1,5
482,4.11575,2.342,-1,5
483,4.11808,2.329,-1,5
484,4.12039,2.318,-1,5
485,4.12270,2.306,-1,5
486,4.12500,2.298,-1,5
487,4.12729,2.287,-1,5
488,4.12956,2.273,-1,5
489,4.13182,2.259,-1,5
490,4.13407,2.257,-1,5
491,4.13632,2.244,-1,5
492,4.13855,2.229,-1,5
493,4.14076,2.216,-1,5
494,4.14298,2.216,-1,5
495,4.14518,2.205,-1,5
496,4.14737,2.188,-1,5
497,4.14955,2.174,-1,5
498,4.15172,2.176,-1,5
499,4.15389,2.168,-1,5
500,4.15604,2.154,-1,5
501,4.15818,2.140,-1,5
502,4.16032,2.137,-1,5
503,4.16245,2.131,-1,5
504,4.16457,2.122,-1,5
505,4.16668,2.110,-1,5
506,4.16879,2.103,-1,5
507,4.17089,2.100,-1,5
508,4.17298,2.093,-1,5
509,4.17507,2.088,-1,5
510,4.17714,2.074,-1,5
511,4.18129,2.073,-1,5
512,4.18336,2.069,-1,5
513,4.18542,2.057,-1,5
514,4.18747,2.055,-1,5
515,4.18953,2.057,-1,5
516,4.19159,2.060,-1,5
517,4.19364,2.051,-1,5
518,4.19568,2.046,-1,5
519,4.19773,2.049,-1,5
520,4.19979,2.058,-1,5
521,4.20185,2.053,-1,5
522,4.20389,2.048,-1,5
523,4.20595,2.054,-1,5
524,4.20801,2.062,-1,5
525,4.21008,2.066,-1,5
526,4.21214,2.066,-1,5
527,4.21422,2.073,-1,5
528,4.21629,2.076,-1,5
529,4.21838,2.086,-1,5
530,4.22046,2.088,-1,5
531,4.22256,2.094,-1,5
532,4.22465,2.092,-1,5
533,4.22676,2.112,-1,5
534,4.22889,2.131,-1,5
535,4.23103,2.141,-1,5
536,4.23318,2.141,-1,5
537,4.23533,2.158,-1,5
538,4.23752,2.186,-1,5
539,4.23972,2.201,-1,5
540,4.24193,2.208,-1,5
541,4.24415,2.223,-1,5
542,4.24640,2.251,-1,5
543,4.24868,2.275,-1,5
544,4.25097,2.290,-1,5
545,4.25327,2.305,-1,5
546,4.25560,2.333,-1,5
547,4.25796,2.359,-1,5
548,4.26035,2.384,-1,5
549,4.26275,2.402,-1,5
550,4.26518,2.430,-1,5
551,4.26764,2.462,-1,5
552,4.27013,2.491,-1,5
553,4.27264,2.514,-1,5
554,4.27519,2.545,-1,5
555,4.27777,2.577,-1,5
556,4.28037,2.606,-1,5
557,4.28302,2.643,-1,5
558,4.28569,2.675,-1,5
559,4.28840,2.705,-1,5
560,4.29114,2.739,-1,5
561,4.29392,2.782,-1,5
562,4.29673,2.853,-1,5
563,4.29959,2.853,-1,5
564,4.30541,2.931,-1,5
565,4.30541,2.968,-1,5
566,4.30837,3.008,-1,5
567,4.31138,3.008,-1,5
568,4.31443,3.088,-1,5
569,4.31752,3.127,-1,5
570,4.32381,3.169,-1,5
571,4.32702,3.206,-1,5
572,4.33027,3.249,-1,5
573,4.33356,3.292,-1,5
574,4.33689,3.331,-1,5
575,4.34026,3.370,-1,5
576,4.34367,3.410,-1,5
577,4.34712,3.454,-1,5
578,4.35062,3.496,-1,5
579,4.35415,3.530,-1,5
580,4.35772,3.568,-1,5
581,4.36133,3.611,-1,5
582,4.36498,3.651,-1,5
583,4.36867,3.685,-1,5
584,4.37239,3.721,-1,5
585,4.37614,3.755,-1,5
586,4.37993,3.793,-1,5
587,4.38376,3.825,-1,5
588,4.38761,3.854,-1,5
589,4.39150,3.884,-1,5
590,4.39541,3.912,-1,5
591,4.39935,3.944,-1,5
592,4.40332,3.970,-1,5
593,4.40732,3.992,-1,5
594,4.41133,4.017,-1,5
595,4.41538,4.042,-1,5
596,4.41944,4.066,-1,5
597,4.42352,4.081,-1,5
598,4.42762,4.102,-1,5
599,4.43174,4.120,-1,5
600,4.43588,4.140,-1,5
601,4.44004,4.153,-1,5
602,4.44420,4.166,-1,5
603,4.44838,4.178,-1,5
604,4.45257,4.192,-1,5
605,4.45677,4.200,-1,5
606,4.46099,4.213,-1,5
607,4.46521,4.221,-1,5
608,4.46943,4.225,-1,5
609,4.47367,4.232,-1,5
610,4.48215,4.244,-1,5
611,4.48215,4.246,-1,5
612,4.48640,4.251,-1,5
613,4.49065,4.251,-1,5
614,4.49915,4.253,-1,5
615,4.50340,4.252,-1,5
616,4.50766,4.253,-1,5
617,4.51191,4.250,-1,5
618,4.51615,4.245,-1,5
619,4.52039,4.243,-1,5
620,4.52463,4.239,-1,5
621,4.52886,4.227,-1,5
622,4.53308,4.222,-1,5
623,4.53730,4.215,-1,5
624,4.54151,4.210,-1,5
625,4.54570,4.198,-1,5
626,4.54989,4.190,-1,5
627,4.55407,4.176,-1,5
628,4.55823,4.164,-1,5
629,4.56239,4.159,-1,5
630,4.56654,4.146,-1,5
631,4.57067,4.131,-1,5
632,4.57479,4.116,-1,5
633,4.57889,4.106,-1,5
634,4.58298,4.090,-1,5
635,4.58706,4.078,-1,5
636,4.59112,4.060,-1,5
637,4.59517,4.045,-1,5
638,4.59920,4.031,-1,5
639,4.60321,4.014,-1,5
640,4.60721,3.995,-1,5
641,4.61118,3.974,-1,5
642,4.61514,3.960,-1,5
643,4.61908,3.943,-1,5
644,4.62301,3.923,-1,5
645,4.62691,3.902,-1,5
646,4.63079,3.886,-1,5
647,4.63466,3.870,-1,5
648,4.63851,3.849,-1,5
649,4.64234,3.827,-1,5
650,4.64615,3.810,-1,5
651,4.64994,3.788,-1,5
652,4.65371,3.770,-1,5
653,4.65746,3.750,-1,5
654,4.66119,3.729,-1,5
655,4.66490,3.709,-1,5
656,4.66858,3.685,-1,5
657,4.67225,3.668,-1,5
658,4.67590,3.647,-1,5
659,4.67952,3.624,-1,5
660,4.68312,3.600,-1,5
661,4.68670,3.582,-1,5
662,4.69026,3.563,-1,5
663,4.69380,3.539,-1,5
664,4.69732,3.515,-1,5
665,4.70082,3.498,-1,5
666,4.70429,3.477,-1,5
667,4.70775,3.457,-1,5
668,4.71119,3.436,-1,5
669,4.71460,3.415,-1,5
670,4.72137,3.373,-1,5
671,4.72137,3.373,-1,5
672,4.72472,3.354,-1,5
673,4.72806,3.336,-1,5
674,4.73137,3.314,-1,5
675,4.73467,3.292,-1,5
676,4.73794,3.272,-1,5
677,4.74119,3.255,-1,5
678,4.74443,3.239,-1,5
679,4.74765,3.197,-1,5
680,4.75085,3.197,-1,5
681,4.75403,3.177,-1,5
682,4.75719,3.165,-1,5
683,4.76034,3.146,-1,5
684,4.76346,3.127,-1,5
685,4.76658,3.111,-1,5
686,4.76967,3.093,-1,5
687,4.77275,3.081,-1,5
688,4.77581,3.065,-1,5
689,4.77886,3.046,-1,5
690,4.78189,3.029,-1,5
691,4.78490,3.014,-1,5
692,4.78791,3.003,-1,5
693,4.79089,2.987,-1,5
694,4.79386,2.973,-1,5
695,4.79682,2.958,-1,5
696,4.79977,2.942,-1,5
697,4.80270,2.935,-1,5
698,4.80562,2.922,-1,5
699,4.80853,2.907,-1,5
700,4.81142,2.895,-1,5
701,4.81431,2.887,-1,5
702,4.81719,2.876,-1,5
703,4.82006,2.870,-1,5
704,4.82292,2.858,-1,5
705,4.82577,2.850,-1,5
706,4.82861,2.842,-1,5
707,4.83145,2.840,-1,5
708,4.83428,2.832,-1,5
709,4.83711,2.818,-1,5
710,4.84274,2.815,-1,5
711,4.84274,2.813,-1,5
712,4.84555,2.808,-1,5
713,4.84836,2.808,-1,5
714,4.85117,2.808,-1,5
715,4.85397,2.800,-1,5
716,4.85957,2.801,-1,5
717,4.86236,2.796,-1,5
718,4.86516,2.794,-1,5
719,4.86795,2.796,-1,5
720,4.87075,2.796,-1,5
721,4.87355,2.798,-1,5
722,4.87634,2.797,-1,5
723,4.87915,2.801,-1,5
724,4.88195,2.804,-1,5
725,4.88475,2.806,-1,5
726,4.88756,2.810,-1,5
727,4.89038,2.816,-1,5
728,4.89320,2.819,-1,5
729,4.89603,2.827,-1,5
730,4.89886,2.833,-1,5
731,4.90170,2.839,-1,5
732,4.90454,2.842,-1,5
733,4.90739,2.851,-1,5
734,4.91025,2.859,-1,5
735,4.91312,2.866,-1,5
736,4.91599,2.871,-1,5
737,4.91887,2.880,-1,5
738,4.92176,2.890,-1,5
739,4.92466,2.901,-1,5
740,4.92757,2.909,-1,5
741,4.93049,2.917,-1,5
742,4.93341,2.922,-1,5
743,4.93635,2.940,-1,5
744,4.93930,2.951,-1,5
745,4.94225,2.955,-1,5
746,4.94522,2.969,-1,5
747,4.94820,2.980,-1,5
748,4.95119,2.990,-1,5
749,4.95420,3.006,-1,5
750,4.95721,3.013,-1,5
751,4.96024,3.025,-1,5
752,4.96328,3.041,-1,5
753,4.96633,3.055,-1,5
754,4.96940,3.065,-1,5
755,4.97248,3.080,-1,5
756,4.97557,3.092,-1,5
757,4.97867,3.104,-1,5
758,4.98180,3.123,-1,5
759,4.98807,3.141,-1,5
760,4.99123,3.163,-1,5
761,4.99123,3.173,-1,5
762,4.99441,3.188,-1,5
763,4.99759,3.188,-1,5
764,5.00401,3.216,-1,5
765,5.00401,3.229,-1,5
766,5.00724,3.244,-1,5
767,5.01374,3.255,-1,5
768,5.01701,3.267,-1,5
769,5.02029,3.279,-1,5
770,5.02358,3.293,-1,5
771,5.02689,3.305,-1,5
772,5.03020,3.314,-1,5
773,5.03352,3.323,-1,5
774,5.03686,3.333,-1,5
775,5.04021,3.349,-1,5
776,5.04356,3.356,-1,5
777,5.04693,3.369,-1,5
778,5.05031,3.377,-1,5
779,5.05369,3.386,-1,5
780,5.05710,3.401,-1,5
781,5.06051,3.414,-1,5
782,5.06393,3.419,-1,5
783,5.06735,3.425,-1,5
784,5.07079,3.440,-1,5
785,5.07424,3.446,-1,5
786,5.07770,3.461,-1,5
787,5.08117,3.466,-1,5
788,5.08464,3.474,-1,5
789,5.08812,3.484,-1,5
790,5.09161,3.489,-1,5
791,5.09511,3.501,-1,5
792,5.09862,3.507,-1,5
793,5.10213,3.510,-1,5
794,5.10565,3.521,-1,5
795,5.10918,3.526,-1,5
796,5.11271,3.532,-1,5
797,5.11625,3.538,-1,5
798,5.11979,3.543,-1,5
799,5.12334,3.549,-1,5
800,5.12689,3.555,-1,5
801,5.13045,3.558,-1,5
802,5.13402,3.566,-1,5
803,5.13759,3.570,-1,5
804,5.14116,3.573,-1,5
805,5.14474,3.577,-1,5
806,5.14832,3.580,-1,5
807,5.15191,3.586,-1,5
808,5.15550,3.589,-1,5
809,5.15909,3.591,-1,5
810,5.16268,3.592,-1,5
811,5.16628,3.597,-1,5
812,5.16987,3.598,-1,5
813,5.17347,3.600,-1,5
814,5.17707,3.601,-1,5
815,5.18068,3.607,-1,5
816,5.18429,3.607,-1,5
817,5.18790,3.607,-1,5
818,5.19151,3.611,-1,5
819,5.19512,3.611,-1,5
820,5.19873,3.616,-1,5
821,5.20235,3.616,-1,5
822,5.20597,3.618,-1,5
823,5.20959,3.618,-1,5
824,5.21321,3.623,-1,5
825,5.21683,3.621,-1,5
826,5.22045,3.623,-1,5
827,5.22770,3.625,-1,5
828,5.23132,3.625,-1,5
829,5.23132,3.625,-1,5
830,5.23495,3.624,-1,5
831,5.23858,3.629,-1,5
832,5.24221,3.629,-1,5
833,5.24584,3.632,-1,5
834,5.24947,3.633,-1,5
835,5.25311,3.637,-1,5
836,5.25675,3.638,-1,5
837,5.26039,3.644,-1,5
838,5.26404,3.648,-1,5
839,5.26769,3.654,-1,5
840,5.27135,3.654,-1,5
841,5.27501,3.663,-1,5
842,5.27868,3.668,-1,5
843,5.28235,3.674,-1,5
844,5.28603,3.678,-1,5
845,5.28971,3.686,-1,5
846,5.29340,3.690,-1,5
847,5.29710,3.699,-1,5
848,5.30081,3.704,-1,5
849,5.30451,3.707,-1,5
850,5.30823,3.719,-1,5
851,5.31196,3.725,-1,5
852,5.31569,3.733,-1,5
853,5.31942,3.732,-1,5
854,5.32317,3.747,-1,5
855,5.32692,3.753,-1,5
856,5.33069,3.763,-1,5
857,5.33445,3.768,-1,5
858,5.33823,3.774,-1,5
859,5.34201,3.783,-1,5
860,5.34581,3.794,-1,5
861,5.34961,3.803,-1,5
862,5.35342,3.812,-1,5
863,5.35724,3.817,-1,5
864,5.36107,3.828,-1,5
865,5.36490,3.836,-1,5
866,5.36875,3.846,-1,5
867,5.37647,3.863,-1,5
868,5.38034,3.871,-1,5
869,5.38422,3.880,-1,5
870,5.38811,3.895,-1,5
871,5.39201,3.898,-1,5
872,5.39592,3.910,-1,5
873,5.39984,3.918,-1,5
