cnt,pos,speed,Dir,Force,
1,3.11247,1.695,-1,5
2,3.11416,1.693,-1,5
3,3.11585,1.683,-1,5
4,3.11751,1.659,-1,5
5,3.11915,1.645,-1,5
6,3.12079,1.639,-1,5
7,3.12243,1.635,-1,5
8,3.12405,1.622,-1,5
9,3.12564,1.595,-1,5
10,3.12722,1.580,-1,5
11,3.12880,1.576,-1,5
12,3.13037,1.570,-1,5
13,3.13192,1.553,-1,5
14,3.13345,1.530,-1,5
15,3.13496,1.514,-1,5
16,3.13647,1.508,-1,5
17,3.13798,1.506,-1,5
18,3.13946,1.479,-1,5
19,3.14091,1.454,-1,5
20,3.14236,1.448,-1,5
21,3.14381,1.448,-1,5
22,3.14524,1.431,-1,5
23,3.14664,1.405,-1,5
24,3.14803,1.385,-1,5
25,3.14941,1.378,-1,5
26,3.15079,1.381,-1,5
27,3.15215,1.368,-1,5
28,3.15349,1.336,-1,5
29,3.15480,1.311,-1,5
30,3.15611,1.309,-1,5
31,3.15742,1.315,-1,5
32,3.15872,1.299,-1,5
33,3.15999,1.271,-1,5
34,3.16125,1.255,-1,5
35,3.16250,1.254,-1,5
36,3.16375,1.245,-1,5
37,3.16498,1.236,-1,5
38,3.16621,1.222,-1,5
39,3.16741,1.208,-1,5
40,3.16981,1.193,-1,5
41,3.17099,1.185,-1,5
42,3.17216,1.168,-1,5
43,3.17332,1.159,-1,5
44,3.17448,1.161,-1,5
45,3.17564,1.159,-1,5
46,3.17678,1.141,-1,5
47,3.17790,1.121,-1,5
48,3.17902,1.126,-1,5
49,3.18016,1.137,-1,5
50,3.18129,1.127,-1,5
51,3.18239,1.106,-1,5
52,3.18350,1.103,-1,5
53,3.18461,1.116,-1,5
54,3.18573,1.116,-1,5
55,3.18683,1.098,-1,5
56,3.18792,1.091,-1,5
57,3.18902,1.107,-1,5
58,3.19014,1.118,-1,5
59,3.19125,1.106,-1,5
60,3.19234,1.093,-1,5
61,3.19344,1.102,-1,5
62,3.19456,1.121,-1,5
63,3.19569,1.122,-1,5
64,3.19680,1.111,-1,5
65,3.19791,1.116,-1,5
66,3.19905,1.136,-1,5
67,3.20019,1.143,-1,5
68,3.20133,1.136,-1,5
69,3.20247,1.141,-1,5
70,3.20363,1.175,-1,5
71,3.20480,1.175,-1,5
72,3.20598,1.182,-1,5
73,3.20716,1.182,-1,5
74,3.20836,1.212,-1,5
75,3.20957,1.222,-1,5
76,3.21080,1.231,-1,5
77,3.21328,1.252,-1,5
78,3.21455,1.269,-1,5
79,3.21583,1.282,-1,5
80,3.21712,1.294,-1,5
81,3.21844,1.313,-1,5
82,3.21977,1.332,-1,5
83,3.22112,1.352,-1,5
84,3.22249,1.374,-1,5
85,3.22389,1.391,-1,5
86,3.22529,1.402,-1,5
87,3.22671,1.424,-1,5
88,3.22817,1.456,-1,5
89,3.22964,1.476,-1,5
90,3.23113,1.514,-1,5
91,3.23265,1.533,-1,5
92,3.23418,1.533,-1,5
93,3.23575,1.595,-1,5
94,3.23734,1.595,-1,5
95,3.23895,1.629,-1,5
96,3.24058,1.658,-1,5
97,3.24393,1.692,-1,5
98,3.24566,1.722,-1,5
99,3.24740,1.743,-1,5
100,3.24916,1.759,-1,5
101,3.25094,1.788,-1,5
102,3.25277,1.826,-1,5
103,3.25463,1.856,-1,5
104,3.25651,1.880,-1,5
105,3.25840,1.894,-1,5
106,3.26033,1.926,-1,5
107,3.26229,1.964,-1,5
108,3.26429,1.996,-1,5
109,3.26630,2.017,-1,5
110,3.26833,2.031,-1,5
111,3.27040,2.067,-1,5
112,3.27251,2.108,-1,5
113,3.27464,2.135,-1,5
114,3.27679,2.149,-1,5
115,3.27896,2.170,-1,5
116,3.28117,2.208,-1,5
117,3.28342,2.246,-1,5
118,3.28568,2.267,-1,5
119,3.28796,2.280,-1,5
120,3.29027,2.304,-1,5
121,3.29261,2.342,-1,5
122,3.29499,2.377,-1,5
123,3.29738,2.389,-1,5
124,3.29978,2.399,-1,5
125,3.30221,2.430,-1,5
126,3.30468,2.471,-1,5
127,3.30717,2.490,-1,5
128,3.30966,2.496,-1,5
129,3.31218,2.513,-1,5
130,3.31472,2.543,-1,5
131,3.31729,2.573,-1,5
132,3.31988,2.584,-1,5
133,3.32247,2.591,-1,5
134,3.32508,2.611,-1,5
135,3.32771,2.637,-1,5
136,3.33037,2.656,-1,5
137,3.33304,2.665,-1,5
138,3.33571,2.675,-1,5
139,3.33840,2.688,-1,5
140,3.34111,2.712,-1,5
141,3.34384,2.729,-1,5
142,3.34657,2.734,-1,5
143,3.34931,2.738,-1,5
144,3.35207,2.756,-1,5
145,3.35484,2.773,-1,5
146,3.35763,2.786,-1,5
147,3.36042,2.792,-1,5
148,3.36321,2.795,-1,5
149,3.36602,2.808,-1,5
150,3.36884,2.833,-1,5
151,3.37451,2.837,-1,5
152,3.37451,2.836,-1,5
153,3.37735,2.848,-1,5
154,3.38020,2.848,-1,5
155,3.38306,2.866,-1,5
156,3.38593,2.868,-1,5
157,3.38880,2.867,-1,5
158,3.39167,2.871,-1,5
159,3.39744,2.891,-1,5
160,3.40033,2.895,-1,5
161,3.40322,2.889,-1,5
162,3.40611,2.888,-1,5
163,3.40901,2.901,-1,5
164,3.41192,2.909,-1,5
165,3.41482,2.904,-1,5
166,3.41772,2.900,-1,5
167,3.42063,2.904,-1,5
168,3.42354,2.910,-1,5
169,3.42645,2.908,-1,5
170,3.42936,2.905,-1,5
171,3.43227,2.907,-1,5
172,3.43517,2.907,-1,5
173,3.43809,2.911,-1,5
174,3.44100,2.911,-1,5
175,3.44391,2.902,-1,5
176,3.44681,2.909,-1,5
177,3.45263,2.909,-1,5
178,3.45553,2.904,-1,5
179,3.45843,2.896,-1,5
180,3.46133,2.896,-1,5
181,3.46423,2.899,-1,5
182,3.46712,2.897,-1,5
183,3.47001,2.889,-1,5
184,3.47289,2.881,-1,5
185,3.47577,2.881,-1,5
186,3.47866,2.885,-1,5
187,3.48154,2.877,-1,5
188,3.48441,2.870,-1,5
189,3.48727,2.865,-1,5
190,3.49013,2.857,-1,5
191,3.49299,2.866,-1,5
192,3.49585,2.854,-1,5
193,3.49869,2.843,-1,5
194,3.50153,2.843,-1,5
195,3.50437,2.839,-1,5
196,3.50721,2.835,-1,5
197,3.51004,2.827,-1,5
198,3.51285,2.816,-1,5
199,3.51567,2.813,-1,5
200,3.51847,2.809,-1,5
201,3.52128,2.801,-1,5
202,3.52407,2.792,-1,5
203,3.52685,2.781,-1,5
204,3.52963,2.778,-1,5
205,3.53240,2.777,-1,5
206,3.53517,2.764,-1,5
207,3.53791,2.748,-1,5
208,3.54066,2.746,-1,5
209,3.54340,2.738,-1,5
210,3.54613,2.732,-1,5
211,3.55156,2.711,-1,5
212,3.55156,2.701,-1,5
213,3.55426,2.694,-1,5
214,3.55696,2.694,-1,5
215,3.55965,2.679,-1,5
216,3.56499,2.662,-1,5
217,3.56765,2.658,-1,5
218,3.57030,2.655,-1,5
219,3.57294,2.640,-1,5
220,3.57557,2.628,-1,5
221,3.57819,2.622,-1,5
222,3.58081,2.617,-1,5
223,3.58341,2.602,-1,5
224,3.58601,2.595,-1,5
225,3.58859,2.586,-1,5
226,3.59117,2.575,-1,5
227,3.59373,2.569,-1,5
228,3.59630,2.563,-1,5
229,3.59884,2.545,-1,5
230,3.60138,2.535,-1,5
231,3.60391,2.531,-1,5
232,3.60643,2.524,-1,5
233,3.60895,2.513,-1,5
234,3.61144,2.491,-1,5
235,3.61394,2.485,-1,5
236,3.61890,2.478,-1,5
237,3.62136,2.464,-1,5
238,3.62382,2.456,-1,5
239,3.62627,2.449,-1,5
240,3.62871,2.442,-1,5
241,3.63114,2.428,-1,5
242,3.63356,2.425,-1,5
243,3.63598,2.414,-1,5
244,3.63838,2.404,-1,5
245,3.64078,2.395,-1,5
246,3.64317,2.389,-1,5
247,3.64555,2.380,-1,5
248,3.64792,2.372,-1,5
249,3.65028,2.359,-1,5
250,3.65264,2.358,-1,5
251,3.65498,2.346,-1,5
252,3.65732,2.340,-1,5
253,3.65965,2.324,-1,5
254,3.66197,2.324,-1,5
255,3.66429,2.318,-1,5
256,3.66659,2.306,-1,5
257,3.66889,2.293,-1,5
258,3.67118,2.291,-1,5
259,3.67346,2.287,-1,5
260,3.67574,2.277,-1,5
261,3.67800,2.263,-1,5
262,3.68027,2.263,-1,5
263,3.68252,2.257,-1,5
264,3.68477,2.245,-1,5
265,3.68701,2.237,-1,5
266,3.69147,2.229,-1,5
267,3.69369,2.218,-1,5
268,3.69590,2.211,-1,5
269,3.69811,2.208,-1,5
270,3.70031,2.203,-1,5
271,3.70250,2.195,-1,5
272,3.70469,2.189,-1,5
273,3.70687,2.179,-1,5
274,3.70905,2.180,-1,5
275,3.71123,2.176,-1,5
276,3.71340,2.168,-1,5
277,3.71555,2.154,-1,5
278,3.71771,2.155,-1,5
279,3.71987,2.160,-1,5
280,3.72201,2.150,-1,5
281,3.72415,2.135,-1,5
282,3.72628,2.135,-1,5
283,3.72843,2.143,-1,5
284,3.73056,2.133,-1,5
285,3.73268,2.122,-1,5
286,3.73693,2.126,-1,5
287,3.73693,2.120,-1,5
288,3.74115,2.108,-1,5
289,3.74115,2.106,-1,5
290,3.74537,2.108,-1,5
291,3.74537,2.108,-1,5
292,3.74958,2.101,-1,5
293,3.75168,2.096,-1,5
294,3.75377,2.091,-1,5
295,3.75586,2.095,-1,5
296,3.75796,2.097,-1,5
297,3.76005,2.092,-1,5
298,3.76213,2.078,-1,5
299,3.76421,2.084,-1,5
300,3.76631,2.094,-1,5
301,3.76840,2.089,-1,5
302,3.77047,2.075,-1,5
303,3.77254,2.071,-1,5
304,3.77463,2.089,-1,5
305,3.77672,2.088,-1,5
306,3.77880,2.077,-1,5
307,3.78087,2.070,-1,5
308,3.78295,2.082,-1,5
309,3.78504,2.090,-1,5
310,3.78712,2.086,-1,5
311,3.78920,2.076,-1,5
312,3.79128,2.078,-1,5
313,3.79337,2.089,-1,5
314,3.79546,2.094,-1,5
315,3.79755,2.091,-1,5
316,3.79964,2.083,-1,5
317,3.80172,2.088,-1,5
318,3.80383,2.105,-1,5
319,3.80594,2.109,-1,5
320,3.80803,2.097,-1,5
321,3.81013,2.093,-1,5
322,3.81224,2.117,-1,5
323,3.81437,2.129,-1,5
324,3.81649,2.119,-1,5
325,3.81860,2.113,-1,5
326,3.82288,2.150,-1,5
327,3.82288,2.146,-1,5
328,3.82503,2.141,-1,5
329,3.82717,2.141,-1,5
330,3.82932,2.169,-1,5
331,3.83149,2.169,-1,5
332,3.83584,2.177,-1,5
333,3.83802,2.175,-1,5
334,3.84021,2.193,-1,5
335,3.84242,2.212,-1,5
336,3.84464,2.217,-1,5
337,3.84685,2.214,-1,5
338,3.84907,2.221,-1,5
339,3.85132,2.248,-1,5
340,3.85358,2.261,-1,5
341,3.85584,2.260,-1,5
342,3.85810,2.261,-1,5
343,3.86039,2.284,-1,5
344,3.86269,2.305,-1,5
345,3.86500,2.309,-1,5
346,3.86731,2.310,-1,5
347,3.86964,2.332,-1,5
348,3.87199,2.346,-1,5
349,3.87435,2.367,-1,5
350,3.87672,2.369,-1,5
351,3.87911,2.382,-1,5
352,3.88150,2.397,-1,5
353,3.88392,2.416,-1,5
354,3.88879,2.444,-1,5
355,3.89125,2.456,-1,5
356,3.89373,2.476,-1,5
357,3.89622,2.495,-1,5
358,3.89873,2.512,-1,5
359,3.90126,2.524,-1,5
360,3.90380,2.540,-1,5
361,3.90636,2.565,-1,5
362,3.90895,2.587,-1,5
363,3.91155,2.600,-1,5
364,3.91416,2.614,-1,5
365,3.91680,2.640,-1,5
366,3.91947,2.663,-1,5
367,3.92215,2.685,-1,5
368,3.92485,2.703,-1,5
369,3.92757,2.721,-1,5
370,3.93032,2.745,-1,5
371,3.93309,2.771,-1,5
372,3.93589,2.796,-1,5
373,3.93870,2.815,-1,5
374,3.94154,2.834,-1,5
375,3.94440,2.861,-1,5
376,3.94729,2.891,-1,5
377,3.95020,2.911,-1,5
378,3.95313,2.930,-1,5
379,3.95609,2.959,-1,5
380,3.95907,2.985,-1,5
381,3.96208,3.010,-1,5
382,3.96512,3.037,-1,5
383,3.96818,3.057,-1,5
384,3.97126,3.082,-1,5
385,3.97437,3.115,-1,5
386,3.97751,3.137,-1,5
387,3.98067,3.162,-1,5
388,3.98386,3.184,-1,5
389,3.98707,3.216,-1,5
390,3.99031,3.240,-1,5
391,3.99358,3.266,-1,5
392,3.99687,3.287,-1,5
393,4.00018,3.312,-1,5
394,4.00352,3.341,-1,5
395,4.00689,3.365,-1,5
396,4.01027,3.385,-1,5
397,4.01368,3.405,-1,5
398,4.01711,3.435,-1,5
399,4.02057,3.459,-1,5
400,4.02405,3.479,-1,5
401,4.02754,3.494,-1,5
402,4.03106,3.516,-1,5
403,4.03816,3.559,-1,5
404,4.03816,3.576,-1,5
405,4.04532,3.589,-1,5
406,4.04532,3.610,-1,5
407,4.05256,3.630,-1,5
408,4.05256,3.642,-1,5
409,4.05986,3.656,-1,5
410,4.06353,3.666,-1,5
411,4.06721,3.686,-1,5
412,4.07092,3.700,-1,5
413,4.07462,3.708,-1,5
414,4.07834,3.719,-1,5
415,4.08207,3.731,-1,5
416,4.08582,3.743,-1,5
417,4.08957,3.751,-1,5
418,4.09332,3.758,-1,5
419,4.09709,3.764,-1,5
420,4.10086,3.775,-1,5
421,4.10464,3.778,-1,5
422,4.10842,3.782,-1,5
423,4.11221,3.783,-1,5
424,4.11600,3.793,-1,5
425,4.11979,3.794,-1,5
426,4.12359,3.793,-1,5
427,4.12738,3.793,-1,5
428,4.13117,3.794,-1,5
429,4.13497,3.796,-1,5
430,4.13876,3.794,-1,5
431,4.14256,3.791,-1,5
432,4.14634,3.788,-1,5
433,4.15013,3.786,-1,5
434,4.15392,3.786,-1,5
435,4.15769,3.779,-1,5
436,4.16147,3.773,-1,5
437,4.16523,3.766,-1,5
438,4.16900,3.761,-1,5
439,4.17275,3.755,-1,5
440,4.17650,3.750,-1,5
441,4.18024,3.741,-1,5
442,4.18397,3.729,-1,5
443,4.18769,3.719,-1,5
444,4.19140,3.712,-1,5
445,4.19511,3.705,-1,5
446,4.19880,3.695,-1,5
447,4.20248,3.681,-1,5
448,4.20615,3.670,-1,5
449,4.20982,3.663,-1,5
450,4.21347,3.653,-1,5
451,4.21711,3.641,-1,5
452,4.22074,3.615,-1,5
453,4.22435,3.615,-1,5
454,4.22796,3.596,-1,5
455,4.23155,3.596,-1,5
456,4.23870,3.569,-1,5
457,4.23870,3.555,-1,5
458,4.24226,3.555,-1,5
459,4.24580,3.542,-1,5
460,4.24933,3.533,-1,5
461,4.25635,3.503,-1,5
462,4.25984,3.490,-1,5
463,4.26332,3.477,-1,5
464,4.26679,3.465,-1,5
465,4.27024,3.451,-1,5
466,4.27367,3.435,-1,5
467,4.27710,3.423,-1,5
468,4.28051,3.409,-1,5
469,4.28390,3.395,-1,5
470,4.28728,3.385,-1,5
471,4.29065,3.368,-1,5
472,4.29401,3.355,-1,5
473,4.29735,3.339,-1,5
474,4.30068,3.330,-1,5
475,4.30399,3.315,-1,5
476,4.30729,3.300,-1,5
477,4.31058,3.283,-1,5
478,4.31385,3.272,-1,5
479,4.31711,3.260,-1,5
480,4.32036,3.248,-1,5
481,4.32359,3.230,-1,5
482,4.32680,3.213,-1,5
483,4.33320,3.197,-1,5
484,4.33320,3.176,-1,5
485,4.33638,3.157,-1,5
486,4.33953,3.157,-1,5
487,4.34268,3.150,-1,5
488,4.34582,3.136,-1,5
489,4.35206,3.108,-1,5
490,4.35515,3.094,-1,5
491,4.35823,3.082,-1,5
492,4.36131,3.076,-1,5
493,4.36437,3.062,-1,5
494,4.36741,3.043,-1,5
495,4.37044,3.031,-1,5
496,4.37347,3.023,-1,5
497,4.37647,3.008,-1,5
498,4.37947,2.998,-1,5
499,4.38246,2.985,-1,5
500,4.38543,2.969,-1,5
501,4.38839,2.964,-1,5
502,4.39134,2.950,-1,5
503,4.39428,2.937,-1,5
504,4.39720,2.926,-1,5
505,4.40012,2.917,-1,5
506,4.40303,2.907,-1,5
507,4.40592,2.897,-1,5
508,4.40881,2.883,-1,5
509,4.41168,2.876,-1,5
510,4.41455,2.864,-1,5
511,4.41741,2.862,-1,5
512,4.42026,2.849,-1,5
513,4.42309,2.834,-1,5
514,4.42593,2.833,-1,5
515,4.42875,2.826,-1,5
516,4.43157,2.815,-1,5
517,4.43437,2.805,-1,5
518,4.43717,2.799,-1,5
519,4.43997,2.794,-1,5
520,4.44275,2.789,-1,5
521,4.44553,2.780,-1,5
522,4.44830,2.770,-1,5
523,4.45107,2.763,-1,5
524,4.45383,2.763,-1,5
525,4.45659,2.756,-1,5
526,4.45933,2.749,-1,5
527,4.46207,2.739,-1,5
528,4.46481,2.738,-1,5
529,4.46755,2.729,-1,5
530,4.47300,2.725,-1,5
531,4.47572,2.720,-1,5
532,4.47843,2.711,-1,5
533,4.48114,2.711,-1,5
534,4.48385,2.711,-1,5
535,4.48656,2.706,-1,5
536,4.48926,2.699,-1,5
537,4.49195,2.697,-1,5
538,4.49465,2.696,-1,5
539,4.49735,2.696,-1,5
540,4.50004,2.687,-1,5
541,4.50273,2.687,-1,5
542,4.50542,2.688,-1,5
543,4.50810,2.686,-1,5
544,4.51079,2.689,-1,5
545,4.51348,2.686,-1,5
546,4.51616,2.682,-1,5
547,4.51884,2.684,-1,5
548,4.52153,2.688,-1,5
549,4.52422,2.685,-1,5
550,4.52690,2.681,-1,5
551,4.52959,2.691,-1,5
552,4.53228,2.690,-1,5
553,4.53497,2.689,-1,5
554,4.53766,2.694,-1,5
555,4.54036,2.698,-1,5
556,4.54306,2.697,-1,5
557,4.54576,2.704,-1,5
558,4.54847,2.714,-1,5
559,4.55390,2.717,-1,5
560,4.55662,2.723,-1,5
561,4.55935,2.731,-1,5
562,4.56209,2.738,-1,5
563,4.56483,2.738,-1,5
564,4.56758,2.753,-1,5
565,4.57034,2.762,-1,5
566,4.57311,2.765,-1,5
567,4.57588,2.776,-1,5
568,4.57867,2.787,-1,5
569,4.58147,2.796,-1,5
570,4.58427,2.808,-1,5
571,4.58709,2.818,-1,5
572,4.58992,2.825,-1,5
573,4.59276,2.842,-1,5
574,4.59562,2.857,-1,5
575,4.59849,2.869,-1,5
576,4.60137,2.880,-1,5
577,4.60426,2.891,-1,5
578,4.60717,2.913,-1,5
579,4.61010,2.927,-1,5
580,4.61304,2.940,-1,5
581,4.61599,2.957,-1,5
582,4.61896,2.971,-1,5
583,4.62195,2.986,-1,5
584,4.62496,3.008,-1,5
585,4.62798,3.023,-1,5
586,4.63102,3.037,-1,5
587,4.63407,3.057,-1,5
588,4.63715,3.092,-1,5
589,4.64335,3.108,-1,5
590,4.64648,3.127,-1,5
591,4.64963,3.146,-1,5
592,4.65279,3.164,-1,5
593,4.65597,3.182,-1,5
594,4.65917,3.195,-1,5
595,4.66239,3.218,-1,5
596,4.66562,3.233,-1,5
597,4.66887,3.248,-1,5
598,4.67214,3.284,-1,5
599,4.67542,3.305,-1,5
600,4.67872,3.305,-1,5
601,4.68205,3.322,-1,5
602,4.68538,3.337,-1,5
603,4.68874,3.351,-1,5
604,4.69211,3.375,-1,5
605,4.69550,3.391,-1,5
606,4.69891,3.423,-1,5
607,4.70577,3.442,-1,5
608,4.70924,3.463,-1,5
609,4.71272,3.482,-1,5
610,4.71621,3.495,-1,5
611,4.71973,3.512,-1,5
612,4.72326,3.531,-1,5
613,4.72681,3.553,-1,5
614,4.73038,3.566,-1,5
615,4.73396,3.580,-1,5
616,4.73756,3.601,-1,5
617,4.74118,3.621,-1,5
618,4.74481,3.635,-1,5
619,4.74847,3.667,-1,5
620,4.75213,3.667,-1,5
621,4.75582,3.683,-1,5
622,4.75952,3.706,-1,5
623,4.76324,3.720,-1,5
624,4.76698,3.736,-1,5
625,4.77073,3.750,-1,5
626,4.77450,3.773,-1,5
627,4.77829,3.786,-1,5
628,4.78209,3.801,-1,5
629,4.78591,3.818,-1,5
630,4.78974,3.835,-1,5
631,4.79359,3.853,-1,5
632,4.79746,3.870,-1,5
633,4.80135,3.881,-1,5
634,4.80524,3.897,-1,5
635,4.80916,3.914,-1,5
636,4.81309,3.933,-1,5
637,4.81703,3.943,-1,5
638,4.82098,3.952,-1,5
639,4.82495,3.971,-1,5
640,4.82894,3.985,-1,5
641,4.83294,4.000,-1,5
642,4.83695,4.011,-1,5
643,4.84097,4.024,-1,5
644,4.84501,4.038,-1,5
645,4.84907,4.054,-1,5
646,4.85313,4.063,-1,5
647,4.85720,4.076,-1,5
648,4.86129,4.087,-1,5
649,4.86539,4.100,-1,5
650,4.86950,4.112,-1,5
651,4.87362,4.121,-1,5
652,4.87775,4.130,-1,5
653,4.88190,4.142,-1,5
654,4.88605,4.149,-1,5
655,4.89020,4.158,-1,5
656,4.89437,4.164,-1,5
657,4.90272,4.179,-1,5
658,4.90691,4.188,-1,5
659,4.91110,4.194,-1,5
660,4.91530,4.195,-1,5
661,4.91950,4.201,-1,5
662,4.92370,4.206,-1,5
663,4.92792,4.214,-1,5
664,4.93213,4.214,-1,5
665,4.93634,4.214,-1,5
666,4.94056,4.214,-1,5
667,4.94478,4.222,-1,5
668,4.94901,4.226,-1,5
669,4.95323,4.220,-1,5
670,4.95744,4.216,-1,5
671,4.96166,4.217,-1,5
672,4.96588,4.223,-1,5
673,4.97010,4.218,-1,5
674,4.97432,4.217,-1,5
675,4.97853,4.210,-1,5
676,4.98274,4.210,-1,5
677,4.99116,4.210,-1,5
678,4.99536,4.200,-1,5
679,4.99955,4.197,-1,5
680,4.99955,4.192,-1,5
681,5.00375,4.191,-1,5
682,5.00794,4.185,-1,5
683,5.01630,4.174,-1,5
684,5.02046,4.168,-1,5
685,5.02463,4.168,-1,5
686,5.02879,4.161,-1,5
687,5.03294,4.151,-1,5
688,5.03708,4.137,-1,5
689,5.04121,4.129,-1,5
690,5.04533,4.123,-1,5
691,5.04945,4.119,-1,5
692,5.05356,4.111,-1,5
693,5.05766,4.095,-1,5
694,5.06174,4.086,-1,5
695,5.06582,4.076,-1,5
696,5.06989,4.073,-1,5
697,5.07396,4.062,-1,5
698,5.07801,4.053,-1,5
699,5.08205,4.038,-1,5
700,5.08607,4.029,-1,5
701,5.09010,4.026,-1,5
702,5.09411,4.013,-1,5
703,5.09812,4.002,-1,5
704,5.10210,3.986,-1,5
705,5.10609,3.985,-1,5
706,5.11006,3.973,-1,5
707,5.11402,3.964,-1,5
708,5.11797,3.939,-1,5
709,5.12191,3.939,-1,5
710,5.12584,3.932,-1,5
711,5.12977,3.924,-1,5
712,5.13368,3.914,-1,5
713,5.13759,3.903,-1,5
714,5.14536,3.883,-1,5
715,5.14923,3.873,-1,5
716,5.15310,3.863,-1,5
717,5.15695,3.855,-1,5
718,5.16079,3.845,-1,5
719,5.16463,3.834,-1,5
720,5.16845,3.823,-1,5
721,5.17227,3.815,-1,5
722,5.17607,3.802,-1,5
723,5.17986,3.796,-1,5
724,5.18365,3.787,-1,5
725,5.18743,3.775,-1,5
726,5.19119,3.766,-1,5
727,5.19495,3.757,-1,5
728,5.19870,3.750,-1,5
729,5.20244,3.741,-1,5
730,5.20617,3.727,-1,5
731,5.20989,3.722,-1,5
732,5.21360,3.713,-1,5
733,5.21731,3.705,-1,5
734,5.22100,3.695,-1,5
735,5.22468,3.681,-1,5
736,5.22836,3.678,-1,5
737,5.23203,3.672,-1,5
738,5.23569,3.647,-1,5
739,5.23934,3.647,-1,5
740,5.24298,3.636,-1,5
741,5.24662,3.636,-1,5
742,5.25386,3.617,-1,5
743,5.25747,3.608,-1,5
744,5.26107,3.601,-1,5
745,5.26467,3.597,-1,5
746,5.26826,3.589,-1,5
747,5.27184,3.578,-1,5
748,5.27541,3.575,-1,5
749,5.27898,3.570,-1,5
750,5.28254,3.563,-1,5
751,5.28610,3.553,-1,5
752,5.28964,3.547,-1,5
753,5.29319,3.544,-1,5
754,5.29673,3.538,-1,5
755,5.30025,3.530,-1,5
756,5.30378,3.524,-1,5
757,5.30730,3.517,-1,5
758,5.31081,3.515,-1,5
759,5.31432,3.509,-1,5
760,5.31782,3.499,-1,5
761,5.32131,3.494,-1,5
762,5.32481,3.494,-1,5
763,5.32829,3.483,-1,5
764,5.33177,3.482,-1,5
765,5.33524,3.473,-1,5
766,5.33871,3.467,-1,5
767,5.34218,3.464,-1,5
768,5.34563,3.455,-1,5
769,5.34909,3.456,-1,5
770,5.35253,3.447,-1,5
771,5.35598,3.443,-1,5
772,5.35941,3.434,-1,5
773,5.36284,3.434,-1,5
774,5.36627,3.422,-1,5
775,5.37311,3.416,-1,5
776,5.37651,3.409,-1,5
777,5.37992,3.404,-1,5
778,5.38332,3.400,-1,5
779,5.38671,3.395,-1,5
780,5.39010,3.390,-1,5
781,5.39349,3.386,-1,5
782,5.39687,3.382,-1,5
783,5.40025,3.375,-1,5
784,5.40362,3.369,-1,5
785,5.40699,3.371,-1,5
786,5.41035,3.368,-1,5
787,5.41371,3.359,-1,5
788,5.41707,3.359,-1,5
789,5.42043,3.358,-1,5
790,5.42378,3.353,-1,5
791,5.42714,3.353,-1,5
792,5.43048,3.350,-1,5
793,5.43384,3.349,-1,5
794,5.43719,3.349,-1,5
795,5.44053,3.348,-1,5
796,5.44388,3.348,-1,5
797,5.44723,3.351,-1,5
798,5.45059,3.353,-1,5
799,5.45394,3.353,-1,5
800,5.45729,3.354,-1,5
801,5.46401,3.366,-1,5
802,5.46738,3.369,-1,5
803,5.47075,3.368,-1,5
804,5.47412,3.374,-1,5
805,5.47751,3.384,-1,5
806,5.48090,3.392,-1,5
807,5.48430,3.397,-1,5
808,5.48770,3.404,-1,5
809,5.49111,3.414,-1,5
810,5.49454,3.428,-1,5
811,5.49798,3.436,-1,5
812,5.50143,3.446,-1,5
813,5.50488,3.457,-1,5
814,5.50835,3.470,-1,5
815,5.51184,3.487,-1,5
816,5.51534,3.497,-1,5
817,5.51884,3.508,-1,5
818,5.52237,3.524,-1,5
819,5.52591,3.544,-1,5
820,5.52947,3.561,-1,5
821,5.53305,3.572,-1,5
822,5.53664,3.591,-1,5
823,5.54025,3.611,-1,5
824,5.54388,3.632,-1,5
825,5.54753,3.650,-1,5
826,5.55120,3.671,-1,5
827,5.55489,3.688,-1,5
828,5.55860,3.717,-1,5
829,5.56234,3.737,-1,5
830,5.56610,3.760,-1,5
831,5.56988,3.778,-1,5
832,5.57369,3.807,-1,5
833,5.58137,3.855,-1,5
834,5.58137,3.879,-1,5
835,5.58916,3.908,-1,5
836,5.59310,3.937,-1,5
837,5.59706,3.965,-1,5
838,5.60105,3.987,-1,5
839,5.60507,4.019,-1,5
840,5.60912,4.049,-1,5
841,5.61320,4.080,-1,5
842,5.61731,4.110,-1,5
843,5.62145,4.136,-1,5
844,5.62562,4.171,-1,5
845,5.62982,4.203,-1,5
846,5.63406,4.237,-1,5
847,5.63832,4.264,-1,5
848,5.64262,4.301,-1,5
849,5.64695,4.330,-1,5
850,5.65132,4.365,-1,5
851,5.65571,4.426,-1,5
852,5.66460,4.460,-1,5
853,5.66460,4.494,-1,5
854,5.66909,4.524,-1,5
855,5.67362,4.524,-1,5
856,5.67817,4.552,-1,5
857,5.68275,4.583,-1,5
858,5.68736,4.645,-1,5
859,5.69201,4.672,-1,5
860,5.70139,4.704,-1,5
861,5.70611,4.729,-1,5
862,5.71087,4.757,-1,5
863,5.71565,4.781,-1,5
864,5.72046,4.810,-1,5
865,5.72529,4.829,-1,5
866,5.73015,4.857,-1,5
867,5.73502,4.873,-1,5
868,5.73991,4.892,-1,5
869,5.74483,4.914,-1,5
870,5.74976,4.934,-1,5
871,5.75471,4.947,-1,5
872,5.75967,4.962,-1,5
873,5.76465,4.978,-1,5
