cnt,pos,speed,Dir,Force,
1,0,1.0017,-1,5
2,0.00103998,1.0102,-1,5
3,0.00208998,1.0183,-1,5
4,0.00316,1.0269,-1,5
5,0.00425005,1.0357,-1,5
6,0.00533009,1.0443,-1,5
7,0.00641012,1.0533,-1,5
8,0.00750995,1.0629,-1,5
9,0.00864005,1.0723,-1,5
10,0.00976992,1.0807,-1,5
11,0.01089,1.0885,-1,5
12,0.0120201,1.0978,-1,5
13,0.01317,1.108,-1,5
14,0.0143299,1.1173,-1,5
15,0.0155001,1.1252,-1,5
16,0.01667,1.1341,-1,5
17,0.0178499,1.1442,-1,5
18,0.0190501,1.1535,-1,5
19,0.0202501,1.1611,-1,5
20,0.0214601,1.1694,-1,5
21,0.02268,1.1792,-1,5
22,0.02391,1.189,-1,5
23,0.02514,1.1973,-1,5
24,0.0263901,1.2053,-1,5
25,0.0288999,1.2144,-1,5
26,0.03017,1.2237,-1,5
27,0.03145,1.2341,-1,5
28,0.0327499,1.2447,-1,5
29,0.03405,1.2541,-1,5
30,0.0353401,1.2623,-1,5
31,0.0366499,1.2715,-1,5
32,0.0379801,1.2816,-1,5
33,0.03932,1.2919,-1,5
34,0.0406599,1.3013,-1,5
35,0.0420001,1.31,-1,5
36,0.04335,1.3186,-1,5
37,0.0447099,1.3263,-1,5
38,0.0460901,1.3344,-1,5
39,0.0474801,1.3434,-1,5
40,0.0488701,1.3523,-1,5
41,0.0502601,1.3605,-1,5
42,0.0516601,1.3684,-1,5
43,0.0530801,1.3762,-1,5
44,0.0545001,1.3842,-1,5
45,0.0559299,1.3929,-1,5
46,0.05881,1.4021,-1,5
47,0.0602701,1.4115,-1,5
48,0.0602701,1.4201,-1,5
49,0.0632,1.4286,-1,5
50,0.0646901,1.4383,-1,5
51,0.06617,1.4478,-1,5
52,0.0676601,1.4563,-1,5
53,0.06917,1.4654,-1,5
54,0.0706899,1.4754,-1,5
55,0.0722201,1.4844,-1,5
56,0.07374,1.4925,-1,5
57,0.0752699,1.5005,-1,5
58,0.0768199,1.5086,-1,5
59,0.0783901,1.5182,-1,5
60,0.0799601,1.5272,-1,5
61,0.0815301,1.535,-1,5
62,0.0831001,1.5434,-1,5
63,0.0846901,1.5525,-1,5
64,0.0863099,1.5615,-1,5
65,0.08793,1.571,-1,5
66,0.08954,1.5802,-1,5
67,0.0911601,1.5886,-1,5
68,0.0927999,1.598,-1,5
69,0.09446,1.6078,-1,5
70,0.0961299,1.6171,-1,5
71,0.09779,1.6265,-1,5
72,0.0994601,1.6359,-1,5
73,0.10115,1.6454,-1,5
74,0.10286,1.6555,-1,5
75,0.10627,1.6638,-1,5
76,0.10799,1.674,-1,5
77,0.10973,1.6863,-1,5
78,0.11149,1.698,-1,5
79,0.11324,1.7066,-1,5
80,0.11498,1.7144,-1,5
81,0.11675,1.7251,-1,5
82,0.11854,1.7375,-1,5
83,0.12034,1.7481,-1,5
84,0.12212,1.7552,-1,5
85,0.12391,1.7638,-1,5
86,0.12572,1.7734,-1,5
87,0.12756,1.7832,-1,5
88,0.12939,1.7904,-1,5
89,0.13121,1.797,-1,5
90,0.13304,1.8058,-1,5
91,0.1349,1.815,-1,5
92,0.13677,1.8234,-1,5
93,0.13863,1.8297,-1,5
94,0.14049,1.8369,-1,5
95,0.14236,1.8455,-1,5
96,0.14427,1.8546,-1,5
97,0.14618,1.8616,-1,5
98,0.14807,1.8679,-1,5
99,0.14997,1.8786,-1,5
100,0.15189,1.8879,-1,5
101,0.15383,1.8961,-1,5
102,0.15577,1.9018,-1,5
103,0.1577,1.9102,-1,5
104,0.15965,1.9208,-1,5
105,0.16358,1.9307,-1,5
106,0.16556,1.9379,-1,5
107,0.16753,1.9443,-1,5
108,0.16951,1.953,-1,5
109,0.17151,1.96,-1,5
110,0.17352,1.969,-1,5
111,0.17553,1.9763,-1,5
112,0.17754,1.9835,-1,5
113,0.17955,1.9902,-1,5
114,0.18158,1.9974,-1,5
115,0.18363,2.0053,-1,5
116,0.18568,2.012,-1,5
117,0.18771,2.0179,-1,5
118,0.18975,2.0242,-1,5
119,0.19182,2.0319,-1,5
120,0.1939,2.037,-1,5
121,0.19597,2.0416,-1,5
122,0.19802,2.0491,-1,5
123,0.2001,2.056,-1,5
124,0.2022,2.0626,-1,5
125,0.2064,2.0664,-1,5
126,0.20849,2.0711,-1,5
127,0.21059,2.0788,-1,5
128,0.21272,2.0874,-1,5
129,0.21485,2.0926,-1,5
130,0.21696,2.0975,-1,5
131,0.21907,2.1029,-1,5
132,0.22122,2.1092,-1,5
133,0.22337,2.1166,-1,5
134,0.22551,2.1209,-1,5
135,0.22765,2.1252,-1,5
136,0.2298,2.1311,-1,5
137,0.23197,2.1372,-1,5
138,0.23414,2.1414,-1,5
139,0.2363,2.1455,-1,5
140,0.23846,2.1502,-1,5
141,0.24064,2.1563,-1,5
142,0.24282,2.1604,-1,5
143,0.24501,2.1639,-1,5
144,0.24719,2.1676,-1,5
145,0.24937,2.1725,-1,5
146,0.25156,2.1769,-1,5
147,0.25377,2.1803,-1,5
148,0.25816,2.1828,-1,5
149,0.26036,2.1863,-1,5
150,0.26257,2.191,-1,5
151,0.26479,2.1948,-1,5
152,0.267,2.1977,-1,5
153,0.26921,2.2002,-1,5
154,0.27143,2.2035,-1,5
155,0.27364,2.207,-1,5
156,0.27586,2.2098,-1,5
157,0.27809,2.2123,-1,5
158,0.28032,2.2152,-1,5
159,0.28254,2.2176,-1,5
160,0.28477,2.2196,-1,5
161,0.28701,2.2221,-1,5
162,0.28924,2.2245,-1,5
163,0.29148,2.2267,-1,5
164,0.29371,2.2288,-1,5
165,0.29595,2.2309,-1,5
166,0.2982,2.2334,-1,5
167,0.30045,2.2354,-1,5
168,0.30269,2.2369,-1,5
169,0.30718,2.2398,-1,5
170,0.30944,2.2428,-1,5
171,0.31169,2.2444,-1,5
172,0.31394,2.2455,-1,5
173,0.3162,2.2474,-1,5
174,0.31846,2.25,-1,5
175,0.32072,2.252,-1,5
176,0.32297,2.253,-1,5
177,0.32523,2.2542,-1,5
178,0.32749,2.256,-1,5
179,0.32975,2.2567,-1,5
180,0.33201,2.2568,-1,5
181,0.33427,2.2576,-1,5
182,0.33653,2.2588,-1,5
183,0.33879,2.2591,-1,5
184,0.34104,2.2586,-1,5
185,0.3433,2.2587,-1,5
186,0.34556,2.2589,-1,5
187,0.34782,2.2584,-1,5
188,0.35007,2.2576,-1,5
189,0.35232,2.2566,-1,5
190,0.35457,2.2561,-1,5
191,0.35907,2.2543,-1,5
192,0.35907,2.2526,-1,5
193,0.36131,2.2511,-1,5
194,0.36356,2.2506,-1,5
195,0.3658,2.2491,-1,5
196,0.36804,2.2469,-1,5
197,0.37028,2.2449,-1,5
198,0.37252,2.2441,-1,5
199,0.37699,2.2424,-1,5
200,0.37922,2.2401,-1,5
201,0.38145,2.2391,-1,5
202,0.38368,2.2377,-1,5
203,0.38591,2.236,-1,5
204,0.38813,2.2334,-1,5
205,0.39035,2.2313,-1,5
206,0.39258,2.2299,-1,5
207,0.3948,2.2283,-1,5
208,0.39701,2.2257,-1,5
209,0.39922,2.2236,-1,5
210,0.40144,2.2218,-1,5
211,0.40365,2.2195,-1,5
212,0.40585,2.2172,-1,5
213,0.40805,2.2144,-1,5
214,0.41025,2.2122,-1,5
215,0.41245,2.2099,-1,5
216,0.41464,2.2068,-1,5
217,0.41683,2.2032,-1,5
218,0.41902,2.2005,-1,5
219,0.4212,2.198,-1,5
220,0.42338,2.1943,-1,5
221,0.42555,2.1903,-1,5
222,0.42772,2.1871,-1,5
223,0.42989,2.1843,-1,5
224,0.43205,2.1802,-1,5
225,0.43421,2.1761,-1,5
226,0.43637,2.1725,-1,5
227,0.43852,2.1694,-1,5
228,0.44067,2.1652,-1,5
229,0.44281,2.1611,-1,5
230,0.44495,2.1571,-1,5
231,0.44922,2.1535,-1,5
232,0.45135,2.149,-1,5
233,0.45347,2.1438,-1,5
234,0.45558,2.1392,-1,5
235,0.45771,2.1357,-1,5
236,0.45982,2.1317,-1,5
237,0.46192,2.1268,-1,5
238,0.46402,2.1217,-1,5
239,0.46613,2.1177,-1,5
240,0.46823,2.1145,-1,5
241,0.47032,2.1097,-1,5
242,0.4724,2.1048,-1,5
243,0.47448,2.1016,-1,5
244,0.47657,2.0989,-1,5
245,0.47864,2.0939,-1,5
246,0.48071,2.0889,-1,5
247,0.48277,2.085,-1,5
248,0.48484,2.0821,-1,5
249,0.4869,2.0777,-1,5
250,0.48896,2.0727,-1,5
251,0.491,2.0682,-1,5
252,0.49304,2.0646,-1,5
253,0.49713,2.06,-1,5
254,0.49916,2.0538,-1,5
255,0.50117,2.0482,-1,5
256,0.5032,2.0445,-1,5
257,0.50523,2.0409,-1,5
258,0.50724,2.0351,-1,5
259,0.50924,2.0288,-1,5
260,0.51124,2.0236,-1,5
261,0.51325,2.0207,-1,5
262,0.51525,2.0161,-1,5
263,0.51723,2.0103,-1,5
264,0.51921,2.0058,-1,5
265,0.5212,2.0025,-1,5
266,0.52319,1.9986,-1,5
267,0.52516,1.9926,-1,5
268,0.52712,1.9878,-1,5
269,0.52907,1.9836,-1,5
270,0.53104,1.98,-1,5
271,0.533,1.9749,-1,5
272,0.53495,1.9698,-1,5
273,0.53688,1.9652,-1,5
274,0.53882,1.9608,-1,5
275,0.54076,1.956,-1,5
276,0.5427,1.9508,-1,5
277,0.54653,1.9453,-1,5
278,0.54845,1.9405,-1,5
279,0.54845,1.9368,-1,5
280,0.55228,1.9313,-1,5
281,0.55228,1.9247,-1,5
282,0.55606,1.9186,-1,5
283,0.55795,1.9137,-1,5
284,0.55984,1.9095,-1,5
285,0.56173,1.9044,-1,5
286,0.56359,1.8972,-1,5
287,0.56545,1.8916,-1,5
288,0.56731,1.8864,-1,5
289,0.56918,1.8812,-1,5
290,0.57103,1.8756,-1,5
291,0.57287,1.8698,-1,5
292,0.5747,1.8642,-1,5
293,0.57654,1.8589,-1,5
294,0.57837,1.8532,-1,5
295,0.5802,1.8473,-1,5
296,0.58201,1.8416,-1,5
297,0.58561,1.8361,-1,5
298,0.58561,1.8304,-1,5
299,0.58742,1.8235,-1,5
300,0.58921,1.8178,-1,5
301,0.591,1.8121,-1,5
302,0.59277,1.806,-1,5
303,0.59631,1.8001,-1,5
304,0.59808,1.7935,-1,5
305,0.59983,1.786,-1,5
306,0.60157,1.7789,-1,5
307,0.60331,1.7723,-1,5
308,0.60505,1.7664,-1,5
309,0.6068,1.7613,-1,5
310,0.60852,1.7539,-1,5
311,0.61023,1.7462,-1,5
312,0.61193,1.74,-1,5
313,0.61366,1.7347,-1,5
314,0.61537,1.7293,-1,5
315,0.61707,1.7238,-1,5
316,0.61874,1.7176,-1,5
317,0.62043,1.7122,-1,5
318,0.62212,1.7073,-1,5
319,0.62382,1.7017,-1,5
320,0.62548,1.6961,-1,5
321,0.62714,1.691,-1,5
322,0.6288,1.6863,-1,5
323,0.63047,1.6817,-1,5
324,0.63214,1.6765,-1,5
325,0.63378,1.6707,-1,5
326,0.63706,1.6679,-1,5
327,0.63871,1.6648,-1,5
328,0.64035,1.6589,-1,5
329,0.64197,1.6515,-1,5
330,0.64358,1.6466,-1,5
331,0.64522,1.6452,-1,5
332,0.64686,1.6424,-1,5
333,0.64846,1.6357,-1,5
334,0.65006,1.6288,-1,5
335,0.65167,1.6259,-1,5
336,0.6533,1.6239,-1,5
337,0.65492,1.6205,-1,5
338,0.6565,1.6156,-1,5
339,0.65809,1.6123,-1,5
340,0.65969,1.6108,-1,5
341,0.66131,1.6086,-1,5
342,0.66291,1.6055,-1,5
343,0.66449,1.6024,-1,5
344,0.66606,1.6001,-1,5
345,0.66766,1.5989,-1,5
346,0.66927,1.5949,-1,5
347,0.67242,1.59,-1,5
348,0.674,1.5887,-1,5
349,0.674,1.5895,-1,5
350,0.67559,1.5883,-1,5
351,0.67719,1.5863,-1,5
352,0.67877,1.5843,-1,5
353,0.68033,1.5828,-1,5
354,0.68191,1.5826,-1,5
355,0.68509,1.582,-1,5
356,0.68667,1.5809,-1,5
357,0.68823,1.5802,-1,5
358,0.6898,1.5799,-1,5
359,0.6914,1.5802,-1,5
360,0.69299,1.5806,-1,5
361,0.69456,1.578,-1,5
362,0.69613,1.576,-1,5
363,0.6977,1.5774,-1,5
364,0.69929,1.5795,-1,5
365,0.70089,1.58,-1,5
366,0.70247,1.58,-1,5
367,0.70403,1.5799,-1,5
368,0.7056,1.5803,-1,5
369,0.7072,1.5808,-1,5
370,0.7088,1.5811,-1,5
371,0.71038,1.582,-1,5
372,0.71195,1.5828,-1,5
373,0.71353,1.5831,-1,5
374,0.71514,1.5844,-1,5
375,0.71674,1.5851,-1,5
376,0.71832,1.5855,-1,5
377,0.7199,1.587,-1,5
378,0.7215,1.589,-1,5
379,0.72311,1.5902,-1,5
380,0.72471,1.5892,-1,5
381,0.7263,1.5894,-1,5
382,0.72788,1.5907,-1,5
383,0.7295,1.5954,-1,5
384,0.73112,1.5975,-1,5
385,0.73274,1.5968,-1,5
386,0.73593,1.599,-1,5
387,0.73756,1.6041,-1,5
388,0.73921,1.6091,-1,5
389,0.74084,1.6113,-1,5
390,0.74246,1.6138,-1,5
391,0.74246,1.6182,-1,5
392,0.74408,1.6226,-1,5
393,0.74574,1.6253,-1,5
394,0.74741,1.6297,-1,5
395,0.74907,1.6361,-1,5
396,0.75071,1.6402,-1,5
397,0.75237,1.643,-1,5
398,0.75406,1.6473,-1,5
399,0.75576,1.6532,-1,5
400,0.75913,1.6601,-1,5
401,0.76083,1.6673,-1,5
402,0.76256,1.678,-1,5
403,0.76431,1.6871,-1,5
404,0.76604,1.6933,-1,5
405,0.76778,1.7005,-1,5
406,0.76953,1.7114,-1,5
407,0.77131,1.7241,-1,5
408,0.7731,1.7344,-1,5
409,0.77488,1.7443,-1,5
410,0.77668,1.7575,-1,5
411,0.78033,1.7714,-1,5
412,0.78217,1.7824,-1,5
413,0.78401,1.7917,-1,5
414,0.78587,1.804,-1,5
415,0.78775,1.8192,-1,5
416,0.78964,1.8334,-1,5
417,0.79154,1.8446,-1,5
418,0.79344,1.8557,-1,5
419,0.79537,1.8695,-1,5
420,0.79732,1.8829,-1,5
421,0.79927,1.8942,-1,5
422,0.80123,1.9058,-1,5
423,0.8032,1.9192,-1,5
424,0.8052,1.9332,-1,5
425,0.80721,1.9456,-1,5
426,0.80922,1.9573,-1,5
427,0.81124,1.9698,-1,5
428,0.81533,1.9853,-1,5
429,0.8174,1.9989,-1,5
430,0.81947,2.0114,-1,5
431,0.82155,2.0244,-1,5
432,0.82365,2.0382,-1,5
433,0.82576,2.0525,-1,5
434,0.82789,2.0654,-1,5
435,0.83002,2.0774,-1,5
436,0.83215,2.0897,-1,5
437,0.83431,2.1033,-1,5
438,0.83647,2.1144,-1,5
439,0.83865,2.1251,-1,5
440,0.84082,2.1352,-1,5
441,0.84301,2.1462,-1,5
442,0.84522,2.1571,-1,5
443,0.84743,2.167,-1,5
444,0.84965,2.1765,-1,5
445,0.85188,2.1865,-1,5
446,0.85412,2.1969,-1,5
447,0.85637,2.2061,-1,5
448,0.85863,2.2151,-1,5
449,0.86089,2.2243,-1,5
450,0.86316,2.2341,-1,5
451,0.86545,2.2443,-1,5
452,0.86774,2.2536,-1,5
453,0.87235,2.2632,-1,5
454,0.87235,2.2722,-1,5
455,0.87466,2.2811,-1,5
456,0.87698,2.2892,-1,5
457,0.87931,2.2977,-1,5
458,0.88166,2.3063,-1,5
459,0.88401,2.3151,-1,5
460,0.88637,2.3241,-1,5
461,0.88873,2.3323,-1,5
462,0.89349,2.3409,-1,5
463,0.89349,2.3488,-1,5
464,0.89588,2.3567,-1,5
465,0.89827,2.3642,-1,5
466,0.90068,2.3731,-1,5
467,0.90309,2.3814,-1,5
468,0.90551,2.389,-1,5
469,0.90794,2.3964,-1,5
470,0.91038,2.4038,-1,5
471,0.91282,2.4107,-1,5
472,0.91527,2.418,-1,5
473,0.9202,2.426,-1,5
474,0.9202,2.4346,-1,5
475,0.92516,2.4432,-1,5
476,0.92516,2.4514,-1,5
477,0.92765,2.4602,-1,5
478,0.93015,2.4684,-1,5
479,0.93265,2.4763,-1,5
480,0.93768,2.4847,-1,5
481,0.94021,2.4934,-1,5
482,0.94275,2.5011,-1,5
483,0.94529,2.5082,-1,5
484,0.94784,2.5158,-1,5
485,0.95039,2.5233,-1,5
486,0.95296,2.5308,-1,5
487,0.95553,2.5375,-1,5
488,0.9581,2.5448,-1,5
489,0.96069,2.5528,-1,5
490,0.96328,2.5599,-1,5
491,0.96588,2.5665,-1,5
492,0.96848,2.5738,-1,5
493,0.97109,2.5809,-1,5
494,0.97371,2.5872,-1,5
495,0.97634,2.5945,-1,5
496,0.97897,2.6013,-1,5
497,0.9816,2.6078,-1,5
498,0.98425,2.6145,-1,5
499,0.9869,2.621,-1,5
500,0.98955,2.6275,-1,5
501,0.99222,2.634,-1,5
502,0.99488,2.6399,-1,5
503,0.99756,2.6463,-1,5
504,1.00024,2.6536,-1,5
505,1.00562,2.6601,-1,5
506,1.00562,2.6667,-1,5
507,1.01101,2.6728,-1,5
508,1.01372,2.6792,-1,5
509,1.01643,2.6854,-1,5
510,1.01915,2.6912,-1,5
511,1.02187,2.6971,-1,5
512,1.02459,2.7032,-1,5
513,1.02732,2.7087,-1,5
514,1.03005,2.7131,-1,5
515,1.0328,2.718,-1,5
516,1.03554,2.7223,-1,5
517,1.03828,2.7272,-1,5
518,1.04103,2.7316,-1,5
519,1.04379,2.7357,-1,5
520,1.04654,2.7398,-1,5
521,1.0493,2.7437,-1,5
522,1.05207,2.7472,-1,5
523,1.05483,2.751,-1,5
524,1.0576,2.7546,-1,5
525,1.06037,2.7578,-1,5
526,1.06315,2.7611,-1,5
527,1.06592,2.7642,-1,5
528,1.0687,2.7668,-1,5
529,1.07148,2.7695,-1,5
530,1.07427,2.7722,-1,5
531,1.07705,2.7747,-1,5
532,1.07984,2.7772,-1,5
533,1.08541,2.7794,-1,5
534,1.0882,2.7817,-1,5
535,1.09099,2.7833,-1,5
536,1.09378,2.7849,-1,5
537,1.09657,2.7865,-1,5
538,1.09937,2.7882,-1,5
539,1.10217,2.7899,-1,5
540,1.10496,2.7908,-1,5
541,1.10775,2.7916,-1,5
542,1.11054,2.7922,-1,5
543,1.11334,2.7924,-1,5
544,1.11613,2.7931,-1,5
545,1.11893,2.7941,-1,5
546,1.12172,2.7942,-1,5
547,1.12451,2.794,-1,5
548,1.12731,2.7945,-1,5
549,1.13011,2.7943,-1,5
550,1.1329,2.7946,-1,5
551,1.1357,2.7947,-1,5
552,1.13849,2.7947,-1,5
553,1.14129,2.7953,-1,5
554,1.14409,2.7952,-1,5
555,1.14688,2.7949,-1,5
556,1.14968,2.7955,-1,5
557,1.15247,2.7956,-1,5
558,1.15527,2.7954,-1,5
559,1.15806,2.7955,-1,5
560,1.16086,2.7953,-1,5
561,1.16365,2.7957,-1,5
562,1.16645,2.7958,-1,5
563,1.16924,2.7951,-1,5
564,1.17483,2.795,-1,5
565,1.17762,2.7943,-1,5
566,1.18041,2.7933,-1,5
567,1.18319,2.793,-1,5
568,1.18598,2.7922,-1,5
569,1.18877,2.7913,-1,5
570,1.19156,2.7906,-1,5
571,1.19434,2.7894,-1,5
572,1.19712,2.7883,-1,5
573,1.1999,2.7873,-1,5
574,1.20269,2.786,-1,5
575,1.20547,2.7851,-1,5
576,1.20824,2.7839,-1,5
577,1.21102,2.7829,-1,5
578,1.2138,2.7818,-1,5
579,1.21657,2.7804,-1,5
580,1.21934,2.7788,-1,5
581,1.22211,2.7774,-1,5
582,1.22488,2.7758,-1,5
583,1.22765,2.7743,-1,5
584,1.23041,2.7726,-1,5
585,1.23317,2.7707,-1,5
586,1.23593,2.7689,-1,5
587,1.23869,2.7668,-1,5
588,1.24144,2.7642,-1,5
589,1.24694,2.7613,-1,5
590,1.24968,2.7585,-1,5
591,1.25242,2.7556,-1,5
592,1.25242,2.7523,-1,5
593,1.25789,2.7488,-1,5
594,1.25789,2.7451,-1,5
595,1.26334,2.7413,-1,5
596,1.26606,2.737,-1,5
597,1.26877,2.7331,-1,5
598,1.27149,2.729,-1,5
599,1.27419,2.7252,-1,5
600,1.27689,2.7211,-1,5
601,1.27959,2.7165,-1,5
602,1.28228,2.7123,-1,5
603,1.28497,2.7083,-1,5
604,1.28766,2.7037,-1,5
605,1.29033,2.6992,-1,5
606,1.29301,2.695,-1,5
607,1.29567,2.6898,-1,5
608,1.29834,2.6852,-1,5
609,1.301,2.6806,-1,5
610,1.30365,2.6752,-1,5
611,1.30629,2.6705,-1,5
612,1.30894,2.6657,-1,5
613,1.31157,2.6599,-1,5
614,1.3142,2.6548,-1,5
615,1.31683,2.6494,-1,5
616,1.32206,2.6431,-1,5
617,1.32467,2.6374,-1,5
618,1.32726,2.6307,-1,5
619,1.32986,2.6239,-1,5
620,1.33244,2.618,-1,5
621,1.33503,2.6113,-1,5
622,1.3376,2.6043,-1,5
623,1.34017,2.5977,-1,5
624,1.34273,2.5908,-1,5
625,1.34529,2.5843,-1,5
626,1.34784,2.5784,-1,5
627,1.35038,2.5716,-1,5
628,1.35292,2.5659,-1,5
629,1.35546,2.5599,-1,5
630,1.35798,2.5534,-1,5
631,1.3605,2.547,-1,5
632,1.36301,2.541,-1,5
633,1.36552,2.535,-1,5
634,1.36802,2.5288,-1,5
635,1.37051,2.5223,-1,5
636,1.373,2.5159,-1,5
637,1.37548,2.5097,-1,5
638,1.37795,2.5027,-1,5
639,1.38042,2.4962,-1,5
640,1.38533,2.4893,-1,5
641,1.38778,2.482,-1,5
642,1.39022,2.4748,-1,5
643,1.39265,2.4676,-1,5
644,1.39508,2.4603,-1,5
645,1.3975,2.4527,-1,5
646,1.3975,2.4459,-1,5
647,1.40233,2.4393,-1,5
648,1.40473,2.4322,-1,5
649,1.40712,2.4246,-1,5
650,1.40952,2.4188,-1,5
651,1.41191,2.4129,-1,5
652,1.41428,2.4064,-1,5
653,1.41665,2.3998,-1,5
654,1.41902,2.3937,-1,5
655,1.42138,2.3883,-1,5
656,1.42374,2.3818,-1,5
657,1.42608,2.3753,-1,5
658,1.42843,2.3694,-1,5
659,1.43076,2.3641,-1,5
660,1.43309,2.3572,-1,5
661,1.43542,2.351,-1,5
662,1.43773,2.345,-1,5
663,1.44005,2.3395,-1,5
664,1.44235,2.3333,-1,5
665,1.44465,2.3264,-1,5
666,1.44694,2.3205,-1,5
667,1.44923,2.3148,-1,5
668,1.45151,2.3086,-1,5
669,1.45378,2.3021,-1,5
670,1.45605,2.296,-1,5
671,1.46057,2.289,-1,5
672,1.46282,2.2818,-1,5
673,1.46507,2.2753,-1,5
674,1.46731,2.2689,-1,5
675,1.46954,2.2624,-1,5
676,1.47176,2.2555,-1,5
677,1.47399,2.2488,-1,5
678,1.4762,2.2425,-1,5
679,1.47841,2.236,-1,5
680,1.48062,2.2297,-1,5
681,1.48281,2.224,-1,5
682,1.48501,2.219,-1,5
683,1.4872,2.2131,-1,5
684,1.48938,2.2073,-1,5
685,1.49155,2.2012,-1,5
686,1.49373,2.1964,-1,5
687,1.4959,2.1915,-1,5
688,1.49807,2.1859,-1,5
689,1.50021,2.1798,-1,5
690,1.50237,2.1752,-1,5
691,1.50453,2.1711,-1,5
692,1.50667,2.166,-1,5
693,1.50881,2.1604,-1,5
694,1.51094,2.1561,-1,5
695,1.51308,2.1531,-1,5
696,1.51521,2.1482,-1,5
697,1.51733,2.1427,-1,5
698,1.51945,2.1385,-1,5
699,1.52157,2.1357,-1,5
700,1.52368,2.1315,-1,5
701,1.52579,2.1269,-1,5
702,1.5279,2.1229,-1,5
703,1.5321,2.12,-1,5
704,1.5342,2.1161,-1,5
705,1.53629,2.1114,-1,5
706,1.53838,2.107,-1,5
707,1.54047,2.1042,-1,5
708,1.54257,2.102,-1,5
709,1.54465,2.0984,-1,5
710,1.54672,2.0943,-1,5
711,1.5488,2.0911,-1,5
712,1.55089,2.0897,-1,5
713,1.55297,2.0872,-1,5
714,1.55505,2.0845,-1,5
715,1.55712,2.0822,-1,5
716,1.5592,2.0818,-1,5
717,1.56128,2.0806,-1,5
718,1.56335,2.0784,-1,5
719,1.56542,2.077,-1,5
720,1.56749,2.0767,-1,5
721,1.56957,2.0767,-1,5
722,1.57165,2.0753,-1,5
723,1.57579,2.0738,-1,5
724,1.57579,2.074,-1,5
725,1.57786,2.0755,-1,5
726,1.57994,2.0758,-1,5
727,1.58202,2.0758,-1,5
728,1.58409,2.0754,-1,5
729,1.58825,2.0771,-1,5
730,1.59034,2.0791,-1,5
731,1.59242,2.0793,-1,5
732,1.5945,2.0792,-1,5
733,1.59659,2.0817,-1,5
734,1.59869,2.0845,-1,5
735,1.60079,2.0856,-1,5
736,1.60288,2.086,-1,5
737,1.60497,2.0877,-1,5
738,1.60708,2.0917,-1,5
739,1.6092,2.0942,-1,5
740,1.6113,2.0961,-1,5
741,1.61342,2.0991,-1,5
742,1.61554,2.1037,-1,5
743,1.61767,2.1079,-1,5
744,1.6198,2.1108,-1,5
745,1.62193,2.1144,-1,5
746,1.62407,2.1193,-1,5
747,1.62622,2.1249,-1,5
748,1.62838,2.1296,-1,5
749,1.63053,2.134,-1,5
750,1.63269,2.1388,-1,5
751,1.63487,2.1463,-1,5
752,1.63924,2.1526,-1,5
753,1.64142,2.1578,-1,5
754,1.64362,2.1643,-1,5
755,1.64583,2.1724,-1,5
756,1.64804,2.1802,-1,5
757,1.65026,2.1866,-1,5
758,1.65248,2.1932,-1,5
759,1.65472,2.2013,-1,5
760,1.65696,2.2098,-1,5
761,1.65921,2.2162,-1,5
762,1.66146,2.2228,-1,5
763,1.66372,2.2305,-1,5
764,1.666,2.238,-1,5
765,1.66828,2.2448,-1,5
766,1.67056,2.2512,-1,5
767,1.67285,2.2584,-1,5
768,1.67514,2.2659,-1,5
769,1.67745,2.2726,-1,5
770,1.67976,2.2794,-1,5
771,1.68208,2.2863,-1,5
772,1.6844,2.2937,-1,5
773,1.68673,2.3004,-1,5
774,1.68906,2.3063,-1,5
775,1.69141,2.3129,-1,5
776,1.69375,2.3198,-1,5
777,1.69611,2.3264,-1,5
778,1.69846,2.3321,-1,5
779,1.70083,2.3384,-1,5
780,1.7032,2.3441,-1,5
781,1.70558,2.3499,-1,5
782,1.70796,2.3554,-1,5
783,1.71273,2.3616,-1,5
784,1.71512,2.3681,-1,5
785,1.71752,2.3729,-1,5
786,1.71992,2.3786,-1,5
787,1.72233,2.384,-1,5
788,1.72474,2.3896,-1,5
789,1.72715,2.3939,-1,5
790,1.72958,2.3994,-1,5
791,1.732,2.4045,-1,5
792,1.73443,2.4091,-1,5
793,1.73686,2.4127,-1,5
794,1.73929,2.4167,-1,5
795,1.74173,2.4213,-1,5
796,1.74418,2.425,-1,5
797,1.74662,2.4284,-1,5
798,1.74907,2.4321,-1,5
799,1.75152,2.4362,-1,5
800,1.75397,2.4392,-1,5
801,1.75643,2.4421,-1,5
802,1.75889,2.4455,-1,5
803,1.76135,2.4493,-1,5
804,1.76381,2.4521,-1,5
805,1.76628,2.4549,-1,5
806,1.76875,2.4579,-1,5
807,1.77123,2.4612,-1,5
808,1.7737,2.4635,-1,5
809,1.77618,2.4662,-1,5
810,1.77867,2.4695,-1,5
811,1.78115,2.4724,-1,5
812,1.78363,2.4754,-1,5
813,1.78861,2.4782,-1,5
814,1.79111,2.481,-1,5
815,1.7936,2.4837,-1,5
816,1.7961,2.4862,-1,5
817,1.7986,2.4884,-1,5
818,1.8011,2.4915,-1,5
819,1.8036,2.494,-1,5
820,1.8061,2.4957,-1,5
821,1.80861,2.498,-1,5
822,1.81112,2.4998,-1,5
823,1.81363,2.5015,-1,5
824,1.81614,2.5037,-1,5
825,1.81866,2.5056,-1,5
826,1.82117,2.5069,-1,5
827,1.82368,2.5087,-1,5
828,1.8262,2.5104,-1,5
829,1.82872,2.512,-1,5
830,1.83123,2.513,-1,5
831,1.83376,2.5144,-1,5
832,1.83628,2.516,-1,5
833,1.8388,2.5173,-1,5
834,1.84132,2.5181,-1,5
835,1.84385,2.5191,-1,5
836,1.84637,2.5205,-1,5
837,1.8489,2.5216,-1,5
838,1.85395,2.5222,-1,5
839,1.85648,2.5231,-1,5
840,1.859,2.5243,-1,5
841,1.859,2.5249,-1,5
