cnt,pos,speed,Dir,Force,
1,1.12117,1.463,-1,2
2,1.12266,1.497,-1,2
3,1.12414,1.480,-1,2
4,1.12562,1.471,-1,2
5,1.12710,1.484,-1,2
6,1.12857,1.471,-1,2
7,1.13004,1.471,-1,2
8,1.13151,1.467,-1,2
9,1.13295,1.441,-1,2
10,1.13440,1.454,-1,2
11,1.13585,1.450,-1,2
12,1.13729,1.441,-1,2
13,1.13875,1.454,-1,2
14,1.14016,1.415,-1,2
15,1.14160,1.437,-1,2
16,1.14302,1.419,-1,2
17,1.14444,1.419,-1,2
18,1.14586,1.419,-1,2
19,1.14726,1.398,-1,2
20,1.14865,1.398,-1,2
21,1.15007,1.415,-1,2
22,1.15147,1.402,-1,2
23,1.15286,1.389,-1,2
24,1.15425,1.394,-1,2
25,1.15565,1.394,-1,2
26,1.15702,1.372,-1,2
27,1.15840,1.385,-1,2
28,1.15978,1.381,-1,2
29,1.16115,1.368,-1,2
30,1.16249,1.359,-1,2
31,1.16521,1.359,-1,2
32,1.16521,1.342,-1,2
33,1.16792,1.363,-1,2
34,1.16926,1.346,-1,2
35,1.16926,1.316,-1,2
36,1.17192,1.346,-1,2
37,1.17327,1.346,-1,2
38,1.17459,1.316,-1,2
39,1.17591,1.324,-1,2
40,1.17723,1.316,-1,2
41,1.17853,1.307,-1,2
42,1.17986,1.329,-1,2
43,1.18117,1.312,-1,2
44,1.18247,1.299,-1,2
45,1.18378,1.307,-1,2
46,1.18508,1.299,-1,2
47,1.18638,1.299,-1,2
48,1.18767,1.294,-1,2
49,1.18894,1.273,-1,2
50,1.19024,1.294,-1,2
51,1.19150,1.264,-1,2
52,1.19279,1.290,-1,2
53,1.19408,1.286,-1,2
54,1.19535,1.268,-1,2
55,1.19662,1.255,-1,2
56,1.19788,1.255,-1,2
57,1.19915,1.273,-1,2
58,1.20042,1.268,-1,2
59,1.20169,1.268,-1,2
60,1.20296,1.268,-1,2
61,1.20421,1.251,-1,2
62,1.20672,1.243,-1,2
63,1.20799,1.268,-1,2
64,1.20922,1.234,-1,2
65,1.21047,1.251,-1,2
66,1.21172,1.251,-1,2
67,1.21297,1.247,-1,2
68,1.21419,1.221,-1,2
69,1.21545,1.260,-1,2
70,1.21670,1.247,-1,2
71,1.21792,1.225,-1,2
72,1.21917,1.243,-1,2
73,1.22040,1.234,-1,2
74,1.22164,1.238,-1,2
75,1.22286,1.221,-1,2
76,1.22409,1.230,-1,2
77,1.22533,1.243,-1,2
78,1.22655,1.221,-1,2
79,1.22778,1.230,-1,2
80,1.22902,1.234,-1,2
81,1.23024,1.225,-1,2
82,1.23148,1.234,-1,2
83,1.23268,1.208,-1,2
84,1.23392,1.234,-1,2
85,1.23515,1.230,-1,2
86,1.23635,1.208,-1,2
87,1.23758,1.225,-1,2
88,1.23880,1.217,-1,2
89,1.24001,1.212,-1,2
90,1.24124,1.234,-1,2
91,1.24245,1.204,-1,2
92,1.24368,1.234,-1,2
93,1.24491,1.225,-1,2
94,1.24611,1.204,-1,2
95,1.24733,1.217,-1,2
96,1.24853,1.208,-1,2
97,1.24977,1.234,-1,2
98,1.25099,1.225,-1,2
99,1.25218,1.191,-1,2
100,1.25341,1.221,-1,2
101,1.25461,1.204,-1,2
102,1.25583,1.217,-1,2
103,1.25704,1.212,-1,2
104,1.25825,1.212,-1,2
105,1.25948,1.234,-1,2
106,1.26067,1.191,-1,2
107,1.26189,1.217,-1,2
108,1.26310,1.212,-1,2
109,1.26432,1.221,-1,2
110,1.26552,1.199,-1,2
111,1.26674,1.221,-1,2
112,1.26795,1.204,-1,2
113,1.26918,1.234,-1,2
114,1.27039,1.208,-1,2
115,1.27163,1.238,-1,2
116,1.27283,1.204,-1,2
117,1.27405,1.217,-1,2
118,1.27526,1.212,-1,2
119,1.27646,1.199,-1,2
120,1.27769,1.191,-1,2
121,1.28012,1.238,-1,2
122,1.28012,1.199,-1,2
123,1.28254,1.221,-1,2
124,1.28377,1.225,-1,2
125,1.28497,1.204,-1,2
126,1.28619,1.217,-1,2
127,1.28738,1.195,-1,2
128,1.28861,1.230,-1,2
129,1.28983,1.212,-1,2
130,1.29105,1.225,-1,2
131,1.29228,1.230,-1,2
132,1.29349,1.208,-1,2
133,1.29471,1.217,-1,2
134,1.29591,1.199,-1,2
135,1.29713,1.221,-1,2
136,1.29834,1.212,-1,2
137,1.29954,1.204,-1,2
138,1.30078,1.234,-1,2
139,1.30199,1.217,-1,2
140,1.30321,1.217,-1,2
141,1.30444,1.230,-1,2
142,1.30565,1.208,-1,2
143,1.30687,1.225,-1,2
144,1.30811,1.234,-1,2
145,1.30931,1.204,-1,2
146,1.31052,1.212,-1,2
147,1.31174,1.217,-1,2
148,1.31418,1.225,-1,2
149,1.31541,1.234,-1,2
150,1.31662,1.212,-1,2
151,1.31786,1.238,-1,2
152,1.31908,1.217,-1,2
153,1.32031,1.234,-1,2
154,1.32154,1.230,-1,2
155,1.32278,1.234,-1,2
156,1.32401,1.238,-1,2
157,1.32523,1.212,-1,2
158,1.32646,1.234,-1,2
159,1.32770,1.238,-1,2
160,1.32893,1.234,-1,2
161,1.33017,1.243,-1,2
162,1.33141,1.238,-1,2
163,1.33265,1.234,-1,2
164,1.33388,1.238,-1,2
165,1.33514,1.255,-1,2
166,1.33639,1.247,-1,2
167,1.33763,1.238,-1,2
168,1.33889,1.268,-1,2
169,1.34014,1.243,-1,2
170,1.34140,1.264,-1,2
171,1.34266,1.255,-1,2
172,1.34393,1.273,-1,2
173,1.34518,1.255,-1,2
174,1.34646,1.277,-1,2
175,1.34772,1.281,-1,2
176,1.35027,1.264,-1,2
177,1.35155,1.281,-1,2
178,1.35155,1.255,-1,2
179,1.35280,1.286,-1,2
180,1.35409,1.286,-1,2
181,1.35664,1.281,-1,2
182,1.35794,1.294,-1,2
183,1.35921,1.277,-1,2
184,1.36050,1.281,-1,2
185,1.36178,1.281,-1,2
186,1.36307,1.290,-1,2
187,1.36436,1.294,-1,2
188,1.36564,1.281,-1,2
189,1.36695,1.307,-1,2
190,1.36825,1.303,-1,2
191,1.36955,1.294,-1,2
192,1.37085,1.307,-1,2
193,1.37216,1.307,-1,2
194,1.37345,1.290,-1,2
195,1.37477,1.316,-1,2
196,1.37607,1.303,-1,2
197,1.37735,1.281,-1,2
198,1.37866,1.312,-1,2
199,1.37997,1.307,-1,2
200,1.38127,1.299,-1,2
201,1.38258,1.316,-1,2
202,1.38390,1.316,-1,2
203,1.38520,1.303,-1,2
204,1.38786,1.316,-1,2
205,1.38916,1.299,-1,2
206,1.39048,1.320,-1,2
207,1.39180,1.329,-1,2
208,1.39310,1.299,-1,2
209,1.39443,1.329,-1,2
210,1.39575,1.320,-1,2
211,1.39707,1.320,-1,2
212,1.39841,1.333,-1,2
213,1.39972,1.316,-1,2
214,1.40105,1.324,-1,2
215,1.40237,1.329,-1,2
216,1.40368,1.307,-1,2
217,1.40501,1.329,-1,2
218,1.40632,1.312,-1,2
219,1.40766,1.337,-1,2
220,1.40898,1.316,-1,2
221,1.41030,1.329,-1,2
222,1.41165,1.342,-1,2
223,1.41295,1.307,-1,2
224,1.41429,1.342,-1,2
225,1.41562,1.324,-1,2
226,1.41696,1.342,-1,2
227,1.41828,1.320,-1,2
228,1.41961,1.324,-1,2
229,1.42093,1.329,-1,2
230,1.42228,1.342,-1,2
231,1.42359,1.316,-1,2
232,1.42493,1.333,-1,2
233,1.42628,1.350,-1,2
234,1.42759,1.316,-1,2
235,1.42893,1.342,-1,2
236,1.43026,1.324,-1,2
237,1.43293,1.346,-1,2
238,1.43427,1.342,-1,2
239,1.43559,1.320,-1,2
240,1.43694,1.350,-1,2
241,1.43828,1.333,-1,2
242,1.43963,1.350,-1,2
243,1.44097,1.342,-1,2
244,1.44233,1.359,-1,2
245,1.44365,1.324,-1,2
246,1.44499,1.337,-1,2
247,1.44635,1.355,-1,2
248,1.44766,1.312,-1,2
249,1.44903,1.368,-1,2
250,1.45038,1.359,-1,2
251,1.45171,1.329,-1,2
252,1.45308,1.363,-1,2
253,1.45442,1.342,-1,2
254,1.45579,1.372,-1,2
255,1.45713,1.337,-1,2
256,1.45847,1.346,-1,2
257,1.45983,1.359,-1,2
258,1.46117,1.333,-1,2
259,1.46252,1.359,-1,2
260,1.46524,1.333,-1,2
261,1.46524,1.368,-1,2
262,1.46661,1.359,-1,2
263,1.46932,1.350,-1,2
264,1.47067,1.359,-1,2
265,1.47202,1.342,-1,2
266,1.47339,1.372,-1,2
267,1.47475,1.363,-1,2
268,1.47609,1.342,-1,2
269,1.47746,1.363,-1,2
270,1.47881,1.350,-1,2
271,1.48017,1.363,-1,2
272,1.48151,1.342,-1,2
273,1.48289,1.381,-1,2
274,1.48424,1.350,-1,2
275,1.48563,1.385,-1,2
276,1.48697,1.346,-1,2
277,1.48835,1.376,-1,2
278,1.48970,1.346,-1,2
279,1.49106,1.363,-1,2
280,1.49239,1.333,-1,2
281,1.49376,1.368,-1,2
282,1.49512,1.359,-1,2
283,1.49647,1.355,-1,2
284,1.49783,1.359,-1,2
285,1.49917,1.337,-1,2
286,1.50053,1.359,-1,2
287,1.50189,1.359,-1,2
288,1.50324,1.350,-1,2
289,1.50460,1.359,-1,2
290,1.50594,1.346,-1,2
291,1.50864,1.355,-1,2
292,1.51000,1.355,-1,2
293,1.51135,1.346,-1,2
294,1.51270,1.359,-1,2
295,1.51406,1.355,-1,2
296,1.51540,1.337,-1,2
297,1.51674,1.346,-1,2
298,1.51811,1.363,-1,2
299,1.51942,1.316,-1,2
300,1.52078,1.355,-1,2
301,1.52212,1.346,-1,2
302,1.52346,1.342,-1,2
303,1.52481,1.350,-1,2
304,1.52617,1.359,-1,2
305,1.52751,1.337,-1,2
306,1.52886,1.346,-1,2
307,1.53022,1.359,-1,2
308,1.53158,1.359,-1,2
309,1.53291,1.337,-1,2
310,1.53426,1.346,-1,2
311,1.53559,1.333,-1,2
312,1.53694,1.350,-1,2
313,1.53830,1.355,-1,2
314,1.53963,1.333,-1,2
315,1.54099,1.359,-1,2
316,1.54235,1.363,-1,2
317,1.54369,1.337,-1,2
318,1.54638,1.337,-1,2
319,1.54774,1.355,-1,2
320,1.54910,1.368,-1,2
321,1.55044,1.333,-1,2
322,1.55044,1.372,-1,2
323,1.55181,1.372,-1,2
324,1.55316,1.355,-1,2
325,1.55455,1.385,-1,2
326,1.55590,1.355,-1,2
327,1.55728,1.337,-1,2
328,1.56000,1.381,-1,2
329,1.56134,1.346,-1,2
330,1.56272,1.372,-1,2
331,1.56409,1.376,-1,2
332,1.56546,1.368,-1,2
333,1.56685,1.394,-1,2
334,1.56821,1.359,-1,2
335,1.56959,1.381,-1,2
336,1.57099,1.394,-1,2
337,1.57235,1.359,-1,2
338,1.57373,1.381,-1,2
339,1.57513,1.406,-1,2
340,1.57650,1.372,-1,2
341,1.57790,1.394,-1,2
342,1.57929,1.389,-1,2
343,1.58065,1.363,-1,2
344,1.58205,1.398,-1,2
345,1.58345,1.402,-1,2
346,1.58485,1.402,-1,2
347,1.58624,1.385,-1,2
348,1.58764,1.398,-1,2
349,1.58905,1.415,-1,2
350,1.59045,1.402,-1,2
351,1.59185,1.398,-1,2
352,1.59324,1.394,-1,2
353,1.59466,1.411,-1,2
354,1.59605,1.394,-1,2
355,1.59746,1.415,-1,2
356,1.59888,1.415,-1,2
357,1.60029,1.415,-1,2
358,1.60170,1.411,-1,2
359,1.60312,1.415,-1,2
360,1.60454,1.419,-1,2
361,1.60597,1.432,-1,2
362,1.60739,1.415,-1,2
363,1.60881,1.424,-1,2
364,1.61023,1.415,-1,2
365,1.61165,1.415,-1,2
366,1.61307,1.428,-1,2
367,1.61450,1.428,-1,2
368,1.61592,1.424,-1,2
369,1.61736,1.437,-1,2
370,1.62022,1.437,-1,2
371,1.62166,1.441,-1,2
372,1.62310,1.437,-1,2
373,1.62454,1.441,-1,2
374,1.62597,1.432,-1,2
375,1.62744,1.463,-1,2
376,1.62889,1.454,-1,2
377,1.63033,1.445,-1,2
378,1.63180,1.463,-1,2
379,1.63324,1.441,-1,2
380,1.63470,1.463,-1,2
381,1.63616,1.463,-1,2
382,1.63761,1.450,-1,2
383,1.63908,1.463,-1,2
384,1.64055,1.475,-1,2
385,1.64201,1.458,-1,2
386,1.64348,1.475,-1,2
387,1.64496,1.480,-1,2
388,1.64642,1.454,-1,2
389,1.64789,1.475,-1,2
390,1.64939,1.497,-1,2
391,1.65236,1.480,-1,2
392,1.65236,1.497,-1,2
393,1.65386,1.501,-1,2
394,1.65536,1.501,-1,2
395,1.65688,1.514,-1,2
396,1.65836,1.484,-1,2
397,1.66138,1.523,-1,2
398,1.66288,1.506,-1,2
399,1.66439,1.510,-1,2
400,1.66591,1.514,-1,2
401,1.66743,1.527,-1,2
402,1.66897,1.540,-1,2
403,1.67051,1.540,-1,2
404,1.67203,1.514,-1,2
405,1.67357,1.540,-1,2
406,1.67510,1.532,-1,2
407,1.67667,1.566,-1,2
408,1.67820,1.536,-1,2
409,1.67976,1.557,-1,2
410,1.68133,1.566,-1,2
411,1.68288,1.553,-1,2
412,1.68443,1.553,-1,2
413,1.68600,1.566,-1,2
414,1.68758,1.583,-1,2
415,1.68915,1.566,-1,2
416,1.69072,1.575,-1,2
417,1.69231,1.588,-1,2
418,1.69389,1.579,-1,2
419,1.69550,1.609,-1,2
420,1.69710,1.601,-1,2
421,1.69868,1.583,-1,2
422,1.70027,1.592,-1,2
423,1.70188,1.605,-1,2
424,1.70348,1.601,-1,2
425,1.70509,1.614,-1,2
426,1.70670,1.609,-1,2
427,1.70831,1.601,-1,2
428,1.71154,1.631,-1,2
429,1.71315,1.605,-1,2
430,1.71477,1.618,-1,2
431,1.71639,1.622,-1,2
432,1.71802,1.635,-1,2
433,1.71966,1.635,-1,2
434,1.72130,1.639,-1,2
435,1.72294,1.644,-1,2
436,1.72457,1.626,-1,2
437,1.72622,1.648,-1,2
438,1.72786,1.644,-1,2
439,1.72948,1.622,-1,2
440,1.73114,1.661,-1,2
441,1.73282,1.674,-1,2
442,1.73445,1.631,-1,2
443,1.73610,1.657,-1,2
444,1.73777,1.670,-1,2
445,1.73945,1.678,-1,2
446,1.74112,1.665,-1,2
447,1.74277,1.657,-1,2
448,1.74447,1.691,-1,2
449,1.74611,1.644,-1,2
450,1.74782,1.708,-1,2
451,1.74950,1.678,-1,2
452,1.75118,1.687,-1,2
453,1.75289,1.708,-1,2
454,1.75455,1.661,-1,2
455,1.75626,1.696,-1,2
456,1.75795,1.730,-1,2
457,1.76136,1.678,-1,2
458,1.76308,1.717,-1,2
459,1.76479,1.717,-1,2
460,1.76651,1.713,-1,2
461,1.76825,1.747,-1,2
462,1.76998,1.726,-1,2
463,1.77171,1.734,-1,2
464,1.77346,1.747,-1,2
465,1.77517,1.713,-1,2
466,1.77694,1.769,-1,2
467,1.77868,1.739,-1,2
468,1.78044,1.760,-1,2
469,1.78220,1.756,-1,2
470,1.78393,1.730,-1,2
471,1.78571,1.786,-1,2
472,1.78747,1.760,-1,2
473,1.78925,1.778,-1,2
474,1.79103,1.778,-1,2
475,1.79282,1.790,-1,2
476,1.79461,1.790,-1,2
477,1.79640,1.790,-1,2
478,1.79819,1.786,-1,2
479,1.80000,1.808,-1,2
480,1.80180,1.803,-1,2
481,1.80361,1.808,-1,2
482,1.80541,1.803,-1,2
483,1.80724,1.829,-1,2
484,1.81088,1.812,-1,2
485,1.81273,1.847,-1,2
486,1.81456,1.834,-1,2
487,1.81456,1.834,-1,2
488,1.81821,1.816,-1,2
489,1.82005,1.842,-1,2
490,1.82189,1.834,-1,2
491,1.82373,1.842,-1,2
492,1.82558,1.855,-1,2
493,1.82742,1.838,-1,2
494,1.82929,1.864,-1,2
495,1.83112,1.838,-1,2
496,1.83298,1.859,-1,2
497,1.83486,1.881,-1,2
498,1.83673,1.864,-1,2
499,1.83860,1.872,-1,2
500,1.84047,1.872,-1,2
501,1.84234,1.872,-1,2
502,1.84420,1.859,-1,2
503,1.84609,1.890,-1,2
504,1.84797,1.872,-1,2
505,1.84986,1.890,-1,2
506,1.85174,1.881,-1,2
507,1.85364,1.898,-1,2
508,1.85551,1.877,-1,2
509,1.85739,1.881,-1,2
510,1.85930,1.907,-1,2
511,1.86120,1.898,-1,2
512,1.86309,1.898,-1,2
513,1.86499,1.898,-1,2
514,1.86691,1.920,-1,2
515,1.86881,1.907,-1,2
516,1.87072,1.911,-1,2
517,1.87264,1.916,-1,2
518,1.87456,1.920,-1,2
519,1.87647,1.911,-1,2
520,1.88031,1.929,-1,2
521,1.88224,1.937,-1,2
522,1.88418,1.937,-1,2
523,1.88418,1.941,-1,2
524,1.88806,1.937,-1,2
525,1.88806,1.941,-1,2
526,1.89193,1.933,-1,2
527,1.89388,1.946,-1,2
528,1.89582,1.946,-1,2
529,1.89777,1.950,-1,2
530,1.89972,1.946,-1,2
531,1.90168,1.959,-1,2
532,1.90364,1.963,-1,2
533,1.90560,1.954,-1,2
534,1.90755,1.954,-1,2
535,1.90954,1.985,-1,2
536,1.91150,1.963,-1,2
537,1.91348,1.985,-1,2
538,1.91545,1.967,-1,2
539,1.91743,1.980,-1,2
540,1.91941,1.976,-1,2
541,1.92139,1.985,-1,2
542,1.92337,1.980,-1,2
543,1.92535,1.976,-1,2
544,1.92731,1.989,-1,2
545,1.92930,1.989,-1,2
546,1.93329,1.998,-1,2
547,1.93528,1.993,-1,2
548,1.93727,1.993,-1,2
549,1.93727,1.998,-1,2
550,1.94127,1.998,-1,2
551,1.94325,1.985,-1,2
552,1.94524,1.985,-1,2
553,1.94723,1.998,-1,2
554,1.94924,2.002,-1,2
555,1.95124,2.006,-1,2
556,1.95324,2.006,-1,2
557,1.95523,1.989,-1,2
558,1.95723,1.993,-1,2
559,1.95923,2.002,-1,2
560,1.96123,2.002,-1,2
561,1.96323,2.002,-1,2
562,1.96524,2.006,-1,2
563,1.96724,2.002,-1,2
564,1.96924,1.998,-1,2
565,1.97125,2.010,-1,2
566,1.97325,2.006,-1,2
567,1.97526,2.002,-1,2
568,1.97727,2.015,-1,2
569,1.97927,2.002,-1,2
570,1.98129,2.015,-1,2
571,1.98330,2.015,-1,2
572,1.98531,2.006,-1,2
573,1.98734,2.002,-1,2
574,1.98934,2.015,-1,2
575,1.99338,2.023,-1,2
576,1.99338,2.002,-1,2
577,1.99538,2.015,-1,2
578,1.99740,2.015,-1,2
579,2.00144,2.019,-1,2
580,2.00346,2.019,-1,2
581,2.00550,2.041,-1,2
582,2.00754,2.036,-1,2
583,2.00956,2.028,-1,2
584,2.01159,2.023,-1,2
585,2.01363,2.041,-1,2
586,2.01566,2.036,-1,2
587,2.01771,2.049,-1,2
588,2.01974,2.028,-1,2
589,2.02179,2.045,-1,2
590,2.02382,2.032,-1,2
591,2.02585,2.032,-1,2
592,2.02789,2.045,-1,2
593,2.02996,2.067,-1,2
594,2.03201,2.049,-1,2
595,2.03406,2.049,-1,2
596,2.03612,2.062,-1,2
597,2.03818,2.054,-1,2
598,2.04024,2.062,-1,2
599,2.04227,2.036,-1,2
600,2.04433,2.058,-1,2
601,2.04640,2.067,-1,2
602,2.04847,2.075,-1,2
603,2.05055,2.080,-1,2
604,2.05262,2.067,-1,2
605,2.05471,2.092,-1,2
606,2.05678,2.071,-1,2
607,2.05885,2.071,-1,2
608,2.06094,2.088,-1,2
609,2.06301,2.071,-1,2
610,2.06509,2.075,-1,2
611,2.06717,2.080,-1,2
612,2.06926,2.088,-1,2
613,2.07134,2.080,-1,2
614,2.07342,2.084,-1,2
615,2.07552,2.101,-1,2
616,2.07762,2.097,-1,2
617,2.08181,2.097,-1,2
618,2.08389,2.084,-1,2
619,2.08598,2.088,-1,2
620,2.08808,2.101,-1,2
621,2.09018,2.097,-1,2
622,2.09228,2.105,-1,2
623,2.09439,2.110,-1,2
624,2.09651,2.114,-1,2
625,2.09862,2.118,-1,2
626,2.10071,2.084,-1,2
627,2.10283,2.127,-1,2
628,2.10495,2.114,-1,2
629,2.10708,2.131,-1,2
630,2.10919,2.110,-1,2
631,2.11133,2.140,-1,2
632,2.11344,2.114,-1,2
633,2.11558,2.136,-1,2
634,2.11772,2.144,-1,2
635,2.11989,2.166,-1,2
636,2.12202,2.127,-1,2
637,2.12418,2.161,-1,2
638,2.12633,2.153,-1,2
639,2.12850,2.166,-1,2
640,2.13065,2.153,-1,2
641,2.13282,2.170,-1,2
642,2.13500,2.179,-1,2
643,2.13716,2.161,-1,2
644,2.13933,2.196,-1,2
645,2.14371,2.183,-1,2
646,2.14590,2.183,-1,2
647,2.14809,2.192,-1,2
648,2.15031,2.222,-1,2
649,2.15254,2.226,-1,2
650,2.15474,2.205,-1,2
651,2.15696,2.222,-1,2
652,2.15917,2.205,-1,2
653,2.16139,2.222,-1,2
654,2.16363,2.239,-1,2
655,2.16588,2.248,-1,2
656,2.16813,2.256,-1,2
657,2.17038,2.243,-1,2
658,2.17264,2.265,-1,2
659,2.17489,2.252,-1,2
660,2.17716,2.265,-1,2
661,2.17941,2.252,-1,2
662,2.18167,2.261,-1,2
663,2.18395,2.282,-1,2
664,2.18623,2.282,-1,2
665,2.18852,2.282,-1,2
666,2.19081,2.295,-1,2
667,2.19312,2.312,-1,2
668,2.19543,2.304,-1,2
669,2.19775,2.317,-1,2
670,2.20005,2.308,-1,2
671,2.20237,2.317,-1,2
672,2.20469,2.321,-1,2
673,2.20703,2.334,-1,2
674,2.20936,2.330,-1,2
675,2.21168,2.330,-1,2
676,2.21403,2.347,-1,2
677,2.21642,2.386,-1,2
678,2.21878,2.360,-1,2
679,2.22115,2.373,-1,2
680,2.22352,2.373,-1,2
681,2.22590,2.382,-1,2
682,2.22830,2.390,-1,2
683,2.23069,2.394,-1,2
684,2.23308,2.390,-1,2
685,2.23551,2.433,-1,2
686,2.23793,2.416,-1,2
687,2.24035,2.416,-1,2
688,2.24277,2.429,-1,2
689,2.24521,2.438,-1,2
690,2.24765,2.438,-1,2
691,2.25011,2.463,-1,2
692,2.25257,2.459,-1,2
693,2.25504,2.463,-1,2
694,2.25750,2.468,-1,2
695,2.26000,2.494,-1,2
696,2.26249,2.494,-1,2
697,2.26498,2.494,-1,2
698,2.26748,2.494,-1,2
699,2.27249,2.498,-1,2
700,2.27499,2.507,-1,2
701,2.27751,2.520,-1,2
702,2.28003,2.515,-1,2
703,2.28257,2.541,-1,2
704,2.28511,2.537,-1,2
705,2.28765,2.541,-1,2
706,2.29021,2.563,-1,2
707,2.29276,2.550,-1,2
708,2.29528,2.524,-1,2
709,2.29785,2.571,-1,2
710,2.30043,2.576,-1,2
711,2.30299,2.563,-1,2
712,2.30557,2.580,-1,2
713,2.30815,2.580,-1,2
714,2.31075,2.593,-1,2
715,2.31333,2.589,-1,2
716,2.31592,2.589,-1,2
717,2.31854,2.619,-1,2
718,2.32113,2.593,-1,2
719,2.32374,2.602,-1,2
720,2.32636,2.619,-1,2
721,2.32897,2.614,-1,2
722,2.33161,2.636,-1,2
723,2.33425,2.645,-1,2
724,2.33690,2.649,-1,2
725,2.33954,2.636,-1,2
726,2.34219,2.658,-1,2
727,2.34482,2.632,-1,2
728,2.34750,2.671,-1,2
729,2.35015,2.658,-1,2
730,2.35283,2.675,-1,2
731,2.35548,2.653,-1,2
732,2.35818,2.701,-1,2
733,2.36087,2.688,-1,2
734,2.36355,2.684,-1,2
735,2.36626,2.709,-1,2
736,2.36895,2.705,-1,2
737,2.37166,2.727,-1,2
738,2.37709,2.701,-1,2
739,2.37709,2.731,-1,2
740,2.37982,2.718,-1,2
741,2.38254,2.718,-1,2
742,2.38799,2.731,-1,2
743,2.39075,2.753,-1,2
744,2.39347,2.727,-1,2
745,2.39621,2.735,-1,2
746,2.39895,2.740,-1,2
747,2.40170,2.757,-1,2
748,2.40447,2.765,-1,2
749,2.40724,2.765,-1,2
750,2.40999,2.753,-1,2
751,2.41278,2.791,-1,2
752,2.41555,2.765,-1,2
753,2.41830,2.757,-1,2
754,2.42110,2.800,-1,2
755,2.42389,2.787,-1,2
756,2.42667,2.778,-1,2
757,2.42947,2.800,-1,2
758,2.43226,2.791,-1,2
759,2.43507,2.809,-1,2
760,2.43786,2.791,-1,2
761,2.44068,2.817,-1,2
762,2.44348,2.804,-1,2
763,2.44630,2.817,-1,2
764,2.44914,2.839,-1,2
765,2.45196,2.822,-1,2
766,2.45481,2.852,-1,2
767,2.45762,2.813,-1,2
768,2.46047,2.843,-1,2
769,2.46332,2.856,-1,2
770,2.46617,2.843,-1,2
771,2.46900,2.839,-1,2
772,2.47186,2.852,-1,2
773,2.47761,2.878,-1,2
774,2.47761,2.860,-1,2
775,2.48047,2.865,-1,2
776,2.48333,2.865,-1,2
777,2.48621,2.878,-1,2
778,2.49196,2.852,-1,2
779,2.49485,2.886,-1,2
780,2.49775,2.904,-1,2
781,2.50064,2.891,-1,2
782,2.50355,2.912,-1,2
783,2.50645,2.895,-1,2
784,2.50934,2.895,-1,2
785,2.51223,2.886,-1,2
786,2.51515,2.916,-1,2
787,2.51807,2.921,-1,2
788,2.52098,2.916,-1,2
789,2.52387,2.891,-1,2
790,2.52681,2.938,-1,2
791,2.52973,2.921,-1,2
792,2.53264,2.912,-1,2
793,2.53557,2.929,-1,2
794,2.53850,2.925,-1,2
795,2.54142,2.921,-1,2
796,2.54437,2.947,-1,2
797,2.54731,2.947,-1,2
798,2.55320,2.951,-1,2
799,2.55612,2.925,-1,2
800,2.55908,2.955,-1,2
801,2.56202,2.938,-1,2
802,2.56497,2.951,-1,2
803,2.56792,2.955,-1,2
804,2.57087,2.951,-1,2
805,2.57385,2.973,-1,2
806,2.57679,2.942,-1,2
807,2.57975,2.964,-1,2
808,2.58272,2.964,-1,2
809,2.58568,2.964,-1,2
810,2.58866,2.942,-1,2
811,2.59160,2.942,-1,2
812,2.59457,2.968,-1,2
813,2.59756,2.990,-1,2
814,2.60053,2.964,-1,2
815,2.60350,2.947,-1,2
816,2.60645,2.964,-1,2
817,2.61236,2.951,-1,2
818,2.61236,2.990,-1,2
819,2.61535,2.990,-1,2
820,2.61834,2.986,-1,2
821,2.62130,2.964,-1,2
822,2.62428,2.977,-1,2
823,2.62724,2.964,-1,2
824,2.63020,2.960,-1,2
825,2.63319,2.986,-1,2
826,2.63614,2.955,-1,2
827,2.63910,2.964,-1,2
828,2.64206,2.960,-1,2
829,2.64505,2.981,-1,2
830,2.64800,2.951,-1,2
831,2.65389,2.934,-1,2
832,2.65687,2.981,-1,2
833,2.65982,2.947,-1,2
834,2.66279,2.977,-1,2
835,2.66570,2.908,-1,2
836,2.66865,2.947,-1,2
837,2.67159,2.942,-1,2
838,2.67453,2.942,-1,2
839,2.67747,2.934,-1,2
840,2.68040,2.929,-1,2
841,2.68332,2.921,-1,2
842,2.68919,2.916,-1,2
843,2.69211,2.925,-1,2
844,2.69504,2.925,-1,2
845,2.69798,2.938,-1,2
846,2.70088,2.899,-1,2
847,2.70379,2.916,-1,2
848,2.70672,2.929,-1,2
849,2.70961,2.891,-1,2
850,2.71252,2.904,-1,2
851,2.71543,2.916,-1,2
852,2.71834,2.904,-1,2
853,2.72122,2.886,-1,2
854,2.72412,2.899,-1,2
855,2.72699,2.865,-1,2
856,2.72990,2.908,-1,2
857,2.73278,2.882,-1,2
858,2.73567,2.895,-1,2
859,2.73855,2.873,-1,2
860,2.74427,2.856,-1,2
861,2.74427,2.847,-1,2
862,2.74998,2.865,-1,2
863,2.75283,2.847,-1,2
864,2.75567,2.843,-1,2
865,2.75567,2.856,-1,2
866,2.76137,2.839,-1,2
867,2.76420,2.830,-1,2
868,2.76702,2.826,-1,2
869,2.76985,2.822,-1,2
870,2.77266,2.813,-1,2
871,2.77547,2.813,-1,2
872,2.77827,2.800,-1,2
873,2.78107,2.800,-1,2
