cnt,pos,speed,Dir,Force,
1,1.12423,1.847,-1,2
2,1.12605,1.821,-1,2
3,1.12789,1.842,-1,2
4,1.12974,1.842,-1,2
5,1.13157,1.838,-1,2
6,1.13339,1.812,-1,2
7,1.13521,1.821,-1,2
8,1.13702,1.816,-1,2
9,1.13885,1.829,-1,2
10,1.14065,1.803,-1,2
11,1.14245,1.795,-1,2
12,1.14424,1.795,-1,2
13,1.14607,1.825,-1,2
14,1.14784,1.773,-1,2
15,1.14964,1.795,-1,2
16,1.15144,1.799,-1,2
17,1.15321,1.778,-1,2
18,1.15500,1.782,-1,2
19,1.15678,1.782,-1,2
20,1.15855,1.778,-1,2
21,1.16034,1.782,-1,2
22,1.16209,1.756,-1,2
23,1.16385,1.756,-1,2
24,1.16562,1.769,-1,2
25,1.16738,1.760,-1,2
26,1.16912,1.747,-1,2
27,1.17086,1.739,-1,2
28,1.17261,1.743,-1,2
29,1.17437,1.760,-1,2
30,1.17608,1.717,-1,2
31,1.17782,1.734,-1,2
32,1.17955,1.734,-1,2
33,1.18129,1.739,-1,2
34,1.18301,1.717,-1,2
35,1.18471,1.704,-1,2
36,1.18644,1.726,-1,2
37,1.18816,1.717,-1,2
38,1.18986,1.700,-1,2
39,1.19154,1.687,-1,2
40,1.19325,1.704,-1,2
41,1.19496,1.713,-1,2
42,1.19665,1.687,-1,2
43,1.19832,1.670,-1,2
44,1.20002,1.704,-1,2
45,1.20171,1.691,-1,2
46,1.20342,1.704,-1,2
47,1.20509,1.678,-1,2
48,1.20676,1.665,-1,2
49,1.20844,1.683,-1,2
50,1.21010,1.657,-1,2
51,1.21178,1.683,-1,2
52,1.21345,1.665,-1,2
53,1.21512,1.670,-1,2
54,1.21677,1.657,-1,2
55,1.21841,1.639,-1,2
56,1.22008,1.670,-1,2
57,1.22174,1.657,-1,2
58,1.22339,1.648,-1,2
59,1.22503,1.639,-1,2
60,1.22667,1.639,-1,2
61,1.22832,1.657,-1,2
62,1.22997,1.644,-1,2
63,1.23161,1.648,-1,2
64,1.23326,1.618,-1,2
65,1.23650,1.626,-1,2
66,1.23813,1.626,-1,2
67,1.23975,1.622,-1,2
68,1.24139,1.639,-1,2
69,1.24302,1.631,-1,2
70,1.24463,1.605,-1,2
71,1.24624,1.614,-1,2
72,1.24786,1.618,-1,2
73,1.24948,1.626,-1,2
74,1.25109,1.605,-1,2
75,1.25267,1.583,-1,2
76,1.25428,1.609,-1,2
77,1.25588,1.601,-1,2
78,1.25748,1.601,-1,2
79,1.25907,1.583,-1,2
80,1.26065,1.583,-1,2
81,1.26224,1.588,-1,2
82,1.26382,1.588,-1,2
83,1.26539,1.566,-1,2
84,1.26698,1.588,-1,2
85,1.26854,1.566,-1,2
86,1.27011,1.570,-1,2
87,1.27171,1.596,-1,2
88,1.27326,1.549,-1,2
89,1.27483,1.570,-1,2
90,1.27636,1.532,-1,2
91,1.27794,1.575,-1,2
92,1.27949,1.557,-1,2
93,1.28104,1.545,-1,2
94,1.28259,1.553,-1,2
95,1.28414,1.553,-1,2
96,1.28568,1.536,-1,2
97,1.28721,1.532,-1,2
98,1.28877,1.553,-1,2
99,1.29031,1.549,-1,2
100,1.29183,1.519,-1,2
101,1.29339,1.553,-1,2
102,1.29492,1.536,-1,2
103,1.29646,1.536,-1,2
104,1.29796,1.501,-1,2
105,1.29949,1.532,-1,2
106,1.30103,1.540,-1,2
107,1.30256,1.532,-1,2
108,1.30409,1.532,-1,2
109,1.30560,1.510,-1,2
110,1.30714,1.532,-1,2
111,1.30867,1.532,-1,2
112,1.31018,1.510,-1,2
113,1.31170,1.519,-1,2
114,1.31320,1.506,-1,2
115,1.31473,1.532,-1,2
116,1.31626,1.532,-1,2
117,1.31779,1.527,-1,2
118,1.31931,1.519,-1,2
119,1.32083,1.519,-1,2
120,1.32237,1.536,-1,2
121,1.32389,1.527,-1,2
122,1.32541,1.514,-1,2
123,1.32692,1.510,-1,2
124,1.32845,1.536,-1,2
125,1.32997,1.514,-1,2
126,1.33149,1.527,-1,2
127,1.33302,1.523,-1,2
128,1.33454,1.523,-1,2
129,1.33607,1.532,-1,2
130,1.33760,1.532,-1,2
131,1.33914,1.536,-1,2
132,1.34220,1.536,-1,2
133,1.34376,1.553,-1,2
134,1.34530,1.540,-1,2
135,1.34684,1.549,-1,2
136,1.34838,1.540,-1,2
137,1.34993,1.549,-1,2
138,1.35149,1.557,-1,2
139,1.35302,1.532,-1,2
140,1.35458,1.562,-1,2
141,1.35615,1.566,-1,2
142,1.35771,1.557,-1,2
143,1.35926,1.553,-1,2
144,1.36082,1.557,-1,2
145,1.36239,1.570,-1,2
146,1.36396,1.570,-1,2
147,1.36552,1.557,-1,2
148,1.36710,1.583,-1,2
149,1.36868,1.579,-1,2
150,1.37028,1.596,-1,2
151,1.37185,1.579,-1,2
152,1.37504,1.601,-1,2
153,1.37663,1.588,-1,2
154,1.37821,1.588,-1,2
155,1.37981,1.596,-1,2
156,1.38141,1.596,-1,2
157,1.38302,1.614,-1,2
158,1.38464,1.618,-1,2
159,1.38627,1.631,-1,2
160,1.38790,1.626,-1,2
161,1.38950,1.609,-1,2
162,1.39112,1.618,-1,2
163,1.39276,1.635,-1,2
164,1.39441,1.648,-1,2
165,1.39605,1.648,-1,2
166,1.39770,1.644,-1,2
167,1.39935,1.648,-1,2
168,1.40101,1.665,-1,2
169,1.40268,1.670,-1,2
170,1.40434,1.661,-1,2
171,1.40601,1.670,-1,2
172,1.40769,1.683,-1,2
173,1.40938,1.683,-1,2
174,1.41106,1.687,-1,2
175,1.41277,1.704,-1,2
176,1.41448,1.717,-1,2
177,1.41620,1.713,-1,2
178,1.41791,1.717,-1,2
179,1.41964,1.721,-1,2
180,1.42137,1.739,-1,2
181,1.42310,1.726,-1,2
182,1.42484,1.743,-1,2
183,1.42659,1.752,-1,2
184,1.42837,1.773,-1,2
185,1.43013,1.760,-1,2
186,1.43189,1.765,-1,2
187,1.43367,1.782,-1,2
188,1.43547,1.799,-1,2
189,1.43728,1.803,-1,2
190,1.43908,1.803,-1,2
191,1.44091,1.829,-1,2
192,1.44275,1.838,-1,2
193,1.44641,1.847,-1,2
194,1.44826,1.847,-1,2
195,1.45012,1.859,-1,2
196,1.45198,1.864,-1,2
197,1.45385,1.868,-1,2
198,1.45573,1.881,-1,2
199,1.45763,1.894,-1,2
200,1.45950,1.877,-1,2
201,1.46143,1.924,-1,2
202,1.46334,1.911,-1,2
203,1.46528,1.941,-1,2
204,1.46721,1.929,-1,2
205,1.46916,1.946,-1,2
206,1.47111,1.950,-1,2
207,1.47306,1.959,-1,2
208,1.47503,1.963,-1,2
209,1.47700,1.972,-1,2
210,1.47896,1.959,-1,2
211,1.48095,1.993,-1,2
212,1.48295,2.002,-1,2
213,1.48497,2.019,-1,2
214,1.48699,2.015,-1,2
215,1.48902,2.032,-1,2
216,1.49105,2.032,-1,2
217,1.49307,2.023,-1,2
218,1.49512,2.045,-1,2
219,1.49717,2.049,-1,2
220,1.49922,2.049,-1,2
221,1.50129,2.071,-1,2
222,1.50337,2.080,-1,2
223,1.50545,2.080,-1,2
224,1.50752,2.071,-1,2
225,1.50963,2.110,-1,2
226,1.51173,2.105,-1,2
227,1.51385,2.118,-1,2
228,1.51811,2.131,-1,2
229,1.52024,2.123,-1,2
230,1.52236,2.127,-1,2
231,1.52236,2.153,-1,2
232,1.52667,2.157,-1,2
233,1.52884,2.170,-1,2
234,1.53102,2.174,-1,2
235,1.53321,2.187,-1,2
236,1.53536,2.157,-1,2
237,1.53756,2.200,-1,2
238,1.53976,2.196,-1,2
239,1.54198,2.222,-1,2
240,1.54418,2.196,-1,2
241,1.54640,2.222,-1,2
242,1.54863,2.226,-1,2
243,1.55085,2.222,-1,2
244,1.55311,2.261,-1,2
245,1.55538,2.274,-1,2
246,1.55765,2.265,-1,2
247,1.55992,2.269,-1,2
248,1.56219,2.269,-1,2
249,1.56448,2.291,-1,2
250,1.56677,2.291,-1,2
251,1.56905,2.287,-1,2
252,1.57135,2.295,-1,2
253,1.57366,2.308,-1,2
254,1.57599,2.330,-1,2
255,1.57830,2.312,-1,2
256,1.58062,2.321,-1,2
257,1.58533,2.356,-1,2
258,1.58766,2.334,-1,2
259,1.59001,2.351,-1,2
260,1.59238,2.364,-1,2
261,1.59475,2.369,-1,2
262,1.59711,2.369,-1,2
263,1.59950,2.390,-1,2
264,1.60189,2.382,-1,2
265,1.60429,2.403,-1,2
266,1.60670,2.390,-1,2
267,1.60909,2.390,-1,2
268,1.61392,2.412,-1,2
269,1.61392,2.403,-1,2
270,1.61632,2.403,-1,2
271,1.61875,2.429,-1,2
272,1.62119,2.438,-1,2
273,1.62363,2.433,-1,2
274,1.62606,2.459,-1,2
275,1.63098,2.463,-1,2
276,1.63098,2.455,-1,2
277,1.63344,2.455,-1,2
278,1.63589,2.451,-1,2
279,1.63836,2.472,-1,2
280,1.64083,2.472,-1,2
281,1.64331,2.476,-1,2
282,1.64579,2.476,-1,2
283,1.65078,2.515,-1,2
284,1.65078,2.507,-1,2
285,1.65329,2.507,-1,2
286,1.65579,2.507,-1,2
287,1.65831,2.520,-1,2
288,1.66083,2.520,-1,2
289,1.66334,2.533,-1,2
290,1.66587,2.550,-1,2
291,1.67096,2.541,-1,2
292,1.67096,2.541,-1,2
293,1.67606,2.554,-1,2
294,1.67606,2.580,-1,2
295,1.68120,2.558,-1,2
296,1.68377,2.571,-1,2
297,1.68633,2.567,-1,2
298,1.68892,2.589,-1,2
299,1.69150,2.580,-1,2
300,1.69412,2.614,-1,2
301,1.69672,2.602,-1,2
302,1.69932,2.602,-1,2
303,1.70194,2.623,-1,2
304,1.70457,2.623,-1,2
305,1.70717,2.602,-1,2
306,1.70978,2.614,-1,2
307,1.71240,2.614,-1,2
308,1.71503,2.636,-1,2
309,1.71766,2.627,-1,2
310,1.72030,2.640,-1,2
311,1.72295,2.649,-1,2
312,1.72560,2.649,-1,2
313,1.72823,2.627,-1,2
314,1.73089,2.662,-1,2
315,1.73353,2.640,-1,2
316,1.73617,2.645,-1,2
317,1.73886,2.684,-1,2
318,1.74149,2.636,-1,2
319,1.74415,2.662,-1,2
320,1.74684,2.684,-1,2
321,1.74950,2.666,-1,2
322,1.75217,2.666,-1,2
323,1.75484,2.671,-1,2
324,1.75752,2.684,-1,2
325,1.76021,2.688,-1,2
326,1.76288,2.666,-1,2
327,1.76556,2.684,-1,2
328,1.76827,2.709,-1,2
329,1.77097,2.701,-1,2
330,1.77367,2.696,-1,2
331,1.77636,2.688,-1,2
332,1.77906,2.701,-1,2
333,1.78176,2.701,-1,2
334,1.78447,2.709,-1,2
335,1.78718,2.714,-1,2
336,1.78987,2.688,-1,2
337,1.79260,2.731,-1,2
338,1.79532,2.722,-1,2
339,1.79804,2.718,-1,2
340,1.80078,2.735,-1,2
341,1.80349,2.709,-1,2
342,1.80621,2.727,-1,2
343,1.80895,2.735,-1,2
344,1.81167,2.722,-1,2
345,1.81443,2.757,-1,2
346,1.81714,2.718,-1,2
347,1.81987,2.727,-1,2
348,1.82261,2.740,-1,2
349,1.82535,2.735,-1,2
350,1.82807,2.722,-1,2
351,1.83079,2.722,-1,2
352,1.83352,2.731,-1,2
353,1.83627,2.744,-1,2
354,1.83901,2.744,-1,2
355,1.84174,2.735,-1,2
356,1.84448,2.731,-1,2
357,1.84722,2.748,-1,2
358,1.84995,2.731,-1,2
359,1.85267,2.714,-1,2
360,1.85540,2.735,-1,2
361,1.85816,2.753,-1,2
362,1.86088,2.722,-1,2
363,1.86359,2.714,-1,2
364,1.86633,2.735,-1,2
365,1.86906,2.731,-1,2
366,1.87182,2.757,-1,2
367,1.87453,2.718,-1,2
368,1.87724,2.709,-1,2
369,1.87997,2.722,-1,2
370,1.88270,2.731,-1,2
371,1.88544,2.748,-1,2
372,1.88817,2.722,-1,2
373,1.89088,2.714,-1,2
374,1.89361,2.731,-1,2
375,1.89631,2.701,-1,2
376,1.89903,2.718,-1,2
377,1.90174,2.714,-1,2
378,1.90446,2.718,-1,2
379,1.90718,2.714,-1,2
380,1.90991,2.731,-1,2
381,1.91261,2.705,-1,2
382,1.91533,2.722,-1,2
383,1.91804,2.705,-1,2
384,1.92074,2.714,-1,2
385,1.92346,2.692,-1,2
386,1.92883,2.684,-1,2
387,1.92883,2.701,-1,2
388,1.93153,2.705,-1,2
389,1.93424,2.705,-1,2
390,1.93964,2.714,-1,2
391,1.94231,2.666,-1,2
392,1.94497,2.662,-1,2
393,1.94767,2.701,-1,2
394,1.95033,2.658,-1,2
395,1.95302,2.692,-1,2
396,1.95569,2.671,-1,2
397,1.95834,2.653,-1,2
398,1.96101,2.666,-1,2
399,1.96368,2.671,-1,2
400,1.96634,2.658,-1,2
401,1.96897,2.636,-1,2
402,1.97162,2.649,-1,2
403,1.97427,2.645,-1,2
404,1.97690,2.636,-1,2
405,1.97955,2.645,-1,2
406,1.98219,2.645,-1,2
407,1.98483,2.636,-1,2
408,1.98747,2.640,-1,2
409,1.99008,2.606,-1,2
410,1.99270,2.623,-1,2
411,1.99531,2.614,-1,2
412,1.99793,2.614,-1,2
413,2.00053,2.606,-1,2
414,2.00313,2.602,-1,2
415,2.00576,2.602,-1,2
416,2.00836,2.602,-1,2
417,2.01095,2.593,-1,2
418,2.01354,2.589,-1,2
419,2.01613,2.580,-1,2
420,2.02131,2.597,-1,2
421,2.02388,2.571,-1,2
422,2.02644,2.558,-1,2
423,2.02901,2.571,-1,2
424,2.03161,2.602,-1,2
425,2.03416,2.554,-1,2
426,2.03671,2.550,-1,2
427,2.03927,2.558,-1,2
428,2.04181,2.537,-1,2
429,2.04435,2.545,-1,2
430,2.04690,2.541,-1,2
431,2.04945,2.554,-1,2
432,2.05200,2.554,-1,2
433,2.05454,2.533,-1,2
434,2.05705,2.515,-1,2
435,2.05957,2.524,-1,2
436,2.06208,2.507,-1,2
437,2.06460,2.515,-1,2
438,2.06711,2.515,-1,2
439,2.06963,2.520,-1,2
440,2.07213,2.494,-1,2
441,2.07461,2.485,-1,2
442,2.07711,2.498,-1,2
443,2.07961,2.507,-1,2
444,2.08210,2.485,-1,2
445,2.08457,2.468,-1,2
446,2.08953,2.494,-1,2
447,2.08953,2.468,-1,2
448,2.09200,2.463,-1,2
449,2.09694,2.476,-1,2
450,2.09941,2.468,-1,2
451,2.10185,2.442,-1,2
452,2.10431,2.455,-1,2
453,2.10675,2.446,-1,2
454,2.10919,2.438,-1,2
455,2.11164,2.451,-1,2
456,2.11408,2.438,-1,2
457,2.11651,2.429,-1,2
458,2.11896,2.455,-1,2
459,2.12141,2.451,-1,2
460,2.12385,2.442,-1,2
461,2.12629,2.438,-1,2
462,2.12874,2.446,-1,2
463,2.13115,2.416,-1,2
464,2.13359,2.433,-1,2
465,2.13602,2.446,-1,2
466,2.13847,2.433,-1,2
467,2.14090,2.425,-1,2
468,2.14332,2.420,-1,2
469,2.14574,2.420,-1,2
470,2.14817,2.425,-1,2
471,2.15062,2.455,-1,2
472,2.15304,2.416,-1,2
473,2.15547,2.429,-1,2
474,2.15790,2.429,-1,2
475,2.16032,2.425,-1,2
476,2.16274,2.420,-1,2
477,2.16516,2.420,-1,2
478,2.16760,2.438,-1,2
479,2.17004,2.442,-1,2
480,2.17247,2.429,-1,2
481,2.17488,2.412,-1,2
482,2.17732,2.433,-1,2
483,2.17973,2.416,-1,2
484,2.18214,2.412,-1,2
485,2.18458,2.438,-1,2
486,2.18701,2.429,-1,2
487,2.18944,2.425,-1,2
488,2.19187,2.433,-1,2
489,2.19430,2.429,-1,2
490,2.19674,2.438,-1,2
491,2.19916,2.420,-1,2
492,2.20158,2.425,-1,2
493,2.20401,2.433,-1,2
494,2.20644,2.425,-1,2
495,2.20888,2.438,-1,2
496,2.21130,2.420,-1,2
497,2.21372,2.425,-1,2
498,2.21618,2.459,-1,2
499,2.21863,2.446,-1,2
500,2.22107,2.446,-1,2
501,2.22351,2.442,-1,2
502,2.22597,2.455,-1,2
503,2.22841,2.438,-1,2
504,2.23086,2.455,-1,2
505,2.23332,2.455,-1,2
506,2.23581,2.489,-1,2
507,2.23827,2.459,-1,2
508,2.24072,2.459,-1,2
509,2.24321,2.481,-1,2
510,2.24569,2.481,-1,2
511,2.24818,2.494,-1,2
512,2.25068,2.498,-1,2
513,2.25317,2.498,-1,2
514,2.25567,2.502,-1,2
515,2.26070,2.533,-1,2
516,2.26322,2.520,-1,2
517,2.26322,2.511,-1,2
518,2.26826,2.533,-1,2
519,2.27080,2.533,-1,2
520,2.27333,2.537,-1,2
521,2.27587,2.537,-1,2
522,2.27841,2.545,-1,2
523,2.28096,2.550,-1,2
524,2.28352,2.554,-1,2
525,2.28608,2.563,-1,2
526,2.28867,2.589,-1,2
527,2.29125,2.576,-1,2
528,2.29381,2.567,-1,2
529,2.29640,2.589,-1,2
530,2.29899,2.593,-1,2
531,2.30157,2.571,-1,2
532,2.30420,2.636,-1,2
533,2.30679,2.589,-1,2
534,2.30939,2.602,-1,2
535,2.31202,2.632,-1,2
536,2.31466,2.636,-1,2
537,2.31728,2.623,-1,2
538,2.31992,2.640,-1,2
539,2.32255,2.623,-1,2
540,2.32523,2.688,-1,2
541,2.32788,2.645,-1,2
542,2.33054,2.666,-1,2
543,2.33322,2.679,-1,2
544,2.33592,2.701,-1,2
545,2.33860,2.675,-1,2
546,2.34129,2.718,-1,2
547,2.34401,2.718,-1,2
548,2.34671,2.705,-1,2
549,2.34941,2.696,-1,2
550,2.35217,2.761,-1,2
551,2.35761,2.740,-1,2
552,2.36039,2.774,-1,2
553,2.36313,2.748,-1,2
554,2.36590,2.765,-1,2
555,2.36867,2.774,-1,2
556,2.37144,2.761,-1,2
557,2.37425,2.813,-1,2
558,2.37702,2.774,-1,2
559,2.37985,2.830,-1,2
560,2.38264,2.791,-1,2
561,2.38546,2.813,-1,2
562,2.38829,2.830,-1,2
563,2.39110,2.817,-1,2
564,2.39393,2.826,-1,2
565,2.39677,2.839,-1,2
566,2.39960,2.835,-1,2
567,2.40248,2.878,-1,2
568,2.40534,2.860,-1,2
569,2.40822,2.873,-1,2
570,2.41106,2.847,-1,2
571,2.41393,2.865,-1,2
572,2.41681,2.882,-1,2
573,2.41971,2.899,-1,2
574,2.42259,2.886,-1,2
575,2.42553,2.934,-1,2
576,2.42840,2.873,-1,2
577,2.43133,2.929,-1,2
578,2.43424,2.908,-1,2
579,2.43718,2.942,-1,2
580,2.44010,2.921,-1,2
581,2.44304,2.942,-1,2
582,2.44597,2.925,-1,2
583,2.44895,2.981,-1,2
584,2.45189,2.942,-1,2
585,2.45488,2.986,-1,2
586,2.45783,2.955,-1,2
587,2.46081,2.977,-1,2
588,2.46380,2.986,-1,2
589,2.46678,2.981,-1,2
590,2.46978,2.998,-1,2
591,2.47277,2.998,-1,2
592,2.47578,3.007,-1,2
593,2.47881,3.033,-1,2
594,2.48183,3.016,-1,2
595,2.48488,3.046,-1,2
596,2.48789,3.016,-1,2
597,2.49095,3.055,-1,2
598,2.49398,3.033,-1,2
599,2.49703,3.055,-1,2
600,2.50009,3.055,-1,2
601,2.50318,3.093,-1,2
602,2.50624,3.059,-1,2
603,2.50931,3.067,-1,2
604,2.51236,3.055,-1,2
605,2.51546,3.098,-1,2
606,2.51856,3.098,-1,2
607,2.52474,3.085,-1,2
608,2.52784,3.106,-1,2
609,2.53095,3.111,-1,2
610,2.53408,3.124,-1,2
611,2.53718,3.102,-1,2
612,2.54032,3.141,-1,2
613,2.54345,3.132,-1,2
614,2.54661,3.154,-1,2
615,2.54974,3.132,-1,2
616,2.55290,3.167,-1,2
617,2.55604,3.137,-1,2
618,2.55921,3.167,-1,2
619,2.56236,3.149,-1,2
620,2.56555,3.188,-1,2
621,2.56871,3.162,-1,2
622,2.57191,3.201,-1,2
623,2.57510,3.193,-1,2
624,2.57829,3.184,-1,2
625,2.58150,3.214,-1,2
626,2.58470,3.197,-1,2
627,2.58791,3.214,-1,2
628,2.59111,3.197,-1,2
629,2.59432,3.210,-1,2
630,2.59757,3.249,-1,2
631,2.60078,3.218,-1,2
632,2.60403,3.244,-1,2
633,2.60725,3.218,-1,2
634,2.61049,3.240,-1,2
635,2.61374,3.253,-1,2
636,2.61701,3.270,-1,2
637,2.62027,3.257,-1,2
638,2.62352,3.249,-1,2
639,2.62680,3.283,-1,2
640,2.63006,3.262,-1,2
641,2.63335,3.283,-1,2
642,2.63661,3.262,-1,2
643,2.63989,3.283,-1,2
644,2.64319,3.300,-1,2
645,2.64646,3.270,-1,2
646,2.64976,3.300,-1,2
647,2.65305,3.288,-1,2
648,2.65634,3.292,-1,2
649,2.65965,3.305,-1,2
650,2.66297,3.326,-1,2
651,2.66624,3.270,-1,2
652,2.66957,3.326,-1,2
653,2.67288,3.313,-1,2
654,2.67619,3.313,-1,2
655,2.67950,3.300,-1,2
656,2.68283,3.335,-1,2
657,2.68617,3.318,-1,2
658,2.69281,3.326,-1,2
659,2.69615,3.344,-1,2
660,2.69949,3.335,-1,2
661,2.70283,3.339,-1,2
662,2.70618,3.357,-1,2
663,2.70952,3.335,-1,2
664,2.71286,3.339,-1,2
665,2.71624,3.378,-1,2
666,2.71959,3.352,-1,2
667,2.72294,3.357,-1,2
668,2.72629,3.348,-1,2
669,2.72967,3.374,-1,2
670,2.73303,3.365,-1,2
671,2.73641,3.378,-1,2
672,2.73978,3.374,-1,2
673,2.74315,3.365,-1,2
674,2.74651,3.365,-1,2
675,2.74989,3.378,-1,2
676,2.75326,3.369,-1,2
677,2.75664,3.374,-1,2
678,2.76003,3.391,-1,2
679,2.76340,3.378,-1,2
680,2.76677,3.369,-1,2
681,2.77016,3.382,-1,2
682,2.77355,3.391,-1,2
683,2.77690,3.357,-1,2
684,2.78029,3.387,-1,2
685,2.78369,3.404,-1,2
686,2.78707,3.378,-1,2
687,2.79046,3.387,-1,2
688,2.79385,3.387,-1,2
689,2.79723,3.382,-1,2
690,2.80062,3.395,-1,2
691,2.80402,3.391,-1,2
692,2.80742,3.400,-1,2
693,2.81081,3.391,-1,2
694,2.81421,3.404,-1,2
695,2.81759,3.382,-1,2
696,2.82100,3.408,-1,2
697,2.82440,3.395,-1,2
698,2.82781,3.413,-1,2
699,2.83120,3.395,-1,2
700,2.83461,3.408,-1,2
701,2.83802,3.404,-1,2
702,2.84141,3.391,-1,2
703,2.84478,3.374,-1,2
704,2.84819,3.413,-1,2
705,2.85158,3.382,-1,2
706,2.85498,3.400,-1,2
707,2.85839,3.417,-1,2
708,2.86174,3.348,-1,2
709,2.86512,3.382,-1,2
710,2.86851,3.391,-1,2
711,2.87192,3.404,-1,2
712,2.87526,3.344,-1,2
713,2.87866,3.400,-1,2
714,2.88205,3.387,-1,2
715,2.88540,3.357,-1,2
716,2.88878,3.378,-1,2
717,2.89214,3.352,-1,2
718,2.89549,3.357,-1,2
719,2.89889,3.395,-1,2
720,2.90226,3.374,-1,2
721,2.90561,3.348,-1,2
722,2.90898,3.374,-1,2
723,2.91234,3.357,-1,2
724,2.91569,3.352,-1,2
725,2.91904,3.348,-1,2
726,2.92238,3.339,-1,2
727,2.92575,3.369,-1,2
728,2.92909,3.339,-1,2
729,2.93244,3.352,-1,2
730,2.93579,3.348,-1,2
731,2.93913,3.339,-1,2
732,2.94246,3.335,-1,2
733,2.94583,3.292,-1,2
734,2.94912,3.292,-1,2
735,2.95247,3.331,-1,2
736,2.95911,3.309,-1,2
737,2.96241,3.305,-1,2
738,2.96574,3.331,-1,2
739,2.96905,3.309,-1,2
740,2.97234,3.292,-1,2
741,2.97565,3.309,-1,2
742,2.97895,3.296,-1,2
743,2.98224,3.292,-1,2
744,2.98553,3.288,-1,2
745,2.98882,3.296,-1,2
746,2.99210,3.275,-1,2
747,2.99537,3.270,-1,2
748,2.99866,3.288,-1,2
749,3.00191,3.257,-1,2
750,3.00518,3.270,-1,2
751,3.00844,3.257,-1,2
752,3.01169,3.249,-1,2
753,3.01496,3.275,-1,2
754,3.01822,3.257,-1,2
755,3.02146,3.236,-1,2
756,3.02471,3.253,-1,2
757,3.02794,3.231,-1,2
758,3.03117,3.231,-1,2
759,3.03439,3.218,-1,2
760,3.03761,3.218,-1,2
761,3.04085,3.236,-1,2
762,3.04406,3.218,-1,2
763,3.04728,3.214,-1,2
764,3.05049,3.214,-1,2
765,3.05369,3.197,-1,2
766,3.05690,3.214,-1,2
767,3.06007,3.171,-1,2
768,3.06327,3.197,-1,2
769,3.06646,3.188,-1,2
770,3.06966,3.197,-1,2
771,3.07284,3.184,-1,2
772,3.07599,3.145,-1,2
773,3.07915,3.167,-1,2
774,3.08234,3.188,-1,2
775,3.08549,3.154,-1,2
776,3.08865,3.154,-1,2
777,3.09179,3.145,-1,2
778,3.09496,3.162,-1,2
779,3.09808,3.128,-1,2
780,3.10122,3.141,-1,2
781,3.10435,3.128,-1,2
782,3.11059,3.102,-1,2
783,3.11059,3.137,-1,2
784,3.11683,3.106,-1,2
785,3.11683,3.115,-1,2
786,3.12305,3.111,-1,2
787,3.12615,3.098,-1,2
788,3.12926,3.106,-1,2
789,3.13235,3.089,-1,2
790,3.13545,3.102,-1,2
791,3.13854,3.093,-1,2
792,3.14163,3.085,-1,2
793,3.14471,3.085,-1,2
794,3.14778,3.072,-1,2
795,3.15087,3.085,-1,2
796,3.15394,3.067,-1,2
797,3.15699,3.050,-1,2
798,3.16005,3.067,-1,2
799,3.16313,3.076,-1,2
800,3.16619,3.059,-1,2
801,3.16924,3.055,-1,2
802,3.17226,3.016,-1,2
803,3.17529,3.029,-1,2
804,3.17833,3.042,-1,2
805,3.18139,3.059,-1,2
806,3.18444,3.055,-1,2
807,3.18748,3.033,-1,2
808,3.19049,3.016,-1,2
809,3.19349,3.003,-1,2
810,3.19653,3.037,-1,2
811,3.19954,3.011,-1,2
812,3.20255,3.007,-1,2
813,3.20556,3.007,-1,2
814,3.20858,3.024,-1,2
815,3.21157,2.986,-1,2
816,3.21457,3.003,-1,2
817,3.21754,2.973,-1,2
818,3.22054,2.998,-1,2
819,3.22352,2.981,-1,2
820,3.22653,3.003,-1,2
821,3.22951,2.986,-1,2
822,3.23248,2.968,-1,2
823,3.23544,2.960,-1,2
824,3.23842,2.986,-1,2
825,3.24139,2.968,-1,2
826,3.24434,2.947,-1,2
827,3.24729,2.951,-1,2
828,3.25026,2.968,-1,2
829,3.25324,2.977,-1,2
830,3.25620,2.968,-1,2
831,3.25915,2.947,-1,2
832,3.26211,2.955,-1,2
833,3.26507,2.964,-1,2
834,3.26802,2.929,-1,2
835,3.27392,2.973,-1,2
836,3.27684,2.916,-1,2
837,3.27980,2.964,-1,2
838,3.28274,2.938,-1,2
839,3.28570,2.955,-1,2
840,3.28862,2.925,-1,2
841,3.29154,2.921,-1,2
842,3.29448,2.938,-1,2
843,3.29741,2.934,-1,2
844,3.30035,2.934,-1,2
845,3.30329,2.942,-1,2
846,3.30619,2.904,-1,2
847,3.30912,2.925,-1,2
848,3.31204,2.916,-1,2
849,3.31494,2.904,-1,2
850,3.31785,2.912,-1,2
851,3.32075,2.904,-1,2
852,3.32366,2.908,-1,2
853,3.32657,2.904,-1,2
854,3.32946,2.899,-1,2
855,3.33234,2.873,-1,2
856,3.33523,2.895,-1,2
857,3.33811,2.878,-1,2
858,3.34098,2.873,-1,2
859,3.34384,2.860,-1,2
860,3.34671,2.869,-1,2
861,3.34960,2.891,-1,2
862,3.35246,2.852,-1,2
863,3.35532,2.865,-1,2
864,3.35814,2.822,-1,2
865,3.36099,2.852,-1,2
866,3.36383,2.835,-1,2
867,3.36668,2.852,-1,2
868,3.36950,2.822,-1,2
869,3.37231,2.813,-1,2
870,3.37515,2.839,-1,2
871,3.37796,2.809,-1,2
872,3.38357,2.800,-1,2
873,3.38357,2.800,-1,2
