cnt,pos,speed,Dir,Force,
1,1.10943,1.303,-1,2
2,1.11073,1.303,-1,2
3,1.11203,1.299,-1,2
4,1.11334,1.307,-1,2
5,1.11462,1.281,-1,2
6,1.11592,1.299,-1,2
7,1.11720,1.281,-1,2
8,1.11848,1.286,-1,2
9,1.11978,1.294,-1,2
10,1.12103,1.251,-1,2
11,1.12232,1.290,-1,2
12,1.12358,1.264,-1,2
13,1.12486,1.273,-1,2
14,1.12609,1.238,-1,2
15,1.12737,1.277,-1,2
16,1.12863,1.260,-1,2
17,1.12989,1.260,-1,2
18,1.13113,1.243,-1,2
19,1.13238,1.247,-1,2
20,1.13362,1.238,-1,2
21,1.13486,1.238,-1,2
22,1.13609,1.234,-1,2
23,1.13732,1.225,-1,2
24,1.13856,1.243,-1,2
25,1.13976,1.204,-1,2
26,1.14098,1.221,-1,2
27,1.14219,1.208,-1,2
28,1.14341,1.217,-1,2
29,1.14460,1.191,-1,2
30,1.14581,1.208,-1,2
31,1.14700,1.191,-1,2
32,1.14936,1.191,-1,2
33,1.15054,1.182,-1,2
34,1.15173,1.191,-1,2
35,1.15289,1.161,-1,2
36,1.15289,1.182,-1,2
37,1.15408,1.169,-1,2
38,1.15640,1.156,-1,2
39,1.15757,1.165,-1,2
40,1.15871,1.143,-1,2
41,1.15988,1.165,-1,2
42,1.16101,1.135,-1,2
43,1.16214,1.135,-1,2
44,1.16327,1.130,-1,2
45,1.16439,1.117,-1,2
46,1.16553,1.139,-1,2
47,1.16665,1.117,-1,2
48,1.16777,1.126,-1,2
49,1.16888,1.109,-1,2
50,1.16999,1.109,-1,2
51,1.17112,1.126,-1,2
52,1.17221,1.096,-1,2
53,1.17332,1.109,-1,2
54,1.17441,1.092,-1,2
55,1.17550,1.087,-1,2
56,1.17658,1.074,-1,2
57,1.17767,1.092,-1,2
58,1.17874,1.070,-1,2
59,1.17982,1.087,-1,2
60,1.18090,1.079,-1,2
61,1.18197,1.070,-1,2
62,1.18305,1.079,-1,2
63,1.18410,1.053,-1,2
64,1.18517,1.066,-1,2
65,1.18622,1.048,-1,2
66,1.18728,1.053,-1,2
67,1.18833,1.031,-1,2
68,1.19042,1.061,-1,2
69,1.19146,1.031,-1,2
70,1.19250,1.044,-1,2
71,1.19354,1.044,-1,2
72,1.19459,1.044,-1,2
73,1.19561,1.022,-1,2
74,1.19664,1.031,-1,2
75,1.19767,1.027,-1,2
76,1.19869,1.018,-1,2
77,1.19973,1.040,-1,2
78,1.20075,1.027,-1,2
79,1.20177,1.018,-1,2
80,1.20281,1.040,-1,2
81,1.20382,1.014,-1,2
82,1.20485,1.022,-1,2
83,1.20587,1.018,-1,2
84,1.20687,1.005,-1,2
85,1.20790,1.027,-1,2
86,1.20890,1.001,-1,2
87,1.20991,1.010,-1,2
88,1.21091,1.005,-1,2
89,1.21193,1.014,-1,2
90,1.21294,1.014,-1,2
91,1.21393,0.988,-1,2
92,1.21495,1.022,-1,2
93,1.21595,0.997,-1,2
94,1.21696,1.014,-1,2
95,1.21795,0.988,-1,2
96,1.21895,0.997,-1,2
97,1.21996,1.010,-1,2
98,1.22096,1.001,-1,2
99,1.22195,0.992,-1,2
100,1.22294,0.992,-1,2
101,1.22393,0.992,-1,2
102,1.22493,0.997,-1,2
103,1.22593,0.997,-1,2
104,1.22692,0.997,-1,2
105,1.22792,1.001,-1,2
106,1.22892,0.992,-1,2
107,1.22992,1.001,-1,2
108,1.23091,0.988,-1,2
109,1.23190,0.992,-1,2
110,1.23288,0.984,-1,2
111,1.23388,0.997,-1,2
112,1.23487,0.988,-1,2
113,1.23585,0.984,-1,2
114,1.23683,0.984,-1,2
115,1.23880,0.979,-1,2
116,1.23978,0.984,-1,2
117,1.24077,0.988,-1,2
118,1.24176,0.992,-1,2
119,1.24274,0.975,-1,2
120,1.24371,0.975,-1,2
121,1.24469,0.979,-1,2
122,1.24567,0.975,-1,2
123,1.24665,0.984,-1,2
124,1.24763,0.979,-1,2
125,1.24860,0.975,-1,2
126,1.24959,0.988,-1,2
127,1.25055,0.984,-1,2
128,1.25154,0.984,-1,2
129,1.25249,0.949,-1,2
130,1.25348,0.992,-1,2
131,1.25444,0.958,-1,2
132,1.25542,0.979,-1,2
133,1.25638,0.966,-1,2
134,1.25736,0.979,-1,2
135,1.25832,0.962,-1,2
136,1.25929,0.971,-1,2
137,1.26026,0.971,-1,2
138,1.26122,0.958,-1,2
139,1.26221,0.984,-1,2
140,1.26318,0.971,-1,2
141,1.26415,0.975,-1,2
142,1.26511,0.953,-1,2
143,1.26608,0.971,-1,2
144,1.26706,0.979,-1,2
145,1.26802,0.966,-1,2
146,1.26901,0.988,-1,2
147,1.26998,0.971,-1,2
148,1.27094,0.962,-1,2
149,1.27194,1.001,-1,2
150,1.27291,0.966,-1,2
151,1.27387,0.962,-1,2
152,1.27486,0.984,-1,2
153,1.27583,0.971,-1,2
154,1.27681,0.984,-1,2
155,1.27779,0.979,-1,2
156,1.27876,0.971,-1,2
157,1.27975,0.992,-1,2
158,1.28074,0.984,-1,2
159,1.28173,0.992,-1,2
160,1.28270,0.975,-1,2
161,1.28470,0.988,-1,2
162,1.28470,0.992,-1,2
163,1.28569,0.997,-1,2
164,1.28669,0.997,-1,2
165,1.28767,0.984,-1,2
166,1.28870,1.027,-1,2
167,1.29070,1.018,-1,2
168,1.29169,0.997,-1,2
169,1.29272,1.027,-1,2
170,1.29374,1.014,-1,2
171,1.29476,1.027,-1,2
172,1.29577,1.005,-1,2
173,1.29679,1.027,-1,2
174,1.29781,1.014,-1,2
175,1.29883,1.027,-1,2
176,1.29986,1.027,-1,2
177,1.30092,1.057,-1,2
178,1.30196,1.040,-1,2
179,1.30300,1.040,-1,2
180,1.30406,1.066,-1,2
181,1.30510,1.040,-1,2
182,1.30617,1.066,-1,2
183,1.30721,1.044,-1,2
184,1.30830,1.083,-1,2
185,1.30935,1.057,-1,2
186,1.31042,1.066,-1,2
187,1.31148,1.066,-1,2
188,1.31256,1.079,-1,2
189,1.31366,1.096,-1,2
190,1.31474,1.079,-1,2
191,1.31585,1.087,-1,2
192,1.31693,1.087,-1,2
193,1.31805,1.117,-1,2
194,1.31915,1.100,-1,2
195,1.32028,1.126,-1,2
196,1.32252,1.130,-1,2
197,1.32365,1.126,-1,2
198,1.32478,1.130,-1,2
199,1.32592,1.139,-1,2
200,1.32706,1.139,-1,2
201,1.32821,1.148,-1,2
202,1.32935,1.139,-1,2
203,1.33052,1.169,-1,2
204,1.33168,1.161,-1,2
205,1.33285,1.178,-1,2
206,1.33402,1.165,-1,2
207,1.33521,1.191,-1,2
208,1.33640,1.195,-1,2
209,1.33760,1.195,-1,2
210,1.33879,1.195,-1,2
211,1.34001,1.212,-1,2
212,1.34122,1.217,-1,2
213,1.34244,1.221,-1,2
214,1.34369,1.243,-1,2
215,1.34492,1.230,-1,2
216,1.34617,1.251,-1,2
217,1.34741,1.247,-1,2
218,1.34868,1.268,-1,2
219,1.34993,1.243,-1,2
220,1.35120,1.273,-1,2
221,1.35247,1.268,-1,2
222,1.35375,1.286,-1,2
223,1.35503,1.277,-1,2
224,1.35633,1.299,-1,2
225,1.35763,1.303,-1,2
226,1.35893,1.303,-1,2
227,1.36025,1.316,-1,2
228,1.36155,1.299,-1,2
229,1.36289,1.337,-1,2
230,1.36422,1.333,-1,2
231,1.36555,1.329,-1,2
232,1.36691,1.359,-1,2
233,1.36827,1.359,-1,2
234,1.36961,1.346,-1,2
235,1.37099,1.376,-1,2
236,1.37236,1.376,-1,2
237,1.37374,1.376,-1,2
238,1.37513,1.385,-1,2
239,1.37651,1.385,-1,2
240,1.37790,1.394,-1,2
241,1.37930,1.394,-1,2
242,1.38071,1.411,-1,2
243,1.38213,1.419,-1,2
244,1.38356,1.428,-1,2
245,1.38497,1.415,-1,2
246,1.38642,1.454,-1,2
247,1.38787,1.445,-1,2
248,1.38931,1.437,-1,2
249,1.39076,1.454,-1,2
250,1.39222,1.463,-1,2
251,1.39369,1.463,-1,2
252,1.39516,1.475,-1,2
253,1.39664,1.497,-1,2
254,1.39814,1.497,-1,2
255,1.39962,1.480,-1,2
256,1.40114,1.514,-1,2
257,1.40414,1.493,-1,2
258,1.40566,1.523,-1,2
259,1.40719,1.527,-1,2
260,1.40873,1.536,-1,2
261,1.41027,1.540,-1,2
262,1.41181,1.540,-1,2
263,1.41336,1.557,-1,2
264,1.41493,1.566,-1,2
265,1.41650,1.566,-1,2
266,1.41807,1.570,-1,2
267,1.41965,1.583,-1,2
268,1.42124,1.592,-1,2
269,1.42283,1.588,-1,2
270,1.42442,1.596,-1,2
271,1.42605,1.622,-1,2
272,1.42765,1.605,-1,2
273,1.42928,1.631,-1,2
274,1.43090,1.614,-1,2
275,1.43255,1.652,-1,2
276,1.43418,1.635,-1,2
277,1.43582,1.639,-1,2
278,1.43748,1.661,-1,2
279,1.43916,1.674,-1,2
280,1.44084,1.678,-1,2
281,1.44253,1.696,-1,2
282,1.44421,1.674,-1,2
283,1.44589,1.683,-1,2
284,1.44757,1.683,-1,2
285,1.44930,1.726,-1,2
286,1.45102,1.726,-1,2
287,1.45274,1.721,-1,2
288,1.45449,1.743,-1,2
289,1.45623,1.739,-1,2
290,1.45798,1.752,-1,2
291,1.45969,1.717,-1,2
292,1.46146,1.765,-1,2
293,1.46323,1.773,-1,2
294,1.46502,1.786,-1,2
295,1.46680,1.786,-1,2
296,1.46859,1.790,-1,2
297,1.47040,1.803,-1,2
298,1.47217,1.773,-1,2
299,1.47399,1.821,-1,2
300,1.47579,1.799,-1,2
301,1.47762,1.834,-1,2
302,1.47944,1.816,-1,2
303,1.48127,1.825,-1,2
304,1.48312,1.855,-1,2
305,1.48498,1.855,-1,2
306,1.48684,1.859,-1,2
307,1.48870,1.868,-1,2
308,1.49056,1.859,-1,2
309,1.49243,1.868,-1,2
310,1.49433,1.894,-1,2
311,1.49621,1.885,-1,2
312,1.49810,1.890,-1,2
313,1.50000,1.898,-1,2
314,1.50190,1.903,-1,2
315,1.50383,1.924,-1,2
316,1.50573,1.903,-1,2
317,1.50764,1.916,-1,2
318,1.50957,1.929,-1,2
319,1.51151,1.941,-1,2
320,1.51346,1.950,-1,2
321,1.51541,1.946,-1,2
322,1.51737,1.959,-1,2
323,1.51932,1.950,-1,2
324,1.52128,1.959,-1,2
325,1.52326,1.980,-1,2
326,1.52523,1.972,-1,2
327,1.52722,1.993,-1,2
328,1.52922,1.993,-1,2
329,1.53122,2.010,-1,2
330,1.53323,1.985,-1,2
331,1.53725,2.032,-1,2
332,1.53725,2.032,-1,2
333,1.54130,2.041,-1,2
334,1.54130,2.028,-1,2
335,1.54537,2.041,-1,2
336,1.54740,2.032,-1,2
337,1.54945,2.054,-1,2
338,1.55150,2.045,-1,2
339,1.55357,2.071,-1,2
340,1.55564,2.071,-1,2
341,1.55772,2.075,-1,2
342,1.55979,2.071,-1,2
343,1.56187,2.084,-1,2
344,1.56396,2.088,-1,2
345,1.56604,2.080,-1,2
346,1.56815,2.114,-1,2
347,1.57026,2.105,-1,2
348,1.57237,2.110,-1,2
349,1.57449,2.118,-1,2
350,1.57663,2.140,-1,2
351,1.57874,2.118,-1,2
352,1.58088,2.131,-1,2
353,1.58302,2.144,-1,2
354,1.58517,2.153,-1,2
355,1.58731,2.140,-1,2
356,1.58946,2.153,-1,2
357,1.59163,2.161,-1,2
358,1.59377,2.140,-1,2
359,1.59592,2.157,-1,2
360,1.59810,2.174,-1,2
361,1.60026,2.166,-1,2
362,1.60245,2.187,-1,2
363,1.60464,2.187,-1,2
364,1.60682,2.179,-1,2
365,1.60899,2.174,-1,2
366,1.61118,2.187,-1,2
367,1.61336,2.183,-1,2
368,1.61555,2.187,-1,2
369,1.61775,2.200,-1,2
370,1.61993,2.179,-1,2
371,1.62213,2.200,-1,2
372,1.62433,2.205,-1,2
373,1.62655,2.213,-1,2
374,1.62875,2.205,-1,2
375,1.63096,2.205,-1,2
376,1.63316,2.205,-1,2
377,1.63535,2.192,-1,2
378,1.63756,2.209,-1,2
379,1.64199,2.218,-1,2
380,1.64420,2.209,-1,2
381,1.64641,2.209,-1,2
382,1.64863,2.222,-1,2
383,1.65086,2.235,-1,2
384,1.65308,2.222,-1,2
385,1.65531,2.222,-1,2
386,1.65752,2.218,-1,2
387,1.65973,2.209,-1,2
388,1.66195,2.218,-1,2
389,1.66418,2.226,-1,2
390,1.66642,2.239,-1,2
391,1.66865,2.239,-1,2
392,1.67088,2.226,-1,2
393,1.67311,2.231,-1,2
394,1.67533,2.222,-1,2
395,1.67757,2.239,-1,2
396,1.67981,2.235,-1,2
397,1.68205,2.239,-1,2
398,1.68429,2.239,-1,2
399,1.68651,2.226,-1,2
400,1.68875,2.239,-1,2
401,1.69099,2.239,-1,2
402,1.69323,2.239,-1,2
403,1.69549,2.261,-1,2
404,1.69772,2.231,-1,2
405,1.69996,2.239,-1,2
406,1.70219,2.235,-1,2
407,1.70444,2.231,-1,2
408,1.70890,2.231,-1,2
409,1.70890,2.231,-1,2
410,1.71113,2.231,-1,2
411,1.71335,2.213,-1,2
412,1.71558,2.231,-1,2
413,1.71781,2.235,-1,2
414,1.72004,2.218,-1,2
415,1.72449,2.231,-1,2
416,1.72449,2.235,-1,2
417,1.72893,2.205,-1,2
418,1.73113,2.209,-1,2
419,1.73335,2.218,-1,2
420,1.73556,2.205,-1,2
421,1.73777,2.209,-1,2
422,1.73997,2.205,-1,2
423,1.74216,2.192,-1,2
424,1.74437,2.213,-1,2
425,1.74658,2.209,-1,2
426,1.74878,2.196,-1,2
427,1.75097,2.187,-1,2
428,1.75317,2.205,-1,2
429,1.75535,2.179,-1,2
430,1.75753,2.183,-1,2
431,1.75972,2.187,-1,2
432,1.76188,2.157,-1,2
433,1.76405,2.170,-1,2
434,1.76623,2.183,-1,2
435,1.76842,2.192,-1,2
436,1.77061,2.183,-1,2
437,1.77275,2.144,-1,2
438,1.77492,2.166,-1,2
439,1.77708,2.161,-1,2
440,1.77923,2.153,-1,2
441,1.78139,2.157,-1,2
442,1.78353,2.144,-1,2
443,1.78570,2.166,-1,2
444,1.78784,2.144,-1,2
445,1.78997,2.127,-1,2
446,1.79211,2.144,-1,2
447,1.79426,2.144,-1,2
448,1.79641,2.153,-1,2
449,1.79855,2.140,-1,2
450,1.80069,2.136,-1,2
451,1.80282,2.136,-1,2
452,1.80493,2.105,-1,2
453,1.80705,2.123,-1,2
454,1.80917,2.123,-1,2
455,1.81128,2.105,-1,2
456,1.81340,2.127,-1,2
457,1.81553,2.123,-1,2
458,1.81761,2.088,-1,2
459,1.81972,2.101,-1,2
460,1.82181,2.097,-1,2
461,1.82391,2.101,-1,2
462,1.82600,2.084,-1,2
463,1.82809,2.097,-1,2
464,1.83016,2.067,-1,2
465,1.83225,2.088,-1,2
466,1.83432,2.075,-1,2
467,1.83639,2.067,-1,2
468,1.83847,2.080,-1,2
469,1.84053,2.058,-1,2
470,1.84259,2.062,-1,2
471,1.84466,2.067,-1,2
472,1.84668,2.028,-1,2
473,1.84873,2.041,-1,2
474,1.85079,2.062,-1,2
475,1.85282,2.028,-1,2
476,1.85486,2.049,-1,2
477,1.85690,2.032,-1,2
478,1.85893,2.032,-1,2
479,1.86096,2.028,-1,2
480,1.86298,2.015,-1,2
481,1.86701,2.015,-1,2
482,1.86903,2.019,-1,2
483,1.87105,2.019,-1,2
484,1.87305,2.002,-1,2
485,1.87507,2.019,-1,2
486,1.87706,1.989,-1,2
487,1.87907,2.010,-1,2
488,1.88107,2.006,-1,2
489,1.88308,2.002,-1,2
490,1.88509,2.010,-1,2
491,1.88708,1.998,-1,2
492,1.88908,1.993,-1,2
493,1.89106,1.985,-1,2
494,1.89305,1.985,-1,2
495,1.89502,1.976,-1,2
496,1.89703,2.006,-1,2
497,1.89900,1.967,-1,2
498,1.90099,1.993,-1,2
499,1.90296,1.976,-1,2
500,1.90495,1.980,-1,2
501,1.90692,1.972,-1,2
502,1.90891,1.993,-1,2
503,1.91089,1.985,-1,2
504,1.91288,1.985,-1,2
505,1.91486,1.980,-1,2
506,1.91684,1.980,-1,2
507,1.91882,1.976,-1,2
508,1.92079,1.976,-1,2
509,1.92275,1.959,-1,2
510,1.92472,1.972,-1,2
511,1.92669,1.972,-1,2
512,1.92867,1.980,-1,2
513,1.93065,1.972,-1,2
514,1.93261,1.967,-1,2
515,1.93457,1.959,-1,2
516,1.93654,1.972,-1,2
517,1.93852,1.976,-1,2
518,1.94049,1.967,-1,2
519,1.94245,1.959,-1,2
520,1.94440,1.950,-1,2
521,1.94636,1.967,-1,2
522,1.94832,1.959,-1,2
523,1.95029,1.972,-1,2
524,1.95226,1.972,-1,2
525,1.95422,1.959,-1,2
526,1.95618,1.959,-1,2
527,1.95814,1.954,-1,2
528,1.96011,1.972,-1,2
529,1.96207,1.963,-1,2
530,1.96404,1.967,-1,2
531,1.96601,1.976,-1,2
532,1.96797,1.954,-1,2
533,1.96992,1.950,-1,2
534,1.97188,1.963,-1,2
535,1.97385,1.963,-1,2
536,1.97580,1.954,-1,2
537,1.97777,1.972,-1,2
538,1.97974,1.972,-1,2
539,1.98171,1.972,-1,2
540,1.98368,1.963,-1,2
541,1.98564,1.967,-1,2
542,1.98763,1.985,-1,2
543,1.98958,1.950,-1,2
544,1.99156,1.980,-1,2
545,1.99353,1.972,-1,2
546,1.99551,1.972,-1,2
547,1.99748,1.972,-1,2
548,1.99946,1.972,-1,2
549,2.00144,1.972,-1,2
550,2.00342,1.985,-1,2
551,2.00541,1.993,-1,2
552,2.00941,1.998,-1,2
553,2.01138,1.976,-1,2
554,2.01337,1.989,-1,2
555,2.01538,2.010,-1,2
556,2.01739,2.010,-1,2
557,2.01940,2.010,-1,2
558,2.02142,2.019,-1,2
559,2.02343,2.002,-1,2
560,2.02544,2.010,-1,2
561,2.02745,2.015,-1,2
562,2.02948,2.028,-1,2
563,2.03151,2.032,-1,2
564,2.03353,2.019,-1,2
565,2.03555,2.023,-1,2
566,2.03758,2.032,-1,2
567,2.03963,2.041,-1,2
568,2.04167,2.041,-1,2
569,2.04371,2.045,-1,2
570,2.04576,2.049,-1,2
571,2.04782,2.058,-1,2
572,2.04987,2.049,-1,2
573,2.05195,2.080,-1,2
574,2.05403,2.084,-1,2
575,2.05609,2.058,-1,2
576,2.05817,2.080,-1,2
577,2.06025,2.080,-1,2
578,2.06233,2.084,-1,2
579,2.06442,2.088,-1,2
580,2.06652,2.101,-1,2
581,2.06862,2.101,-1,2
582,2.07073,2.105,-1,2
583,2.07283,2.101,-1,2
584,2.07495,2.118,-1,2
585,2.07708,2.131,-1,2
586,2.07921,2.136,-1,2
587,2.08136,2.144,-1,2
588,2.08350,2.144,-1,2
589,2.08564,2.140,-1,2
590,2.08779,2.149,-1,2
591,2.08996,2.166,-1,2
592,2.09213,2.170,-1,2
593,2.09430,2.174,-1,2
594,2.09649,2.192,-1,2
595,2.09869,2.196,-1,2
596,2.10086,2.170,-1,2
597,2.10308,2.222,-1,2
598,2.10528,2.200,-1,2
599,2.10752,2.235,-1,2
600,2.10973,2.213,-1,2
601,2.11197,2.239,-1,2
602,2.11420,2.235,-1,2
603,2.11645,2.243,-1,2
604,2.11871,2.265,-1,2
605,2.12100,2.287,-1,2
606,2.12328,2.287,-1,2
607,2.12556,2.278,-1,2
608,2.12784,2.282,-1,2
609,2.13015,2.304,-1,2
610,2.13246,2.308,-1,2
611,2.13476,2.304,-1,2
612,2.13708,2.317,-1,2
613,2.13940,2.321,-1,2
614,2.14174,2.338,-1,2
615,2.14408,2.343,-1,2
616,2.14643,2.347,-1,2
617,2.14879,2.360,-1,2
618,2.15115,2.351,-1,2
619,2.15350,2.386,-1,2
620,2.15828,2.394,-1,2
621,2.16064,2.360,-1,2
622,2.16304,2.394,-1,2
623,2.16544,2.403,-1,2
624,2.16786,2.416,-1,2
625,2.17028,2.420,-1,2
626,2.17268,2.407,-1,2
627,2.17510,2.412,-1,2
628,2.17752,2.425,-1,2
629,2.17993,2.412,-1,2
630,2.18236,2.425,-1,2
631,2.18480,2.446,-1,2
632,2.18725,2.451,-1,2
633,2.18970,2.446,-1,2
634,2.19216,2.459,-1,2
635,2.19463,2.468,-1,2
636,2.19710,2.472,-1,2
637,2.19956,2.459,-1,2
638,2.20201,2.455,-1,2
639,2.20448,2.468,-1,2
640,2.20696,2.485,-1,2
641,2.20944,2.476,-1,2
642,2.21191,2.472,-1,2
643,2.21444,2.524,-1,2
644,2.21693,2.489,-1,2
645,2.21944,2.507,-1,2
646,2.22194,2.528,-1,2
647,2.22697,2.502,-1,2
648,2.22948,2.507,-1,2
649,2.23202,2.541,-1,2
650,2.23457,2.545,-1,2
651,2.23710,2.537,-1,2
652,2.23965,2.550,-1,2
653,2.24221,2.554,-1,2
654,2.24477,2.558,-1,2
655,2.24732,2.550,-1,2
656,2.24990,2.580,-1,2
657,2.25246,2.558,-1,2
658,2.25504,2.584,-1,2
659,2.25763,2.589,-1,2
660,2.26023,2.602,-1,2
661,2.26282,2.589,-1,2
662,2.26542,2.602,-1,2
663,2.26802,2.602,-1,2
664,2.27064,2.619,-1,2
665,2.27324,2.597,-1,2
666,2.27585,2.614,-1,2
667,2.27847,2.614,-1,2
668,2.28109,2.623,-1,2
669,2.28372,2.632,-1,2
670,2.28637,2.649,-1,2
671,2.28901,2.640,-1,2
672,2.29165,2.636,-1,2
673,2.29429,2.640,-1,2
674,2.29692,2.636,-1,2
675,2.29958,2.653,-1,2
676,2.30225,2.675,-1,2
677,2.30490,2.653,-1,2
678,2.30755,2.645,-1,2
679,2.31025,2.701,-1,2
680,2.31292,2.671,-1,2
681,2.31559,2.671,-1,2
682,2.31828,2.688,-1,2
683,2.32097,2.692,-1,2
684,2.32634,2.696,-1,2
685,2.32634,2.684,-1,2
686,2.32903,2.709,-1,2
687,2.33174,2.709,-1,2
688,2.33447,2.688,-1,2
689,2.33987,2.709,-1,2
690,2.34259,2.722,-1,2
691,2.34531,2.718,-1,2
692,2.34805,2.740,-1,2
693,2.35078,2.727,-1,2
694,2.35350,2.722,-1,2
695,2.35625,2.748,-1,2
696,2.35900,2.748,-1,2
697,2.36175,2.748,-1,2
698,2.36452,2.774,-1,2
699,2.36726,2.740,-1,2
700,2.37003,2.770,-1,2
701,2.37280,2.770,-1,2
702,2.37556,2.761,-1,2
703,2.37836,2.796,-1,2
704,2.38113,2.774,-1,2
705,2.38391,2.778,-1,2
706,2.38669,2.783,-1,2
707,2.38947,2.783,-1,2
708,2.39224,2.765,-1,2
709,2.39504,2.804,-1,2
710,2.39783,2.783,-1,2
711,2.40063,2.804,-1,2
712,2.40345,2.817,-1,2
713,2.40624,2.791,-1,2
714,2.40904,2.800,-1,2
715,2.41185,2.813,-1,2
716,2.41465,2.800,-1,2
717,2.41746,2.813,-1,2
718,2.42028,2.813,-1,2
719,2.42310,2.822,-1,2
720,2.42593,2.826,-1,2
721,2.42872,2.796,-1,2
722,2.43157,2.847,-1,2
723,2.43439,2.822,-1,2
724,2.43724,2.847,-1,2
725,2.44007,2.830,-1,2
726,2.44289,2.826,-1,2
727,2.44572,2.830,-1,2
728,2.44858,2.856,-1,2
729,2.45144,2.856,-1,2
730,2.45429,2.852,-1,2
731,2.45714,2.852,-1,2
732,2.45999,2.847,-1,2
733,2.46284,2.856,-1,2
734,2.46571,2.865,-1,2
735,2.46856,2.856,-1,2
736,2.47142,2.891,-1,2
737,2.47720,2.886,-1,2
738,2.47720,2.886,-1,2
739,2.48007,2.873,-1,2
740,2.48294,2.873,-1,2
741,2.48870,2.886,-1,2
742,2.49159,2.886,-1,2
743,2.49446,2.869,-1,2
744,2.49737,2.908,-1,2
745,2.50026,2.891,-1,2
746,2.50317,2.916,-1,2
747,2.50606,2.886,-1,2
748,2.50895,2.891,-1,2
749,2.51183,2.878,-1,2
750,2.51474,2.912,-1,2
751,2.51765,2.912,-1,2
752,2.52055,2.895,-1,2
753,2.52345,2.904,-1,2
754,2.52636,2.908,-1,2
755,2.52928,2.921,-1,2
756,2.53218,2.899,-1,2
757,2.53507,2.895,-1,2
758,2.53798,2.908,-1,2
759,2.54090,2.916,-1,2
760,2.54381,2.912,-1,2
761,2.54674,2.925,-1,2
762,2.54965,2.916,-1,2
763,2.55258,2.925,-1,2
764,2.55547,2.895,-1,2
765,2.55839,2.916,-1,2
766,2.56132,2.929,-1,2
767,2.56422,2.899,-1,2
768,2.56714,2.925,-1,2
769,2.57006,2.916,-1,2
770,2.57299,2.929,-1,2
771,2.57881,2.904,-1,2
772,2.58175,2.938,-1,2
773,2.58175,2.912,-1,2
774,2.58759,2.929,-1,2
775,2.59048,2.895,-1,2
776,2.59341,2.929,-1,2
777,2.59634,2.925,-1,2
778,2.59927,2.929,-1,2
779,2.60218,2.912,-1,2
780,2.60509,2.908,-1,2
781,2.60800,2.916,-1,2
782,2.61091,2.912,-1,2
783,2.61382,2.908,-1,2
784,2.61675,2.925,-1,2
785,2.61967,2.921,-1,2
786,2.62257,2.904,-1,2
787,2.62548,2.904,-1,2
788,2.62838,2.904,-1,2
789,2.63128,2.904,-1,2
790,2.63419,2.904,-1,2
791,2.63708,2.895,-1,2
792,2.63996,2.882,-1,2
793,2.64286,2.895,-1,2
794,2.64575,2.895,-1,2
795,2.64864,2.882,-1,2
796,2.65439,2.869,-1,2
797,2.65730,2.908,-1,2
798,2.66016,2.860,-1,2
799,2.66306,2.899,-1,2
800,2.66591,2.847,-1,2
801,2.66878,2.869,-1,2
802,2.67166,2.878,-1,2
803,2.67450,2.847,-1,2
804,2.67737,2.869,-1,2
805,2.68022,2.852,-1,2
806,2.68308,2.860,-1,2
807,2.68595,2.860,-1,2
808,2.68880,2.856,-1,2
809,2.69164,2.839,-1,2
810,2.69450,2.860,-1,2
811,2.69733,2.830,-1,2
812,2.70019,2.860,-1,2
813,2.70302,2.830,-1,2
814,2.70585,2.830,-1,2
815,2.70869,2.843,-1,2
816,2.71152,2.826,-1,2
817,2.71437,2.847,-1,2
818,2.71719,2.822,-1,2
819,2.72003,2.843,-1,2
820,2.72285,2.813,-1,2
821,2.72566,2.813,-1,2
822,2.72848,2.817,-1,2
823,2.73130,2.826,-1,2
824,2.73412,2.817,-1,2
825,2.73694,2.817,-1,2
826,2.73975,2.813,-1,2
827,2.74256,2.809,-1,2
828,2.74535,2.791,-1,2
829,2.74814,2.796,-1,2
830,2.75094,2.796,-1,2
831,2.75374,2.804,-1,2
832,2.75653,2.787,-1,2
833,2.75933,2.804,-1,2
834,2.76213,2.783,-1,2
835,2.76491,2.770,-1,2
836,2.76768,2.770,-1,2
837,2.77324,2.778,-1,2
838,2.77602,2.783,-1,2
839,2.77877,2.748,-1,2
840,2.78155,2.783,-1,2
841,2.78433,2.783,-1,2
842,2.78710,2.765,-1,2
843,2.78988,2.783,-1,2
844,2.79263,2.744,-1,2
845,2.79540,2.770,-1,2
846,2.79815,2.757,-1,2
847,2.80092,2.770,-1,2
848,2.80370,2.774,-1,2
849,2.80645,2.753,-1,2
850,2.80922,2.770,-1,2
851,2.81199,2.774,-1,2
852,2.81475,2.757,-1,2
853,2.81750,2.748,-1,2
854,2.82026,2.765,-1,2
855,2.82302,2.757,-1,2
856,2.82581,2.787,-1,2
857,2.82856,2.753,-1,2
858,2.83132,2.761,-1,2
859,2.83407,2.753,-1,2
860,2.83684,2.770,-1,2
861,2.83960,2.761,-1,2
862,2.84233,2.731,-1,2
863,2.84506,2.727,-1,2
864,2.84783,2.765,-1,2
865,2.85058,2.753,-1,2
866,2.85333,2.748,-1,2
867,2.85609,2.761,-1,2
868,2.85882,2.735,-1,2
869,2.86155,2.727,-1,2
870,2.86431,2.757,-1,2
871,2.86703,2.727,-1,2
872,2.86980,2.770,-1,2
873,2.87252,2.714,-1,2
