cnt,pos,speed,Dir,Force,
1,1.29788,1.010,-1,2
2,1.29989,0.997,-1,2
3,1.29989,1.027,-1,2
4,1.30091,1.001,-1,2
5,1.30192,1.001,-1,2
6,1.30293,1.018,-1,2
7,1.30394,1.005,-1,2
8,1.30498,1.044,-1,2
9,1.30601,1.048,-1,2
10,1.30808,1.031,-1,2
11,1.30808,1.070,-1,2
12,1.30915,1.048,-1,2
13,1.31020,1.048,-1,2
14,1.31127,1.066,-1,2
15,1.31231,1.044,-1,2
16,1.31340,1.083,-1,2
17,1.31447,1.074,-1,2
18,1.31554,1.066,-1,2
19,1.31664,1.104,-1,2
20,1.31772,1.079,-1,2
21,1.31882,1.100,-1,2
22,1.31992,1.100,-1,2
23,1.32104,1.117,-1,2
24,1.32215,1.109,-1,2
25,1.32327,1.126,-1,2
26,1.32441,1.135,-1,2
27,1.32555,1.143,-1,2
28,1.32668,1.130,-1,2
29,1.32782,1.143,-1,2
30,1.32896,1.135,-1,2
31,1.33012,1.161,-1,2
32,1.33244,1.165,-1,2
33,1.33363,1.186,-1,2
34,1.33480,1.173,-1,2
35,1.33480,1.173,-1,2
36,1.33597,1.173,-1,2
37,1.33719,1.217,-1,2
38,1.33838,1.208,-1,2
39,1.34078,1.195,-1,2
40,1.34200,1.225,-1,2
41,1.34321,1.208,-1,2
42,1.34321,1.238,-1,2
43,1.34445,1.238,-1,2
44,1.34569,1.238,-1,2
45,1.34691,1.217,-1,2
46,1.34816,1.251,-1,2
47,1.34940,1.243,-1,2
48,1.35065,1.251,-1,2
49,1.35192,1.273,-1,2
50,1.35318,1.255,-1,2
51,1.35446,1.281,-1,2
52,1.35575,1.290,-1,2
53,1.35702,1.268,-1,2
54,1.35832,1.303,-1,2
55,1.35963,1.307,-1,2
56,1.36091,1.281,-1,2
57,1.36221,1.299,-1,2
58,1.36352,1.312,-1,2
59,1.36482,1.303,-1,2
60,1.36615,1.329,-1,2
61,1.36749,1.342,-1,2
62,1.37015,1.342,-1,2
63,1.37015,1.359,-1,2
64,1.37285,1.337,-1,2
65,1.37421,1.355,-1,2
66,1.37558,1.372,-1,2
67,1.37558,1.350,-1,2
68,1.37830,1.368,-1,2
69,1.37968,1.381,-1,2
70,1.38104,1.368,-1,2
71,1.38243,1.389,-1,2
72,1.38381,1.381,-1,2
73,1.38521,1.398,-1,2
74,1.38661,1.398,-1,2
75,1.38800,1.389,-1,2
76,1.38942,1.424,-1,2
77,1.39083,1.411,-1,2
78,1.39226,1.428,-1,2
79,1.39367,1.406,-1,2
80,1.39513,1.463,-1,2
81,1.39655,1.424,-1,2
82,1.39800,1.445,-1,2
83,1.39945,1.450,-1,2
84,1.40090,1.454,-1,2
85,1.40236,1.458,-1,2
86,1.40381,1.450,-1,2
87,1.40526,1.454,-1,2
88,1.40675,1.484,-1,2
89,1.40821,1.463,-1,2
90,1.40970,1.484,-1,2
91,1.41119,1.497,-1,2
92,1.41267,1.475,-1,2
93,1.41417,1.497,-1,2
94,1.41565,1.488,-1,2
95,1.41716,1.510,-1,2
96,1.41867,1.501,-1,2
97,1.42019,1.523,-1,2
98,1.42172,1.527,-1,2
99,1.42324,1.523,-1,2
100,1.42629,1.540,-1,2
101,1.42783,1.540,-1,2
102,1.42937,1.540,-1,2
103,1.43090,1.532,-1,2
104,1.43245,1.545,-1,2
105,1.43401,1.562,-1,2
106,1.43558,1.566,-1,2
107,1.43715,1.575,-1,2
108,1.43871,1.557,-1,2
109,1.44029,1.583,-1,2
110,1.44186,1.570,-1,2
111,1.44345,1.588,-1,2
112,1.44503,1.579,-1,2
113,1.44663,1.596,-1,2
114,1.44823,1.601,-1,2
115,1.44983,1.605,-1,2
116,1.45143,1.596,-1,2
117,1.45305,1.622,-1,2
118,1.45465,1.601,-1,2
119,1.45628,1.626,-1,2
120,1.45789,1.614,-1,2
121,1.45952,1.631,-1,2
122,1.46115,1.626,-1,2
123,1.46279,1.644,-1,2
124,1.46444,1.652,-1,2
125,1.46607,1.626,-1,2
126,1.46774,1.665,-1,2
127,1.46937,1.635,-1,2
128,1.47102,1.652,-1,2
129,1.47269,1.670,-1,2
130,1.47434,1.648,-1,2
131,1.47600,1.657,-1,2
132,1.47766,1.661,-1,2
133,1.47933,1.674,-1,2
134,1.48099,1.652,-1,2
135,1.48265,1.661,-1,2
136,1.48432,1.678,-1,2
137,1.48601,1.687,-1,2
138,1.48770,1.691,-1,2
139,1.48938,1.678,-1,2
140,1.49106,1.674,-1,2
141,1.49276,1.704,-1,2
142,1.49445,1.696,-1,2
143,1.49615,1.691,-1,2
144,1.49783,1.687,-1,2
145,1.49954,1.704,-1,2
146,1.50123,1.691,-1,2
147,1.50293,1.704,-1,2
148,1.50463,1.721,-1,2
149,1.50635,1.726,-1,2
150,1.50978,1.700,-1,2
151,1.51150,1.721,-1,2
152,1.51150,1.717,-1,2
153,1.51322,1.713,-1,2
154,1.51493,1.713,-1,2
155,1.51839,1.730,-1,2
156,1.52013,1.739,-1,2
157,1.52186,1.734,-1,2
158,1.52358,1.717,-1,2
159,1.52532,1.739,-1,2
160,1.52706,1.747,-1,2
161,1.52881,1.752,-1,2
162,1.53053,1.717,-1,2
163,1.53228,1.747,-1,2
164,1.53404,1.765,-1,2
165,1.53579,1.743,-1,2
166,1.53756,1.778,-1,2
167,1.53932,1.760,-1,2
168,1.54108,1.760,-1,2
169,1.54285,1.765,-1,2
170,1.54461,1.760,-1,2
171,1.54638,1.773,-1,2
172,1.54814,1.760,-1,2
173,1.54991,1.769,-1,2
174,1.55169,1.782,-1,2
175,1.55347,1.782,-1,2
176,1.55527,1.790,-1,2
177,1.55703,1.769,-1,2
178,1.55880,1.765,-1,2
179,1.56059,1.790,-1,2
180,1.56239,1.799,-1,2
181,1.56420,1.812,-1,2
182,1.56599,1.790,-1,2
183,1.56779,1.803,-1,2
184,1.56960,1.803,-1,2
185,1.57140,1.803,-1,2
186,1.57319,1.786,-1,2
187,1.57499,1.799,-1,2
188,1.57679,1.808,-1,2
189,1.57861,1.812,-1,2
190,1.58043,1.821,-1,2
191,1.58225,1.821,-1,2
192,1.58406,1.816,-1,2
193,1.58587,1.808,-1,2
194,1.58952,1.821,-1,2
195,1.59131,1.790,-1,2
196,1.59313,1.821,-1,2
197,1.59494,1.816,-1,2
198,1.59678,1.834,-1,2
199,1.59860,1.825,-1,2
200,1.60041,1.812,-1,2
201,1.60225,1.834,-1,2
202,1.60409,1.838,-1,2
203,1.60592,1.838,-1,2
204,1.60775,1.825,-1,2
205,1.60958,1.834,-1,2
206,1.61141,1.825,-1,2
207,1.61325,1.847,-1,2
208,1.61507,1.816,-1,2
209,1.61691,1.842,-1,2
210,1.61875,1.838,-1,2
211,1.62059,1.842,-1,2
212,1.62243,1.842,-1,2
213,1.62429,1.851,-1,2
214,1.62612,1.838,-1,2
215,1.62796,1.834,-1,2
216,1.62980,1.842,-1,2
217,1.63164,1.842,-1,2
218,1.63348,1.838,-1,2
219,1.63534,1.859,-1,2
220,1.63719,1.855,-1,2
221,1.63905,1.851,-1,2
222,1.64090,1.855,-1,2
223,1.64276,1.864,-1,2
224,1.64461,1.842,-1,2
225,1.64645,1.847,-1,2
226,1.64831,1.855,-1,2
227,1.65018,1.868,-1,2
228,1.65390,1.859,-1,2
229,1.65390,1.868,-1,2
230,1.65577,1.868,-1,2
231,1.65762,1.855,-1,2
232,1.65949,1.864,-1,2
233,1.66134,1.851,-1,2
234,1.66508,1.877,-1,2
235,1.66694,1.859,-1,2
236,1.66881,1.872,-1,2
237,1.67066,1.855,-1,2
238,1.67254,1.877,-1,2
239,1.67443,1.885,-1,2
240,1.67628,1.851,-1,2
241,1.67816,1.881,-1,2
242,1.68005,1.894,-1,2
243,1.68191,1.859,-1,2
244,1.68380,1.885,-1,2
245,1.68568,1.881,-1,2
246,1.68756,1.877,-1,2
247,1.68944,1.881,-1,2
248,1.69130,1.859,-1,2
249,1.69318,1.881,-1,2
250,1.69506,1.881,-1,2
251,1.69693,1.877,-1,2
252,1.69881,1.877,-1,2
253,1.70070,1.885,-1,2
254,1.70259,1.890,-1,2
255,1.70447,1.885,-1,2
256,1.70636,1.885,-1,2
257,1.70824,1.885,-1,2
258,1.71013,1.890,-1,2
259,1.71198,1.851,-1,2
260,1.71386,1.881,-1,2
261,1.71574,1.877,-1,2
262,1.71763,1.885,-1,2
263,1.71951,1.881,-1,2
264,1.72140,1.894,-1,2
265,1.72329,1.890,-1,2
266,1.72516,1.872,-1,2
267,1.72705,1.890,-1,2
268,1.72894,1.885,-1,2
269,1.73083,1.894,-1,2
270,1.73272,1.890,-1,2
271,1.73460,1.877,-1,2
272,1.73649,1.894,-1,2
273,1.73837,1.877,-1,2
274,1.74025,1.885,-1,2
275,1.74215,1.894,-1,2
276,1.74403,1.881,-1,2
277,1.74782,1.903,-1,2
278,1.74971,1.894,-1,2
279,1.75160,1.885,-1,2
280,1.75350,1.903,-1,2
281,1.75540,1.898,-1,2
282,1.75727,1.877,-1,2
283,1.75915,1.877,-1,2
284,1.76105,1.898,-1,2
285,1.76294,1.885,-1,2
286,1.76483,1.898,-1,2
287,1.76672,1.885,-1,2
288,1.76862,1.898,-1,2
289,1.77051,1.894,-1,2
290,1.77240,1.890,-1,2
291,1.77430,1.898,-1,2
292,1.77619,1.890,-1,2
293,1.77808,1.894,-1,2
294,1.77996,1.881,-1,2
295,1.78186,1.894,-1,2
296,1.78376,1.903,-1,2
297,1.78566,1.898,-1,2
298,1.78757,1.907,-1,2
299,1.78946,1.898,-1,2
300,1.79137,1.903,-1,2
301,1.79325,1.885,-1,2
302,1.79515,1.903,-1,2
303,1.79705,1.894,-1,2
304,1.79897,1.920,-1,2
305,1.80087,1.903,-1,2
306,1.80468,1.890,-1,2
307,1.80468,1.881,-1,2
308,1.80656,1.881,-1,2
309,1.80846,1.903,-1,2
310,1.81037,1.903,-1,2
311,1.81227,1.907,-1,2
312,1.81418,1.907,-1,2
313,1.81799,1.924,-1,2
314,1.81991,1.920,-1,2
315,1.82180,1.898,-1,2
316,1.82371,1.903,-1,2
317,1.82561,1.907,-1,2
318,1.82752,1.903,-1,2
319,1.82944,1.920,-1,2
320,1.83133,1.890,-1,2
321,1.83322,1.894,-1,2
322,1.83513,1.907,-1,2
323,1.83703,1.903,-1,2
324,1.83894,1.916,-1,2
325,1.84085,1.903,-1,2
326,1.84274,1.894,-1,2
327,1.84466,1.916,-1,2
328,1.84658,1.920,-1,2
329,1.84848,1.907,-1,2
330,1.85039,1.907,-1,2
331,1.85230,1.907,-1,2
332,1.85419,1.890,-1,2
333,1.85608,1.894,-1,2
334,1.85799,1.911,-1,2
335,1.85989,1.898,-1,2
336,1.86180,1.907,-1,2
337,1.86370,1.907,-1,2
338,1.86562,1.916,-1,2
339,1.86753,1.911,-1,2
340,1.86942,1.885,-1,2
341,1.87134,1.920,-1,2
342,1.87323,1.898,-1,2
343,1.87515,1.920,-1,2
344,1.87706,1.907,-1,2
345,1.87897,1.911,-1,2
346,1.88085,1.881,-1,2
347,1.88277,1.911,-1,2
348,1.88467,1.907,-1,2
349,1.88659,1.920,-1,2
350,1.88851,1.920,-1,2
351,1.89234,1.920,-1,2
352,1.89425,1.907,-1,2
353,1.89616,1.911,-1,2
354,1.89808,1.924,-1,2
355,1.89997,1.890,-1,2
356,1.90190,1.929,-1,2
357,1.90381,1.911,-1,2
358,1.90573,1.920,-1,2
359,1.90765,1.924,-1,2
360,1.90957,1.920,-1,2
361,1.91149,1.916,-1,2
362,1.91342,1.929,-1,2
363,1.91533,1.907,-1,2
364,1.91725,1.924,-1,2
365,1.91917,1.924,-1,2
366,1.92110,1.929,-1,2
367,1.92301,1.911,-1,2
368,1.92494,1.929,-1,2
369,1.92685,1.911,-1,2
370,1.92876,1.903,-1,2
371,1.93068,1.929,-1,2
372,1.93260,1.916,-1,2
373,1.93453,1.933,-1,2
374,1.93645,1.916,-1,2
375,1.93838,1.929,-1,2
376,1.94030,1.920,-1,2
377,1.94222,1.924,-1,2
378,1.94414,1.920,-1,2
379,1.94607,1.929,-1,2
380,1.94798,1.911,-1,2
381,1.94990,1.920,-1,2
382,1.95182,1.916,-1,2
383,1.95374,1.920,-1,2
384,1.95566,1.929,-1,2
385,1.95759,1.924,-1,2
386,1.95950,1.911,-1,2
387,1.96143,1.933,-1,2
388,1.96336,1.924,-1,2
389,1.96530,1.941,-1,2
390,1.96721,1.911,-1,2
391,1.96913,1.920,-1,2
392,1.97105,1.916,-1,2
393,1.97297,1.929,-1,2
394,1.97490,1.924,-1,2
395,1.97875,1.933,-1,2
396,1.97875,1.903,-1,2
397,1.98066,1.903,-1,2
398,1.98257,1.916,-1,2
399,1.98451,1.937,-1,2
400,1.98836,1.924,-1,2
401,1.99028,1.924,-1,2
402,1.99222,1.941,-1,2
403,1.99414,1.911,-1,2
404,1.99606,1.924,-1,2
405,1.99799,1.929,-1,2
406,1.99992,1.933,-1,2
407,2.00185,1.929,-1,2
408,2.00379,1.941,-1,2
409,2.00573,1.941,-1,2
410,2.00766,1.929,-1,2
411,2.00959,1.933,-1,2
412,2.01153,1.937,-1,2
413,2.01347,1.937,-1,2
414,2.01541,1.941,-1,2
415,2.01735,1.937,-1,2
416,2.01928,1.937,-1,2
417,2.02121,1.924,-1,2
418,2.02315,1.946,-1,2
419,2.02510,1.946,-1,2
420,2.02704,1.946,-1,2
421,2.02899,1.946,-1,2
422,2.03095,1.954,-1,2
423,2.03288,1.937,-1,2
424,2.03482,1.941,-1,2
425,2.03677,1.950,-1,2
426,2.03873,1.954,-1,2
427,2.04067,1.937,-1,2
428,2.04261,1.946,-1,2
429,2.04455,1.937,-1,2
430,2.04649,1.941,-1,2
431,2.05036,1.937,-1,2
432,2.05232,1.954,-1,2
433,2.05427,1.950,-1,2
434,2.05622,1.950,-1,2
435,2.05816,1.946,-1,2
436,2.06012,1.954,-1,2
437,2.06206,1.937,-1,2
438,2.06399,1.933,-1,2
439,2.06594,1.954,-1,2
440,2.06789,1.946,-1,2
441,2.06983,1.941,-1,2
442,2.07179,1.959,-1,2
443,2.07374,1.954,-1,2
444,2.07567,1.929,-1,2
445,2.07761,1.941,-1,2
446,2.07957,1.954,-1,2
447,2.08152,1.950,-1,2
448,2.08346,1.946,-1,2
449,2.08542,1.959,-1,2
450,2.08736,1.941,-1,2
451,2.08929,1.929,-1,2
452,2.09123,1.937,-1,2
453,2.09318,1.954,-1,2
454,2.09512,1.933,-1,2
455,2.09706,1.941,-1,2
456,2.09899,1.929,-1,2
457,2.10094,1.954,-1,2
458,2.10290,1.963,-1,2
459,2.10485,1.946,-1,2
460,2.10679,1.937,-1,2
461,2.10873,1.941,-1,2
462,2.11065,1.924,-1,2
463,2.11262,1.963,-1,2
464,2.11455,1.933,-1,2
465,2.11649,1.946,-1,2
466,2.11842,1.929,-1,2
467,2.12036,1.937,-1,2
468,2.12230,1.941,-1,2
469,2.12422,1.924,-1,2
470,2.12617,1.946,-1,2
471,2.12813,1.959,-1,2
472,2.13007,1.941,-1,2
473,2.13202,1.950,-1,2
474,2.13396,1.941,-1,2
475,2.13591,1.946,-1,2
476,2.13784,1.933,-1,2
477,2.13978,1.937,-1,2
478,2.14173,1.950,-1,2
479,2.14368,1.950,-1,2
480,2.14562,1.937,-1,2
481,2.14756,1.946,-1,2
482,2.14951,1.950,-1,2
483,2.15145,1.941,-1,2
484,2.15339,1.933,-1,2
485,2.15534,1.954,-1,2
486,2.15729,1.950,-1,2
487,2.15921,1.920,-1,2
488,2.16115,1.937,-1,2
489,2.16308,1.937,-1,2
490,2.16697,1.933,-1,2
491,2.16891,1.946,-1,2
492,2.17087,1.959,-1,2
493,2.17280,1.924,-1,2
494,2.17474,1.946,-1,2
495,2.17667,1.929,-1,2
496,2.17862,1.946,-1,2
497,2.18052,1.907,-1,2
498,2.18246,1.941,-1,2
499,2.18440,1.933,-1,2
500,2.18634,1.941,-1,2
501,2.18826,1.924,-1,2
502,2.19020,1.941,-1,2
503,2.19215,1.941,-1,2
504,2.19409,1.941,-1,2
505,2.19602,1.933,-1,2
506,2.19794,1.920,-1,2
507,2.19988,1.937,-1,2
508,2.20180,1.924,-1,2
509,2.20374,1.941,-1,2
510,2.20567,1.933,-1,2
511,2.20762,1.941,-1,2
512,2.20954,1.924,-1,2
513,2.21146,1.920,-1,2
514,2.21339,1.933,-1,2
515,2.21533,1.933,-1,2
516,2.21727,1.941,-1,2
517,2.21920,1.933,-1,2
518,2.22114,1.941,-1,2
519,2.22307,1.929,-1,2
520,2.22500,1.933,-1,2
521,2.22694,1.937,-1,2
522,2.22887,1.933,-1,2
523,2.23082,1.950,-1,2
524,2.23275,1.929,-1,2
525,2.23469,1.937,-1,2
526,2.23662,1.933,-1,2
527,2.23856,1.937,-1,2
528,2.24050,1.941,-1,2
529,2.24243,1.933,-1,2
530,2.24438,1.950,-1,2
531,2.24633,1.946,-1,2
532,2.25022,1.937,-1,2
533,2.25022,1.941,-1,2
534,2.25216,1.941,-1,2
535,2.25409,1.937,-1,2
536,2.25604,1.950,-1,2
537,2.25993,1.950,-1,2
538,2.26187,1.941,-1,2
539,2.26381,1.937,-1,2
540,2.26575,1.941,-1,2
541,2.26769,1.946,-1,2
542,2.26964,1.950,-1,2
543,2.27159,1.946,-1,2
544,2.27354,1.946,-1,2
545,2.27547,1.933,-1,2
546,2.27739,1.920,-1,2
547,2.27932,1.937,-1,2
548,2.28127,1.941,-1,2
549,2.28321,1.946,-1,2
550,2.28515,1.937,-1,2
551,2.28710,1.954,-1,2
552,2.28904,1.941,-1,2
553,2.29098,1.937,-1,2
554,2.29293,1.946,-1,2
555,2.29488,1.950,-1,2
556,2.29683,1.950,-1,2
557,2.29877,1.941,-1,2
558,2.30072,1.954,-1,2
559,2.30267,1.941,-1,2
560,2.30459,1.924,-1,2
561,2.30653,1.941,-1,2
562,2.30847,1.941,-1,2
563,2.31043,1.954,-1,2
564,2.31237,1.941,-1,2
565,2.31431,1.946,-1,2
566,2.31628,1.963,-1,2
567,2.31821,1.933,-1,2
568,2.32016,1.954,-1,2
569,2.32211,1.950,-1,2
570,2.32404,1.924,-1,2
571,2.32601,1.967,-1,2
572,2.32794,1.937,-1,2
573,2.32990,1.959,-1,2
574,2.33183,1.933,-1,2
575,2.33378,1.946,-1,2
576,2.33573,1.950,-1,2
577,2.33769,1.959,-1,2
578,2.33964,1.950,-1,2
579,2.34158,1.954,-1,2
580,2.34354,1.946,-1,2
581,2.34548,1.946,-1,2
582,2.34743,1.950,-1,2
583,2.34938,1.950,-1,2
584,2.35329,1.954,-1,2
585,2.35329,1.963,-1,2
586,2.35721,1.950,-1,2
587,2.35915,1.941,-1,2
588,2.36111,1.959,-1,2
589,2.36307,1.963,-1,2
590,2.36504,1.967,-1,2
591,2.36699,1.954,-1,2
592,2.36896,1.967,-1,2
593,2.37090,1.946,-1,2
594,2.37287,1.967,-1,2
595,2.37482,1.950,-1,2
596,2.37676,1.941,-1,2
597,2.37872,1.959,-1,2
598,2.38067,1.950,-1,2
599,2.38264,1.967,-1,2
600,2.38460,1.959,-1,2
601,2.38657,1.967,-1,2
602,2.38854,1.972,-1,2
603,2.39048,1.941,-1,2
604,2.39244,1.959,-1,2
605,2.39440,1.963,-1,2
606,2.39635,1.950,-1,2
607,2.39831,1.954,-1,2
608,2.40026,1.954,-1,2
609,2.40221,1.954,-1,2
610,2.40418,1.967,-1,2
611,2.40614,1.954,-1,2
612,2.40808,1.941,-1,2
613,2.41004,1.967,-1,2
614,2.41200,1.959,-1,2
615,2.41396,1.954,-1,2
616,2.41592,1.959,-1,2
617,2.41787,1.954,-1,2
618,2.41982,1.950,-1,2
619,2.42176,1.941,-1,2
620,2.42373,1.963,-1,2
621,2.42569,1.963,-1,2
622,2.42765,1.959,-1,2
623,2.42961,1.963,-1,2
624,2.43157,1.959,-1,2
625,2.43351,1.941,-1,2
626,2.43546,1.950,-1,2
627,2.43741,1.946,-1,2
628,2.43936,1.959,-1,2
629,2.44133,1.950,-1,2
630,2.44328,1.950,-1,2
631,2.44525,1.967,-1,2
632,2.44720,1.954,-1,2
633,2.44915,1.950,-1,2
634,2.45110,1.954,-1,2
635,2.45306,1.993,-1,2
636,2.45506,1.946,-1,2
637,2.45898,1.980,-1,2
638,2.46091,1.933,-1,2
639,2.46288,1.967,-1,2
640,2.46486,1.976,-1,2
641,2.46682,1.963,-1,2
642,2.46879,1.972,-1,2
643,2.47076,1.967,-1,2
644,2.47273,1.972,-1,2
645,2.47471,1.980,-1,2
646,2.47668,1.972,-1,2
647,2.47865,1.967,-1,2
648,2.48061,1.963,-1,2
649,2.48259,1.976,-1,2
650,2.48456,1.967,-1,2
651,2.48654,1.985,-1,2
652,2.48851,1.972,-1,2
653,2.49050,1.989,-1,2
654,2.49247,1.963,-1,2
655,2.49444,1.976,-1,2
656,2.49642,1.980,-1,2
657,2.49841,1.985,-1,2
658,2.50039,1.980,-1,2
659,2.50238,1.993,-1,2
660,2.50437,1.989,-1,2
661,2.50636,1.989,-1,2
662,2.50835,1.989,-1,2
663,2.51034,1.989,-1,2
664,2.51231,1.976,-1,2
665,2.51429,1.980,-1,2
666,2.51629,1.998,-1,2
667,2.51828,1.993,-1,2
668,2.52028,2.002,-1,2
669,2.52227,1.985,-1,2
670,2.52426,1.993,-1,2
671,2.52629,2.023,-1,2
672,2.52830,2.019,-1,2
673,2.53030,1.993,-1,2
674,2.53231,2.015,-1,2
675,2.53432,2.006,-1,2
676,2.53633,2.015,-1,2
677,2.53836,2.028,-1,2
678,2.54038,2.023,-1,2
679,2.54242,2.032,-1,2
680,2.54445,2.032,-1,2
681,2.54647,2.019,-1,2
682,2.54851,2.041,-1,2
683,2.55055,2.045,-1,2
684,2.55262,2.062,-1,2
685,2.55466,2.041,-1,2
686,2.55672,2.062,-1,2
687,2.55876,2.045,-1,2
688,2.56083,2.062,-1,2
689,2.56288,2.054,-1,2
690,2.56495,2.075,-1,2
691,2.56703,2.080,-1,2
692,2.56911,2.080,-1,2
693,2.57121,2.092,-1,2
694,2.57329,2.084,-1,2
695,2.57749,2.110,-1,2
696,2.57960,2.110,-1,2
697,2.58171,2.105,-1,2
698,2.58383,2.123,-1,2
699,2.58595,2.118,-1,2
700,2.58807,2.118,-1,2
701,2.59021,2.140,-1,2
702,2.59234,2.131,-1,2
703,2.59449,2.149,-1,2
704,2.59664,2.153,-1,2
705,2.59879,2.153,-1,2
706,2.60095,2.157,-1,2
707,2.60311,2.161,-1,2
708,2.60528,2.166,-1,2
709,2.60744,2.166,-1,2
710,2.60962,2.174,-1,2
711,2.61179,2.174,-1,2
712,2.61396,2.170,-1,2
713,2.61616,2.196,-1,2
714,2.61835,2.192,-1,2
715,2.62055,2.205,-1,2
716,2.62275,2.200,-1,2
717,2.62496,2.209,-1,2
718,2.62716,2.200,-1,2
719,2.62936,2.196,-1,2
720,2.63158,2.226,-1,2
721,2.63380,2.218,-1,2
722,2.63603,2.231,-1,2
723,2.63828,2.248,-1,2
724,2.64052,2.235,-1,2
725,2.64275,2.235,-1,2
726,2.64499,2.243,-1,2
727,2.64725,2.256,-1,2
728,2.64951,2.256,-1,2
729,2.65178,2.269,-1,2
730,2.65404,2.261,-1,2
731,2.65630,2.261,-1,2
732,2.65858,2.282,-1,2
733,2.66085,2.269,-1,2
734,2.66312,2.274,-1,2
735,2.66541,2.291,-1,2
736,2.66773,2.321,-1,2
737,2.67002,2.282,-1,2
738,2.67232,2.308,-1,2
739,2.67463,2.308,-1,2
740,2.67695,2.317,-1,2
741,2.67927,2.317,-1,2
742,2.68159,2.321,-1,2
743,2.68390,2.347,-1,2
744,2.68856,2.317,-1,2
745,2.69089,2.321,-1,2
746,2.69323,2.343,-1,2
747,2.69558,2.351,-1,2
748,2.69558,2.338,-1,2
749,2.69792,2.338,-1,2
750,2.70261,2.334,-1,2
751,2.70261,2.334,-1,2
752,2.70728,2.343,-1,2
753,2.70963,2.347,-1,2
754,2.71199,2.360,-1,2
755,2.71435,2.364,-1,2
756,2.71670,2.343,-1,2
757,2.71905,2.351,-1,2
758,2.72140,2.351,-1,2
759,2.72377,2.369,-1,2
760,2.72612,2.347,-1,2
761,2.72848,2.369,-1,2
762,2.73086,2.373,-1,2
763,2.73323,2.369,-1,2
764,2.73560,2.373,-1,2
765,2.73800,2.399,-1,2
766,2.74038,2.382,-1,2
767,2.74276,2.377,-1,2
768,2.74515,2.390,-1,2
769,2.74754,2.394,-1,2
770,2.74993,2.390,-1,2
771,2.75233,2.394,-1,2
772,2.75473,2.403,-1,2
773,2.75715,2.425,-1,2
774,2.75956,2.403,-1,2
775,2.76197,2.416,-1,2
776,2.76437,2.399,-1,2
777,2.76680,2.425,-1,2
778,2.76924,2.446,-1,2
779,2.77167,2.429,-1,2
780,2.77410,2.433,-1,2
781,2.77652,2.420,-1,2
782,2.77898,2.455,-1,2
783,2.78144,2.459,-1,2
784,2.78388,2.446,-1,2
785,2.78635,2.468,-1,2
786,2.78882,2.468,-1,2
787,2.79129,2.468,-1,2
788,2.79376,2.468,-1,2
789,2.79623,2.472,-1,2
790,2.79870,2.472,-1,2
791,2.80119,2.485,-1,2
792,2.80367,2.485,-1,2
793,2.80616,2.489,-1,2
794,2.80867,2.507,-1,2
795,2.81118,2.507,-1,2
796,2.81619,2.507,-1,2
797,2.81619,2.502,-1,2
798,2.81869,2.502,-1,2
799,2.82120,2.511,-1,2
800,2.82371,2.511,-1,2
801,2.82623,2.515,-1,2
802,2.83128,2.537,-1,2
803,2.83381,2.528,-1,2
804,2.83635,2.537,-1,2
805,2.83889,2.545,-1,2
806,2.84143,2.537,-1,2
807,2.84394,2.515,-1,2
808,2.84648,2.533,-1,2
809,2.84904,2.558,-1,2
810,2.85159,2.554,-1,2
811,2.85414,2.550,-1,2
812,2.85667,2.533,-1,2
813,2.85923,2.563,-1,2
814,2.86179,2.558,-1,2
815,2.86436,2.563,-1,2
816,2.86691,2.558,-1,2
817,2.86947,2.554,-1,2
818,2.87202,2.554,-1,2
819,2.87459,2.571,-1,2
820,2.87716,2.571,-1,2
821,2.87974,2.580,-1,2
822,2.88233,2.584,-1,2
823,2.88491,2.580,-1,2
824,2.88749,2.580,-1,2
825,2.89005,2.558,-1,2
826,2.89263,2.584,-1,2
827,2.89522,2.584,-1,2
828,2.89780,2.584,-1,2
829,2.90038,2.580,-1,2
830,2.90297,2.593,-1,2
831,2.90558,2.606,-1,2
832,2.90817,2.593,-1,2
833,2.91075,2.576,-1,2
834,2.91336,2.614,-1,2
835,2.91595,2.589,-1,2
836,2.91855,2.597,-1,2
837,2.92116,2.614,-1,2
838,2.92375,2.584,-1,2
839,2.92634,2.597,-1,2
840,2.92895,2.606,-1,2
841,2.93159,2.640,-1,2
842,2.93419,2.597,-1,2
843,2.93680,2.610,-1,2
844,2.93939,2.597,-1,2
845,2.94200,2.606,-1,2
846,2.94461,2.614,-1,2
847,2.94721,2.597,-1,2
848,2.94985,2.636,-1,2
849,2.95247,2.623,-1,2
850,2.95510,2.627,-1,2
851,2.95771,2.614,-1,2
852,2.96035,2.636,-1,2
853,2.96295,2.602,-1,2
854,2.96818,2.619,-1,2
855,2.97081,2.623,-1,2
856,2.97343,2.623,-1,2
857,2.97604,2.614,-1,2
858,2.97867,2.623,-1,2
859,2.98131,2.640,-1,2
860,2.98391,2.602,-1,2
861,2.98652,2.614,-1,2
862,2.98916,2.636,-1,2
863,2.99178,2.623,-1,2
864,2.99441,2.627,-1,2
865,2.99704,2.632,-1,2
866,2.99965,2.610,-1,2
867,3.00227,2.619,-1,2
868,3.00488,2.610,-1,2
869,3.00751,2.632,-1,2
870,3.01015,2.636,-1,2
871,3.01275,2.602,-1,2
872,3.01537,2.614,-1,2
873,3.01799,2.623,-1,2
