cnt,pos,speed,Dir,Force,
1,0,1.0016,-1,1
2,0.0010004,1.0008,-1,1
3,0.00199986,1.0018,-1,1
4,0.0030098,1.0044,-1,1
5,0.00401974,1.0054,-1,1
6,0.00502014,1.0046,-1,1
7,0.00603008,1.0064,-1,1
8,0.00704002,1.008,-1,1
9,0.00804043,1.0054,-1,1
10,0.00905037,1.0054,-1,1
11,0.0100498,1.0062,-1,1
12,0.0110502,1.0044,-1,1
13,0.0120697,1.0062,-1,1
14,0.0130701,1.007,-1,1
15,0.0140905,1.0094,-1,1
16,0.01509,1.0086,-1,1
17,0.0161104,1.012,-1,1
18,0.0171204,1.0102,-1,1
19,0.0181398,1.0128,-1,1
20,0.0191402,1.0094,-1,1
21,0.0201502,1.0102,-1,1
22,0.0211601,1.0102,-1,1
23,0.0221701,1.0102,-1,1
24,0.02318,1.0086,-1,1
25,0.0241899,1.0086,-1,1
26,0.0252104,1.013,-1,1
27,0.0262098,1.0096,-1,1
28,0.0272198,1.013,-1,1
29,0.0292397,1.0094,-1,1
30,0.0302601,1.0128,-1,1
31,0.03127,1.0094,-1,1
32,0.0322704,1.0094,-1,1
33,0.0332899,1.0094,-1,1
34,0.0342999,1.013,-1,1
35,0.0353003,1.0088,-1,1
36,0.0363197,1.0104,-1,1
37,0.0373201,1.0096,-1,1
38,0.0383205,1.0062,-1,1
39,0.03934,1.0078,-1,1
40,0.0403404,1.007,-1,1
41,0.0413303,1.0018,-1,1
42,0.0423298,1.0026,-1,1
43,0.0433502,1.0052,-1,1
44,0.0443401,1,-1,1
45,0.0453596,1.0034,-1,1
46,0.0463505,1.0034,-1,1
47,0.0473499,1.0034,-1,1
48,0.0483503,1,-1,1
49,0.0493402,1,-1,1
50,0.0503502,0.9982,-1,1
51,0.0513496,1,-1,1
52,0.0523405,0.9974,-1,1
53,0.05334,0.9974,-1,1
54,0.0543299,0.9984,-1,1
55,0.0553198,0.995,-1,1
56,0.0563202,0.995,-1,1
57,0.0572996,0.9976,-1,1
58,0.0583,0.9932,-1,1
59,0.0602798,0.994,-1,1
60,0.0602798,0.9922,-1,1
61,0.0612602,0.9896,-1,1
62,0.0622501,0.987,-1,1
63,0.06322,0.9854,-1,1
64,0.0651798,0.9794,-1,1
65,0.0661802,0.983,-1,1
66,0.0671597,0.9804,-1,1
67,0.0681505,0.9822,-1,1
68,0.0691204,0.9812,-1,1
69,0.0701199,0.9864,-1,1
70,0.0710802,0.9794,-1,1
71,0.0720596,0.9812,-1,1
72,0.0730305,0.975,-1,1
73,0.0740204,0.9794,-1,1
74,0.0749798,0.9724,-1,1
75,0.0759497,0.9742,-1,1
76,0.0769005,0.9672,-1,1
77,0.0778704,0.969,-1,1
78,0.0788298,0.9664,-1,1
79,0.0798101,0.969,-1,1
80,0.0807705,0.969,-1,1
81,0.0817404,0.9734,-1,1
82,0.0826797,0.9726,-1,1
83,0.08459,0.9658,-1,1
84,0.0855303,0.959,-1,1
85,0.0865002,0.959,-1,1
86,0.0874405,0.952,-1,1
87,0.0883904,0.9476,-1,1
88,0.0893297,0.9466,-1,1
89,0.0902901,0.9508,-1,1
90,0.0912104,0.9412,-1,1
91,0.0921297,0.9378,-1,1
92,0.0930805,0.9386,-1,1
93,0.0940104,0.937,-1,1
94,0.0949602,0.9336,-1,1
95,0.0958605,0.9302,-1,1
96,0.0967903,0.931,-1,1
97,0.0977097,0.9208,-1,1
98,0.0986099,0.9156,-1,1
99,0.0995302,0.9096,-1,1
100,0.100471,0.9174,-1,1
101,0.10138,0.914,-1,1
102,0.10229,0.9166,-1,1
103,0.10321,0.92,-1,1
104,0.10412,0.9182,-1,1
105,0.105021,0.9096,-1,1
106,0.10592,0.9088,-1,1
107,0.10681,0.9044,-1,1
108,0.10771,0.8992,-1,1
109,0.10859,0.8958,-1,1
110,0.10949,0.894,-1,1
111,0.11037,0.8904,-1,1
112,0.11125,0.8878,-1,1
113,0.11215,0.8878,-1,1
114,0.11303,0.8868,-1,1
115,0.1139,0.8816,-1,1
116,0.11478,0.8808,-1,1
117,0.11564,0.8766,-1,1
118,0.11651,0.8722,-1,1
119,0.11738,0.8696,-1,1
120,0.11823,0.8662,-1,1
121,0.1191,0.8644,-1,1
122,0.11996,0.8644,-1,1
123,0.120811,0.861,-1,1
124,0.12168,0.8594,-1,1
125,0.12252,0.8586,-1,1
126,0.12338,0.8552,-1,1
127,0.1242,0.849,-1,1
128,0.125051,0.8474,-1,1
129,0.12589,0.8422,-1,1
130,0.12672,0.8396,-1,1
131,0.12757,0.8388,-1,1
132,0.1284,0.8388,-1,1
133,0.13007,0.8352,-1,1
134,0.13089,0.8308,-1,1
135,0.131721,0.8308,-1,1
136,0.13253,0.823,-1,1
137,0.13335,0.8222,-1,1
138,0.134171,0.8196,-1,1
139,0.13498,0.818,-1,1
140,0.1358,0.8162,-1,1
141,0.13659,0.8128,-1,1
142,0.13742,0.8128,-1,1
143,0.1382,0.8068,-1,1
144,0.13901,0.8058,-1,1
145,0.1398,0.7998,-1,1
146,0.14059,0.7998,-1,1
147,0.14141,0.7972,-1,1
148,0.14219,0.7972,-1,1
149,0.14298,0.7938,-1,1
150,0.14377,0.7946,-1,1
151,0.14455,0.7902,-1,1
152,0.14535,0.7894,-1,1
153,0.14612,0.7852,-1,1
154,0.14689,0.7836,-1,1
155,0.14768,0.782,-1,1
156,0.14845,0.7812,-1,1
157,0.14923,0.776,-1,1
158,0.15,0.7776,-1,1
159,0.15075,0.7714,-1,1
160,0.15153,0.7688,-1,1
161,0.15227,0.7636,-1,1
162,0.15302,0.7576,-1,1
163,0.15379,0.7576,-1,1
164,0.15454,0.7586,-1,1
165,0.15528,0.7516,-1,1
166,0.15604,0.755,-1,1
167,0.15679,0.754,-1,1
168,0.15754,0.7488,-1,1
169,0.15829,0.7496,-1,1
170,0.15903,0.7488,-1,1
171,0.15977,0.7446,-1,1
172,0.160501,0.743,-1,1
173,0.16123,0.7396,-1,1
174,0.16197,0.7352,-1,1
175,0.16271,0.736,-1,1
176,0.16343,0.7324,-1,1
177,0.16415,0.7288,-1,1
178,0.16489,0.7314,-1,1
179,0.16561,0.7288,-1,1
180,0.16632,0.721,-1,1
181,0.16705,0.7236,-1,1
182,0.16776,0.7212,-1,1
183,0.16918,0.7134,-1,1
184,0.16918,0.7152,-1,1
185,0.16991,0.7204,-1,1
186,0.1706,0.7128,-1,1
187,0.17132,0.7152,-1,1
188,0.17202,0.7144,-1,1
189,0.17273,0.7066,-1,1
190,0.17413,0.7032,-1,1
191,0.17482,0.7014,-1,1
192,0.17552,0.6972,-1,1
193,0.1762,0.6928,-1,1
194,0.17689,0.6928,-1,1
195,0.17756,0.6858,-1,1
196,0.17825,0.6858,-1,1
197,0.17894,0.684,-1,1
198,0.17961,0.6832,-1,1
199,0.18029,0.6806,-1,1
200,0.18096,0.679,-1,1
201,0.18166,0.6816,-1,1
202,0.18232,0.6764,-1,1
203,0.182981,0.6738,-1,1
204,0.183661,0.6748,-1,1
205,0.18432,0.6722,-1,1
206,0.18498,0.6652,-1,1
207,0.18564,0.6636,-1,1
208,0.18696,0.661,-1,1
209,0.18761,0.6548,-1,1
210,0.18828,0.6574,-1,1
211,0.18891,0.6524,-1,1
212,0.18957,0.6524,-1,1
213,0.19023,0.6542,-1,1
214,0.19086,0.6518,-1,1
215,0.1915,0.6458,-1,1
216,0.19216,0.6492,-1,1
217,0.19279,0.6448,-1,1
218,0.19342,0.6396,-1,1
219,0.19404,0.636,-1,1
220,0.19469,0.6368,-1,1
221,0.19532,0.6324,-1,1
222,0.19594,0.629,-1,1
223,0.19658,0.6316,-1,1
224,0.19719,0.63,-1,1
225,0.1978,0.623,-1,1
226,0.19843,0.6214,-1,1
227,0.19905,0.6222,-1,1
228,0.19966,0.6152,-1,1
229,0.20029,0.6194,-1,1
230,0.2009,0.6186,-1,1
231,0.20151,0.616,-1,1
232,0.20212,0.6144,-1,1
233,0.20273,0.6154,-1,1
234,0.20333,0.6086,-1,1
235,0.20393,0.6068,-1,1
236,0.20454,0.6068,-1,1
237,0.20514,0.605,-1,1
238,0.20574,0.6006,-1,1
239,0.20635,0.6032,-1,1
240,0.20694,0.6032,-1,1
241,0.207541,0.5996,-1,1
242,0.20816,0.6022,-1,1
243,0.20874,0.6004,-1,1
244,0.20932,0.5942,-1,1
245,0.20992,0.5942,-1,1
246,0.2105,0.5916,-1,1
247,0.211081,0.5838,-1,1
248,0.21166,0.5848,-1,1
249,0.21225,0.5866,-1,1
250,0.21284,0.585,-1,1
251,0.21342,0.5842,-1,1
252,0.21402,0.5886,-1,1
253,0.21459,0.586,-1,1
254,0.21517,0.5826,-1,1
255,0.21575,0.5826,-1,1
256,0.21634,0.5852,-1,1
257,0.21692,0.58,-1,1
258,0.21748,0.5774,-1,1
259,0.218081,0.5834,-1,1
260,0.21865,0.5798,-1,1
261,0.21922,0.5746,-1,1
262,0.21981,0.578,-1,1
263,0.22039,0.5822,-1,1
264,0.22095,0.5736,-1,1
265,0.22152,0.5736,-1,1
266,0.22211,0.5788,-1,1
267,0.22268,0.5736,-1,1
268,0.22324,0.5694,-1,1
269,0.22382,0.5728,-1,1
270,0.22439,0.5738,-1,1
271,0.22496,0.566,-1,1
272,0.22551,0.5634,-1,1
273,0.22609,0.5668,-1,1
274,0.22666,0.565,-1,1
275,0.227221,0.5624,-1,1
276,0.22778,0.5634,-1,1
277,0.22836,0.5686,-1,1
278,0.22947,0.5634,-1,1
279,0.22947,0.5644,-1,1
280,0.23062,0.566,-1,1
281,0.23118,0.5668,-1,1
282,0.23118,0.5608,-1,1
283,0.23228,0.5618,-1,1
284,0.23228,0.5584,-1,1
285,0.232841,0.556,-1,1
286,0.2334,0.5552,-1,1
287,0.23397,0.557,-1,1
288,0.23509,0.5586,-1,1
289,0.235661,0.5602,-1,1
290,0.23621,0.5592,-1,1
291,0.23621,0.5574,-1,1
292,0.23676,0.5556,-1,1
293,0.23734,0.5582,-1,1
294,0.23789,0.5566,-1,1
295,0.23845,0.5576,-1,1
296,0.239,0.5584,-1,1
297,0.23956,0.5602,-1,1
298,0.24012,0.5568,-1,1
299,0.24068,0.5576,-1,1
300,0.24123,0.5558,-1,1
301,0.24178,0.5558,-1,1
302,0.24234,0.5558,-1,1
303,0.2429,0.5566,-1,1
304,0.24347,0.5574,-1,1
305,0.24402,0.5582,-1,1
306,0.24457,0.5582,-1,1
307,0.245131,0.5582,-1,1
308,0.24569,0.5574,-1,1
309,0.24624,0.554,-1,1
310,0.2468,0.555,-1,1
311,0.24735,0.555,-1,1
312,0.2479,0.555,-1,1
313,0.24847,0.5566,-1,1
314,0.24903,0.5592,-1,1
315,0.24957,0.5556,-1,1
316,0.25012,0.554,-1,1
317,0.25069,0.5564,-1,1
318,0.25123,0.5522,-1,1
319,0.251781,0.5488,-1,1
320,0.25233,0.5524,-1,1
321,0.25288,0.5524,-1,1
322,0.25344,0.5508,-1,1
323,0.25398,0.55,-1,1
324,0.25453,0.5508,-1,1
325,0.25508,0.5498,-1,1
326,0.25564,0.5524,-1,1
327,0.2562,0.5516,-1,1
328,0.25674,0.5524,-1,1
329,0.25728,0.5506,-1,1
330,0.25784,0.5524,-1,1
331,0.25839,0.5506,-1,1
332,0.25895,0.5506,-1,1
333,0.25949,0.5488,-1,1
334,0.26005,0.554,-1,1
335,0.2606,0.5506,-1,1
336,0.26114,0.5498,-1,1
337,0.26169,0.548,-1,1
338,0.26225,0.5524,-1,1
339,0.26278,0.5456,-1,1
340,0.26332,0.5446,-1,1
341,0.26388,0.548,-1,1
342,0.264421,0.5472,-1,1
343,0.26496,0.542,-1,1
344,0.2655,0.5446,-1,1
345,0.26607,0.5498,-1,1
346,0.2666,0.5438,-1,1
347,0.26715,0.5454,-1,1
348,0.26769,0.5462,-1,1
349,0.26825,0.5496,-1,1
350,0.26879,0.5454,-1,1
351,0.26933,0.547,-1,1
352,0.26988,0.5462,-1,1
353,0.27043,0.548,-1,1
354,0.27096,0.5428,-1,1
355,0.2715,0.541,-1,1
356,0.27206,0.5454,-1,1
357,0.27259,0.542,-1,1
358,0.27313,0.5402,-1,1
359,0.27366,0.5394,-1,1
360,0.27422,0.5438,-1,1
361,0.27475,0.5386,-1,1
362,0.27528,0.5376,-1,1
363,0.27582,0.5386,-1,1
364,0.276361,0.5394,-1,1
365,0.27688,0.5332,-1,1
366,0.277411,0.5314,-1,1
367,0.27796,0.5366,-1,1
368,0.27849,0.533,-1,1
369,0.27901,0.5312,-1,1
370,0.27954,0.5304,-1,1
371,0.28008,0.5348,-1,1
372,0.28061,0.5288,-1,1
373,0.28113,0.528,-1,1
374,0.28167,0.5306,-1,1
375,0.2822,0.5332,-1,1
376,0.28273,0.528,-1,1
377,0.28325,0.5288,-1,1
378,0.28378,0.5296,-1,1
379,0.28431,0.5288,-1,1
380,0.28483,0.5262,-1,1
381,0.28536,0.5262,-1,1
382,0.2859,0.5298,-1,1
383,0.28642,0.529,-1,1
384,0.28695,0.5272,-1,1
385,0.28747,0.5264,-1,1
386,0.28801,0.5316,-1,1
387,0.28853,0.5264,-1,1
388,0.28906,0.5282,-1,1
389,0.28959,0.5292,-1,1
390,0.29012,0.5318,-1,1
391,0.29065,0.5266,-1,1
392,0.29117,0.5274,-1,1
393,0.29171,0.529,-1,1
394,0.29225,0.5306,-1,1
395,0.29277,0.5296,-1,1
396,0.2933,0.5314,-1,1
397,0.29385,0.5358,-1,1
398,0.29439,0.5368,-1,1
399,0.29493,0.5368,-1,1
400,0.29546,0.5378,-1,1
401,0.296021,0.543,-1,1
402,0.29656,0.5438,-1,1
403,0.2971,0.5428,-1,1
404,0.29764,0.5428,-1,1
405,0.29819,0.5462,-1,1
406,0.29875,0.5462,-1,1
407,0.29929,0.5454,-1,1
408,0.29985,0.5498,-1,1
409,0.30041,0.5524,-1,1
410,0.30097,0.5566,-1,1
411,0.30152,0.5548,-1,1
412,0.30208,0.5582,-1,1
413,0.30264,0.5582,-1,1
414,0.3032,0.5582,-1,1
415,0.303761,0.5574,-1,1
416,0.30433,0.5608,-1,1
417,0.3049,0.5634,-1,1
418,0.30547,0.566,-1,1
419,0.30604,0.5694,-1,1
420,0.30661,0.5702,-1,1
421,0.30719,0.5728,-1,1
422,0.30778,0.5754,-1,1
423,0.30835,0.5744,-1,1
424,0.30892,0.5754,-1,1
425,0.3095,0.5772,-1,1
426,0.31009,0.5806,-1,1
427,0.31068,0.5796,-1,1
428,0.31127,0.584,-1,1
429,0.311851,0.5848,-1,1
430,0.31245,0.59,-1,1
431,0.31305,0.591,-1,1
432,0.31365,0.5946,-1,1
433,0.31422,0.5912,-1,1
434,0.31482,0.5946,-1,1
435,0.31541,0.5912,-1,1
436,0.31601,0.5912,-1,1
437,0.3166,0.5902,-1,1
438,0.3172,0.5944,-1,1
439,0.317801,0.5954,-1,1
440,0.31841,0.6006,-1,1
441,0.31901,0.6014,-1,1
442,0.31961,0.6024,-1,1
443,0.3202,0.6008,-1,1
444,0.32082,0.6042,-1,1
445,0.32144,0.6068,-1,1
446,0.32203,0.6042,-1,1
447,0.32264,0.6058,-1,1
448,0.32325,0.611,-1,1
449,0.32387,0.6102,-1,1
450,0.324471,0.605,-1,1
451,0.32507,0.6084,-1,1
452,0.3257,0.612,-1,1
453,0.32631,0.612,-1,1
454,0.32693,0.612,-1,1
455,0.32754,0.6146,-1,1
456,0.32816,0.6172,-1,1
457,0.32877,0.6146,-1,1
458,0.32938,0.6146,-1,1
459,0.33001,0.6162,-1,1
460,0.33063,0.6188,-1,1
461,0.33124,0.6162,-1,1
462,0.33187,0.6204,-1,1
463,0.3325,0.6238,-1,1
464,0.33312,0.6222,-1,1
465,0.33374,0.6222,-1,1
466,0.33438,0.6248,-1,1
467,0.33563,0.624,-1,1
468,0.33628,0.6282,-1,1
469,0.3369,0.6298,-1,1
470,0.33753,0.6306,-1,1
471,0.338181,0.635,-1,1
472,0.33882,0.6368,-1,1
473,0.33945,0.6326,-1,1
474,0.34008,0.6362,-1,1
475,0.34073,0.6388,-1,1
476,0.34137,0.6388,-1,1
477,0.34202,0.6404,-1,1
478,0.34266,0.643,-1,1
479,0.3433,0.6438,-1,1
480,0.34395,0.6454,-1,1
481,0.34461,0.647,-1,1
482,0.34524,0.6454,-1,1
483,0.345881,0.6446,-1,1
484,0.34655,0.6498,-1,1
485,0.34719,0.6482,-1,1
486,0.34784,0.6474,-1,1
487,0.34851,0.6542,-1,1
488,0.34917,0.6584,-1,1
489,0.34984,0.6574,-1,1
490,0.35051,0.6634,-1,1
491,0.351171,0.6652,-1,1
492,0.35184,0.6652,-1,1
493,0.35251,0.6678,-1,1
494,0.35318,0.6688,-1,1
495,0.35387,0.6714,-1,1
496,0.35455,0.6756,-1,1
497,0.35523,0.6774,-1,1
498,0.35592,0.6808,-1,1
499,0.35661,0.685,-1,1
500,0.35729,0.6842,-1,1
501,0.35799,0.6886,-1,1
502,0.35866,0.6868,-1,1
503,0.35936,0.6878,-1,1
504,0.36006,0.6904,-1,1
505,0.36075,0.693,-1,1
506,0.36146,0.6938,-1,1
507,0.36217,0.7024,-1,1
508,0.36287,0.7032,-1,1
509,0.36358,0.705,-1,1
510,0.3643,0.71,-1,1
511,0.36502,0.7118,-1,1
512,0.36573,0.711,-1,1
513,0.36646,0.717,-1,1
514,0.36717,0.7178,-1,1
515,0.36789,0.7178,-1,1
516,0.36864,0.7256,-1,1
517,0.36937,0.7282,-1,1
518,0.37085,0.7326,-1,1
519,0.37159,0.736,-1,1
520,0.37232,0.7378,-1,1
521,0.37232,0.7394,-1,1
522,0.37308,0.7428,-1,1
523,0.37456,0.7418,-1,1
524,0.37533,0.7488,-1,1
525,0.37609,0.754,-1,1
526,0.37685,0.755,-1,1
527,0.37763,0.7628,-1,1
528,0.37839,0.7646,-1,1
529,0.37915,0.7638,-1,1
530,0.37993,0.769,-1,1
531,0.38071,0.7716,-1,1
532,0.38148,0.7698,-1,1
533,0.38226,0.775,-1,1
534,0.38307,0.7844,-1,1
535,0.38465,0.7886,-1,1
536,0.38547,0.7962,-1,1
537,0.38626,0.7998,-1,1
538,0.38705,0.8024,-1,1
539,0.38787,0.8032,-1,1
540,0.38868,0.8058,-1,1
541,0.38949,0.8032,-1,1
542,0.39031,0.81,-1,1
543,0.39112,0.8134,-1,1
544,0.39195,0.8152,-1,1
545,0.39277,0.8178,-1,1
546,0.3936,0.823,-1,1
547,0.39443,0.8238,-1,1
548,0.39529,0.8264,-1,1
549,0.39612,0.8264,-1,1
550,0.39696,0.829,-1,1
551,0.3978,0.8308,-1,1
552,0.39865,0.8352,-1,1
553,0.3995,0.8404,-1,1
554,0.40036,0.8456,-1,1
555,0.4012,0.8474,-1,1
556,0.402081,0.8526,-1,1
557,0.40294,0.8552,-1,1
558,0.40382,0.862,-1,1
559,0.40469,0.8654,-1,1
560,0.40555,0.868,-1,1
561,0.40644,0.8722,-1,1
562,0.40731,0.873,-1,1
563,0.4082,0.8748,-1,1
564,0.40909,0.8792,-1,1
565,0.40998,0.886,-1,1
566,0.41089,0.8896,-1,1
567,0.41179,0.8966,-1,1
568,0.4127,0.9,-1,1
569,0.4136,0.9016,-1,1
570,0.41451,0.906,-1,1
571,0.41541,0.905,-1,1
572,0.41635,0.9118,-1,1
573,0.41726,0.9128,-1,1
574,0.41819,0.9198,-1,1
575,0.4191,0.9172,-1,1
576,0.42004,0.9208,-1,1
577,0.4219,0.9218,-1,1
578,0.42283,0.9252,-1,1
579,0.42283,0.927,-1,1
580,0.42377,0.9348,-1,1
581,0.42471,0.9408,-1,1
582,0.42661,0.945,-1,1
583,0.42755,0.9468,-1,1
584,0.4285,0.9492,-1,1
585,0.42945,0.9508,-1,1
586,0.43042,0.955,-1,1
587,0.43137,0.9532,-1,1
588,0.43235,0.96,-1,1
589,0.4333,0.96,-1,1
590,0.43427,0.9626,-1,1
591,0.43524,0.9626,-1,1
592,0.43622,0.9688,-1,1
593,0.43717,0.9644,-1,1
594,0.43815,0.9688,-1,1
595,0.43912,0.9706,-1,1
596,0.4401,0.9724,-1,1
597,0.4411,0.9758,-1,1
598,0.44207,0.9794,-1,1
599,0.44305,0.9812,-1,1
600,0.44404,0.9838,-1,1
601,0.44505,0.9898,-1,1
602,0.44603,0.9864,-1,1
603,0.44701,0.988,-1,1
604,0.44802,0.994,-1,1
605,0.44901,0.994,-1,1
606,0.45002,0.994,-1,1
607,0.45102,0.9974,-1,1
608,0.45202,1.0018,-1,1
609,0.45303,1.0018,-1,1
610,0.45405,1.0086,-1,1
611,0.45507,1.0112,-1,1
612,0.45607,1.0104,-1,1
613,0.45708,1.0122,-1,1
614,0.4581,1.013,-1,1
615,0.45912,1.0122,-1,1
616,0.46012,1.0096,-1,1
617,0.46114,1.0138,-1,1
618,0.46217,1.0172,-1,1
619,0.463181,1.0156,-1,1
620,0.46422,1.0208,-1,1
621,0.46523,1.0218,-1,1
622,0.46626,1.0244,-1,1
623,0.46728,1.0226,-1,1
624,0.46831,1.0268,-1,1
625,0.46935,1.025,-1,1
626,0.47036,1.0266,-1,1
627,0.47141,1.0292,-1,1
628,0.47244,1.0326,-1,1
629,0.47349,1.036,-1,1
630,0.47451,1.0334,-1,1
631,0.47557,1.0404,-1,1
632,0.4766,1.0378,-1,1
633,0.47765,1.0414,-1,1
634,0.47869,1.0398,-1,1
635,0.47973,1.0408,-1,1
636,0.48076,1.0408,-1,1
637,0.48287,1.046,-1,1
638,0.48287,1.045,-1,1
639,0.48392,1.0466,-1,1
640,0.48498,1.0544,-1,1
641,0.4871,1.0586,-1,1
642,0.48814,1.0552,-1,1
643,0.48921,1.0588,-1,1
644,0.49026,1.0588,-1,1
645,0.49133,1.0604,-1,1
646,0.49238,1.0562,-1,1
647,0.49344,1.0596,-1,1
648,0.49449,1.057,-1,1
649,0.49556,1.0606,-1,1
650,0.49662,1.058,-1,1
651,0.49769,1.0614,-1,1
652,0.49878,1.0684,-1,1
653,0.49983,1.0684,-1,1
654,0.50092,1.0718,-1,1
655,0.50198,1.0728,-1,1
656,0.50307,1.0772,-1,1
657,0.50414,1.071,-1,1
658,0.50522,1.0778,-1,1
659,0.50629,1.0744,-1,1
660,0.50737,1.0778,-1,1
661,0.50953,1.0768,-1,1
662,0.51061,1.0804,-1,1
663,0.51169,1.0788,-1,1
664,0.51276,1.0814,-1,1
665,0.51386,1.084,-1,1
666,0.51493,1.0806,-1,1
667,0.51602,1.0832,-1,1
668,0.51711,1.0858,-1,1
669,0.5182,1.0884,-1,1
670,0.51929,1.0866,-1,1
671,0.520391,1.0918,-1,1
672,0.52148,1.0918,-1,1
673,0.52257,1.0908,-1,1
674,0.52367,1.0932,-1,1
675,0.52475,1.0916,-1,1
676,0.52588,1.0994,-1,1
677,0.52696,1.0968,-1,1
678,0.52806,1.0986,-1,1
679,0.529181,1.0962,-1,1
680,0.53138,1.103,-1,1
681,0.53248,1.0952,-1,1
682,0.53359,1.1012,-1,1
683,0.53468,1.1012,-1,1
684,0.53468,1.1046,-1,1
685,0.53579,1.1038,-1,1
686,0.53688,1.103,-1,1
687,0.53799,1.1038,-1,1
688,0.5391,1.1054,-1,1
689,0.5402,1.1036,-1,1
690,0.5413,1.1026,-1,1
691,0.54241,1.105,-1,1
692,0.54351,1.1032,-1,1
693,0.54463,1.105,-1,1
694,0.54572,1.1034,-1,1
695,0.54683,1.106,-1,1
696,0.54793,1.1036,-1,1
697,0.54905,1.1072,-1,1
698,0.55015,1.1046,-1,1
699,0.55126,1.1088,-1,1
700,0.552361,1.1054,-1,1
701,0.55347,1.1096,-1,1
702,0.55458,1.107,-1,1
703,0.55569,1.1088,-1,1
704,0.5568,1.108,-1,1
705,0.55791,1.1098,-1,1
706,0.559011,1.103,-1,1
707,0.56009,1.097,-1,1
708,0.56121,1.0926,-1,1
709,0.56341,1.0934,-1,1
710,0.56451,1.0924,-1,1
711,0.56561,1.0958,-1,1
712,0.56672,1.1018,-1,1
713,0.56781,1.1028,-1,1
714,0.56893,1.1046,-1,1
715,0.57002,1.103,-1,1
716,0.57113,1.1046,-1,1
717,0.57222,1.1002,-1,1
718,0.57332,1.1018,-1,1
719,0.57441,1.0966,-1,1
720,0.57551,1.0966,-1,1
721,0.5766,1.095,-1,1
722,0.5777,1.0976,-1,1
723,0.5788,1.0976,-1,1
724,0.5799,1.0976,-1,1
725,0.581,1.0976,-1,1
726,0.58209,1.0968,-1,1
727,0.58319,1.0968,-1,1
728,0.58428,1.096,-1,1
729,0.58537,1.0952,-1,1
730,0.58647,1.0944,-1,1
731,0.58756,1.0944,-1,1
732,0.58864,1.0918,-1,1
733,0.58973,1.09,-1,1
734,0.59083,1.0916,-1,1
735,0.59191,1.089,-1,1
736,0.59301,1.0898,-1,1
737,0.5941,1.0908,-1,1
738,0.595181,1.09,-1,1
739,0.59627,1.0874,-1,1
740,0.59736,1.09,-1,1
741,0.59846,1.0908,-1,1
742,0.59955,1.0908,-1,1
743,0.60063,1.089,-1,1
744,0.60172,1.0908,-1,1
745,0.6028,1.0872,-1,1
746,0.60387,1.083,-1,1
747,0.60497,1.0838,-1,1
748,0.60605,1.0848,-1,1
749,0.60711,1.0788,-1,1
750,0.60821,1.0824,-1,1
751,0.6093,1.085,-1,1
752,0.61038,1.0816,-1,1
753,0.61145,1.0806,-1,1
754,0.61253,1.0832,-1,1
755,0.61361,1.0806,-1,1
756,0.61469,1.078,-1,1
757,0.61576,1.077,-1,1
758,0.61685,1.0796,-1,1
759,0.61792,1.0778,-1,1
760,0.619,1.0778,-1,1
761,0.62007,1.0778,-1,1
762,0.621161,1.0804,-1,1
763,0.622231,1.077,-1,1
764,0.62332,1.0814,-1,1
765,0.62439,1.0788,-1,1
766,0.62547,1.0796,-1,1
767,0.62654,1.0754,-1,1
768,0.62762,1.0736,-1,1
769,0.62868,1.071,-1,1
770,0.63083,1.0726,-1,1
771,0.63083,1.0708,-1,1
772,0.6319,1.076,-1,1
773,0.633,1.0822,-1,1
774,0.63514,1.0838,-1,1
775,0.63514,1.0822,-1,1
776,0.63728,1.0822,-1,1
777,0.63835,1.0778,-1,1
778,0.63943,1.0752,-1,1
779,0.640491,1.0692,-1,1
780,0.64157,1.0718,-1,1
781,0.64262,1.0666,-1,1
782,0.6437,1.0692,-1,1
783,0.64477,1.0674,-1,1
784,0.64584,1.0708,-1,1
785,0.64691,1.0682,-1,1
786,0.64798,1.0734,-1,1
787,0.64906,1.0726,-1,1
788,0.65011,1.0692,-1,1
789,0.65118,1.0684,-1,1
790,0.65225,1.0674,-1,1
791,0.65331,1.0648,-1,1
792,0.65437,1.0622,-1,1
793,0.65543,1.0622,-1,1
794,0.6565,1.0622,-1,1
795,0.65754,1.0588,-1,1
796,0.65862,1.0624,-1,1
797,0.65966,1.058,-1,1
798,0.66073,1.0606,-1,1
799,0.66177,1.0554,-1,1
800,0.66283,1.0588,-1,1
801,0.66387,1.0536,-1,1
802,0.66492,1.0554,-1,1
803,0.66599,1.0562,-1,1
804,0.66703,1.0554,-1,1
805,0.66809,1.0564,-1,1
806,0.6702,1.0564,-1,1
807,0.67124,1.0546,-1,1
808,0.67228,1.0476,-1,1
809,0.67333,1.0492,-1,1
810,0.67435,1.0414,-1,1
811,0.67539,1.0388,-1,1
812,0.67644,1.0388,-1,1
813,0.67747,1.0388,-1,1
814,0.67852,1.0398,-1,1
815,0.67955,1.0398,-1,1
816,0.68059,1.0398,-1,1
817,0.68161,1.0354,-1,1
818,0.68266,1.0372,-1,1
819,0.68367,1.0286,-1,1
820,0.6847,1.0302,-1,1
821,0.68573,1.0276,-1,1
822,0.68678,1.0328,-1,1
823,0.68779,1.0268,-1,1
824,0.68882,1.031,-1,1
825,0.68984,1.0268,-1,1
826,0.69086,1.0258,-1,1
827,0.69188,1.0198,-1,1
828,0.69291,1.0232,-1,1
829,0.69392,1.0198,-1,1
830,0.69497,1.0258,-1,1
831,0.695971,1.0224,-1,1
832,0.697001,1.025,-1,1
833,0.698,1.019,-1,1
834,0.69904,1.0242,-1,1
835,0.70004,1.0156,-1,1
836,0.70107,1.019,-1,1
837,0.70207,1.0182,-1,1
838,0.7031,1.0156,-1,1
