cnt,pos,speed,Dir,Force,
1,0,1.002,1,3
2,0.00101089,1.0054,1,3
3,0.00203037,1.0104,1,3
4,0.00307083,1.0172,1,3
5,0.0041008,1.0232,1,3
6,0.00513077,1.0258,1,3
7,0.00616074,1.0292,1,3
8,0.00723076,1.0388,1,3
9,0.00827026,1.0414,1,3
10,0.00931072,1.0432,1,3
11,0.0104103,1.0554,1,3
12,0.0114803,1.064,1,3
13,0.0125608,1.0658,1,3
14,0.0136404,1.0728,1,3
15,0.0147209,1.0814,1,3
16,0.01581,1.0814,1,3
17,0.0169001,1.084,1,3
18,0.0180101,1.09,1,3
19,0.0191107,1.095,1,3
20,0.0202503,1.1054,1,3
21,0.0213509,1.1078,1,3
22,0.0224905,1.119,1,3
23,0.0236206,1.1216,1,3
24,0.0247507,1.1286,1,3
25,0.0259008,1.1302,1,3
26,0.0270605,1.1416,1,3
27,0.0282106,1.1434,1,3
28,0.0293808,1.1536,1,3
29,0.0305405,1.1562,1,3
30,0.0317307,1.1658,1,3
31,0.0329008,1.1682,1,3
32,0.0341005,1.1776,1,3
33,0.0353107,1.1854,1,3
34,0.0364904,1.1896,1,3
35,0.0376902,1.1922,1,3
36,0.0388908,1.1984,1,3
37,0.0401306,1.2062,1,3
38,0.0413704,1.2114,1,3
39,0.0425806,1.2192,1,3
40,0.0438204,1.227,1,3
41,0.0450706,1.2356,1,3
42,0.0463209,1.2374,1,3
43,0.0475807,1.2418,1,3
44,0.0488405,1.2522,1,3
45,0.0500908,1.2582,1,3
46,0.0526304,1.2624,1,3
47,0.0539207,1.2718,1,3
48,0.0552206,1.2796,1,3
49,0.0565004,1.283,1,3
50,0.0578108,1.2898,1,3
51,0.0591307,1.3002,1,3
52,0.0604305,1.3012,1,3
53,0.0617504,1.3062,1,3
54,0.0630808,1.3158,1,3
55,0.0644007,1.3184,1,3
56,0.0657406,1.3218,1,3
57,0.0670805,1.3294,1,3
58,0.0684204,1.3338,1,3
59,0.0697803,1.3398,1,3
60,0.0711403,1.3468,1,3
61,0.0725107,1.353,1,3
62,0.0738802,1.3608,1,3
63,0.0752506,1.366,1,3
64,0.0766506,1.373,1,3
65,0.0780401,1.3798,1,3
66,0.0794306,1.385,1,3
67,0.0808201,1.3954,1,3
68,0.0822506,1.4066,1,3
69,0.0836506,1.409,1,3
70,0.0850801,1.416,1,3
71,0.0865107,1.4228,1,3
72,0.0879307,1.4228,1,3
73,0.0893602,1.4228,1,3
74,0.0908108,1.4306,1,3
75,0.0922508,1.434,1,3
76,0.0936909,1.4374,1,3
77,0.09517,1.4468,1,3
78,0.0966206,1.452,1,3
79,0.0980806,1.4556,1,3
80,0.0995607,1.4634,1,3
81,0.10105,1.4712,1,3
82,0.10253,1.4722,1,3
83,0.10402,1.48,1,3
84,0.10552,1.4876,1,3
85,0.107011,1.4884,1,3
86,0.108521,1.4944,1,3
87,0.11005,1.5038,1,3
88,0.11157,1.5098,1,3
89,0.113091,1.5142,1,3
90,0.11462,1.5228,1,3
91,0.11616,1.5272,1,3
92,0.11771,1.5316,1,3
93,0.119261,1.5368,1,3
94,0.12079,1.5394,1,3
95,0.12236,1.548,1,3
96,0.12393,1.5548,1,3
97,0.125521,1.5634,1,3
98,0.1271,1.5694,1,3
99,0.128691,1.5788,1,3
100,0.13029,1.585,1,3
101,0.131881,1.5894,1,3
102,0.13348,1.592,1,3
103,0.13508,1.5964,1,3
104,0.136721,1.606,1,3
105,0.13834,1.611,1,3
106,0.139991,1.6222,1,3
107,0.14161,1.6256,1,3
108,0.14326,1.6342,1,3
109,0.144911,1.6394,1,3
110,0.146561,1.6446,1,3
111,0.148251,1.6516,1,3
112,0.14992,1.6612,1,3
113,0.15159,1.6664,1,3
114,0.1533,1.6776,1,3
115,0.15499,1.6846,1,3
116,0.15668,1.6872,1,3
117,0.158401,1.6966,1,3
118,0.1601,1.7034,1,3
119,0.16182,1.7042,1,3
120,0.163541,1.711,1,3
121,0.16528,1.7196,1,3
122,0.167021,1.724,1,3
123,0.16876,1.731,1,3
124,0.17051,1.7388,1,3
125,0.17228,1.7476,1,3
126,0.17405,1.7536,1,3
127,0.175831,1.763,1,3
128,0.17761,1.7716,1,3
129,0.17941,1.7784,1,3
130,0.1812,1.7844,1,3
131,0.18478,1.7886,1,3
132,0.18478,1.792,1,3
133,0.188411,1.8014,1,3
134,0.188411,1.8102,1,3
135,0.19025,1.817,1,3
136,0.19392,1.8284,1,3
137,0.19392,1.8372,1,3
138,0.19577,1.8408,1,3
139,0.197611,1.8442,1,3
140,0.19946,1.8502,1,3
141,0.201321,1.8526,1,3
142,0.203191,1.8568,1,3
143,0.20507,1.8628,1,3
144,0.206941,1.8662,1,3
145,0.20882,1.8706,1,3
146,0.210711,1.8784,1,3
147,0.21261,1.8836,1,3
148,0.21452,1.8904,1,3
149,0.216431,1.8982,1,3
150,0.21833,1.9026,1,3
151,0.22025,1.9078,1,3
152,0.222171,1.913,1,3
153,0.22412,1.92,1,3
154,0.226061,1.926,1,3
155,0.22799,1.9328,1,3
156,0.22994,1.9372,1,3
157,0.2319,1.9458,1,3
158,0.233871,1.9492,1,3
159,0.235821,1.9526,1,3
160,0.237821,1.9656,1,3
161,0.23982,1.976,1,3
162,0.241791,1.9778,1,3
163,0.243771,1.9812,1,3
164,0.245761,1.9882,1,3
165,0.247781,1.9924,1,3
166,0.249801,1.9966,1,3
167,0.25183,2.0078,1,3
168,0.25386,2.0174,1,3
169,0.255911,2.0304,1,3
170,0.25796,2.0348,1,3
171,0.26,2.0392,1,3
172,0.262051,2.0452,1,3
173,0.264131,2.0546,1,3
174,0.2662,2.058,1,3
175,0.26828,2.065,1,3
176,0.27037,2.0744,1,3
177,0.27245,2.0788,1,3
178,0.27455,2.0848,1,3
179,0.276661,2.0926,1,3
180,0.27878,2.0994,1,3
181,0.2809,2.1054,1,3
182,0.28302,2.1148,1,3
183,0.28516,2.121,1,3
184,0.287291,2.1262,1,3
185,0.289431,2.1306,1,3
186,0.2916,2.1402,1,3
187,0.29376,2.1488,1,3
188,0.29594,2.1574,1,3
189,0.2981,2.1616,1,3
190,0.300281,2.1702,1,3
191,0.30245,2.171,1,3
192,0.30463,2.1728,1,3
193,0.30683,2.177,1,3
194,0.309031,2.1856,1,3
195,0.31124,2.1916,1,3
196,0.313451,2.2002,1,3
197,0.31569,2.2114,1,3
198,0.31793,2.22,1,3
199,0.320141,2.2218,1,3
200,0.322371,2.2262,1,3
201,0.324611,2.2322,1,3
202,0.32686,2.2348,1,3
203,0.329101,2.2348,1,3
204,0.331361,2.2452,1,3
205,0.333631,2.2512,1,3
206,0.3359,2.2574,1,3
207,0.33817,2.2616,1,3
208,0.340441,2.2668,1,3
209,0.34272,2.272,1,3
210,0.345011,2.2762,1,3
211,0.34729,2.2778,1,3
212,0.349581,2.283,1,3
213,0.351891,2.29,1,3
214,0.354191,2.2926,1,3
215,0.356501,2.2996,1,3
216,0.358821,2.3066,1,3
217,0.361131,2.31,1,3
218,0.36347,2.3168,1,3
219,0.36581,2.3254,1,3
220,0.36816,2.3314,1,3
221,0.37049,2.333,1,3
222,0.37283,2.3382,1,3
223,0.375171,2.3392,1,3
224,0.377521,2.3418,1,3
225,0.37989,2.3452,1,3
226,0.382251,2.3522,1,3
227,0.38461,2.3566,1,3
228,0.38695,2.3608,1,3
229,0.38932,2.3624,1,3
230,0.391701,2.365,1,3
231,0.394091,2.3718,1,3
232,0.396481,2.3786,1,3
233,0.39887,2.3822,1,3
234,0.40124,2.3848,1,3
235,0.403641,2.3882,1,3
236,0.406071,2.3952,1,3
237,0.40847,2.397,1,3
238,0.41088,2.403,1,3
239,0.41329,2.41,1,3
240,0.415701,2.4126,1,3
241,0.418131,2.4126,1,3
242,0.420561,2.417,1,3
243,0.422991,2.423,1,3
244,0.42786,2.4272,1,3
245,0.43031,2.4342,1,3
246,0.43276,2.4402,1,3
247,0.43523,2.4478,1,3
248,0.43766,2.447,1,3
249,0.440101,2.448,1,3
250,0.442571,2.4532,1,3
251,0.445041,2.4558,1,3
252,0.4475,2.455,1,3
253,0.44999,2.4644,1,3
254,0.45246,2.472,1,3
255,0.454941,2.4728,1,3
256,0.45742,2.4754,1,3
257,0.45993,2.485,1,3
258,0.46243,2.4884,1,3
259,0.464931,2.4928,1,3
260,0.467421,2.5032,1,3
261,0.47245,2.5084,1,3
262,0.47496,2.5092,1,3
263,0.47749,2.5144,1,3
264,0.480021,2.5204,1,3
265,0.482531,2.5186,1,3
266,0.485061,2.522,1,3
267,0.487611,2.5298,1,3
268,0.49017,2.535,1,3
269,0.49271,2.5384,1,3
270,0.495271,2.5462,1,3
271,0.497821,2.5522,1,3
272,0.50039,2.5556,1,3
273,0.50296,2.559,1,3
274,0.50553,2.5634,1,3
275,0.50811,2.5686,1,3
276,0.5107,2.5756,1,3
277,0.51329,2.5808,1,3
278,0.51589,2.5852,1,3
279,0.51848,2.5904,1,3
280,0.52108,2.5948,1,3
281,0.52369,2.5982,1,3
282,0.526291,2.6,1,3
283,0.528931,2.6086,1,3
284,0.531541,2.6128,1,3
285,0.53417,2.617,1,3
286,0.53682,2.6248,1,3
287,0.53944,2.6298,1,3
288,0.542081,2.629,1,3
289,0.544741,2.6386,1,3
290,0.54738,2.643,1,3
291,0.55004,2.6456,1,3
292,0.552711,2.6534,1,3
293,0.555361,2.6568,1,3
294,0.558021,2.6568,1,3
295,0.56068,2.6594,1,3
296,0.563371,2.6654,1,3
297,0.566051,2.668,1,3
298,0.56873,2.6732,1,3
299,0.571401,2.6758,1,3
300,0.57409,2.6818,1,3
301,0.576791,2.6844,1,3
302,0.579491,2.6878,1,3
303,0.58218,2.6904,1,3
304,0.58487,2.693,1,3
305,0.587561,2.6946,1,3
306,0.590281,2.6972,1,3
307,0.59298,2.699,1,3
308,0.595691,2.7016,1,3
309,0.5984,2.7076,1,3
310,0.60113,2.7138,1,3
311,0.603821,2.7086,1,3
312,0.606561,2.7146,1,3
313,0.609281,2.718,1,3
314,0.612,2.7198,1,3
315,0.614731,2.7206,1,3
316,0.617451,2.725,1,3
317,0.62018,2.7242,1,3
318,0.62292,2.7294,1,3
319,0.62565,2.7302,1,3
320,0.62841,2.7346,1,3
321,0.631141,2.7388,1,3
322,0.63387,2.7388,1,3
323,0.63661,2.737,1,3
324,0.63936,2.7404,1,3
325,0.64212,2.7428,1,3
326,0.64486,2.7428,1,3
327,0.6476,2.7454,1,3
328,0.650371,2.7514,1,3
329,0.65312,2.7532,1,3
330,0.65588,2.7516,1,3
331,0.658621,2.7526,1,3
332,0.661381,2.7552,1,3
333,0.664121,2.7518,1,3
334,0.66689,2.7544,1,3
335,0.66963,2.75,1,3
336,0.672371,2.7508,1,3
337,0.675151,2.7542,1,3
338,0.6779,2.7542,1,3
339,0.68064,2.7498,1,3
340,0.6834,2.7542,1,3
341,0.68614,2.7534,1,3
342,0.68891,2.7534,1,3
343,0.691661,2.7526,1,3
344,0.69441,2.7544,1,3
345,0.69719,2.7578,1,3
346,0.69991,2.7534,1,3
347,0.702661,2.75,1,3
348,0.705441,2.756,1,3
349,0.708191,2.7542,1,3
350,0.710931,2.7474,1,3
351,0.7137,2.7578,1,3
352,0.716451,2.7578,1,3
353,0.719211,2.7552,1,3
354,0.721971,2.757,1,3
355,0.72473,2.7604,1,3
356,0.72747,2.756,1,3
357,0.73023,2.7552,1,3
358,0.733001,2.757,1,3
359,0.735741,2.7544,1,3
360,0.738501,2.7544,1,3
361,0.74127,2.7588,1,3
362,0.74402,2.7588,1,3
363,0.74678,2.757,1,3
364,0.749511,2.7544,1,3
365,0.752251,2.75,1,3
366,0.755031,2.7526,1,3
367,0.757771,2.749,1,3
368,0.76054,2.7508,1,3
369,0.76325,2.7508,1,3
370,0.76875,2.7568,1,3
371,0.76875,2.7532,1,3
372,0.77147,2.7506,1,3
373,0.77418,2.7428,1,3
374,0.776911,2.7428,1,3
375,0.77966,2.7386,1,3
376,0.78236,2.7266,1,3
377,0.78507,2.724,1,3
378,0.787781,2.7196,1,3
379,0.790521,2.7204,1,3
380,0.79323,2.7144,1,3
381,0.795931,2.7136,1,3
382,0.79864,2.7128,1,3
383,0.801331,2.7094,1,3
384,0.804041,2.7042,1,3
385,0.80671,2.6964,1,3
386,0.809421,2.6972,1,3
387,0.8121,2.693,1,3
388,0.814791,2.6922,1,3
389,0.81748,2.6896,1,3
390,0.82017,2.6914,1,3
391,0.82283,2.682,1,3
392,0.8255,2.681,1,3
393,0.82818,2.6792,1,3
394,0.83084,2.6716,1,3
395,0.83353,2.6732,1,3
396,0.836181,2.6714,1,3
397,0.83882,2.6636,1,3
398,0.841491,2.662,1,3
399,0.84416,2.6628,1,3
400,0.84679,2.6516,1,3
401,0.849441,2.6516,1,3
402,0.852091,2.6534,1,3
403,0.854691,2.6386,1,3
404,0.857321,2.6326,1,3
405,0.85997,2.6352,1,3
406,0.862591,2.63,1,3
407,0.8652,2.6222,1,3
408,0.86781,2.6248,1,3
409,0.87042,2.6196,1,3
410,0.87302,2.611,1,3
411,0.87561,2.6042,1,3
412,0.87821,2.6016,1,3
413,0.880791,2.5964,1,3
414,0.883401,2.5964,1,3
415,0.88595,2.5852,1,3
416,0.88852,2.5826,1,3
417,0.89109,2.5766,1,3
418,0.893681,2.5766,1,3
419,0.896231,2.567,1,3
420,0.89877,2.5644,1,3
421,0.90133,2.5618,1,3
422,0.90388,2.5574,1,3
423,0.90641,2.5472,1,3
424,0.908951,2.543,1,3
425,0.911481,2.5422,1,3
426,0.914001,2.5344,1,3
427,0.91652,2.5294,1,3
428,0.91905,2.5232,1,3
429,0.92156,2.5162,1,3
430,0.926591,2.5126,1,3
431,0.9291,2.5092,1,3
432,0.93161,2.5074,1,3
433,0.934111,2.5066,1,3
434,0.93659,2.504,1,3
435,0.93908,2.4988,1,3
436,0.94157,2.4944,1,3
437,0.94406,2.491,1,3
438,0.94653,2.4858,1,3
439,0.949011,2.4832,1,3
440,0.95149,2.4806,1,3
441,0.953951,2.4754,1,3
442,0.95641,2.4684,1,3
443,0.95888,2.4684,1,3
444,0.96135,2.4668,1,3
445,0.9638,2.4634,1,3
446,0.96625,2.46,1,3
447,0.96868,2.4548,1,3
448,0.97113,2.4514,1,3
449,0.973591,2.4496,1,3
450,0.97603,2.4454,1,3
451,0.97846,2.4436,1,3
452,0.98089,2.4428,1,3
453,0.98332,2.4376,1,3
454,0.985761,2.4334,1,3
455,0.988191,2.4324,1,3
456,0.99061,2.4298,1,3
457,0.99304,2.429,1,3
458,0.995461,2.4282,1,3
459,0.99788,2.4238,1,3
460,1.0003,2.4222,1,3
461,1.00269,2.4162,1,3
462,1.0051,2.4126,1,3
463,1.0075,2.4082,1,3
464,1.00992,2.4074,1,3
465,1.01231,2.4004,1,3
466,1.01472,2.4048,1,3
467,1.0171,2.3998,1,3
468,1.01951,2.4006,1,3
469,1.02191,2.398,1,3
470,1.0243,2.398,1,3
471,1.02668,2.3928,1,3
472,1.02908,2.3952,1,3
473,1.03147,2.3926,1,3
474,1.03383,2.3856,1,3
475,1.03622,2.3848,1,3
476,1.0386,2.384,1,3
477,1.04098,2.3816,1,3
478,1.04339,2.3834,1,3
479,1.04574,2.3818,1,3
480,1.04811,2.3774,1,3
481,1.05048,2.3748,1,3
482,1.05284,2.3722,1,3
483,1.05523,2.3688,1,3
484,1.0576,2.3722,1,3
485,1.05998,2.3748,1,3
486,1.06234,2.3738,1,3
487,1.06471,2.3728,1,3
488,1.06708,2.3702,1,3
489,1.0718,2.3684,1,3
490,1.0718,2.3702,1,3
491,1.07656,2.372,1,3
492,1.07656,2.3704,1,3
493,1.08128,2.3686,1,3
494,1.08128,2.3686,1,3
495,1.08601,2.3652,1,3
496,1.08601,2.3626,1,3
497,1.08837,2.3634,1,3
498,1.09073,2.36,1,3
499,1.09308,2.361,1,3
500,1.09545,2.361,1,3
501,1.09781,2.3618,1,3
502,1.10018,2.3626,1,3
503,1.10256,2.3704,1,3
504,1.10491,2.366,1,3
505,1.10727,2.3634,1,3
506,1.10963,2.3644,1,3
507,1.11198,2.3618,1,3
508,1.11438,2.3634,1,3
509,1.11674,2.3668,1,3
510,1.11909,2.3642,1,3
511,1.12143,2.3598,1,3
512,1.12381,2.3642,1,3
513,1.12615,2.354,1,3
514,1.12852,2.3558,1,3
515,1.13089,2.36,1,3
516,1.13325,2.3634,1,3
517,1.13561,2.36,1,3
518,1.13797,2.3642,1,3
519,1.14032,2.3598,1,3
520,1.14271,2.3642,1,3
521,1.14507,2.3642,1,3
522,1.14743,2.3642,1,3
523,1.14978,2.3626,1,3
524,1.15214,2.3636,1,3
525,1.1545,2.3584,1,3
526,1.15685,2.3568,1,3
527,1.15922,2.3594,1,3
528,1.16158,2.3594,1,3
529,1.16395,2.3628,1,3
530,1.16634,2.3688,1,3
531,1.16867,2.3636,1,3
532,1.17104,2.3644,1,3
533,1.17342,2.3678,1,3
534,1.17577,2.3644,1,3
535,1.17818,2.3678,1,3
536,1.18053,2.372,1,3
537,1.18289,2.3686,1,3
538,1.18526,2.3686,1,3
539,1.18764,2.3728,1,3
540,1.19002,2.3678,1,3
541,1.19241,2.3764,1,3
542,1.19479,2.3806,1,3
543,1.19715,2.3788,1,3
544,1.19953,2.378,1,3
545,1.20192,2.3804,1,3
546,1.2043,2.377,1,3
547,1.20668,2.3788,1,3
548,1.20908,2.3858,1,3
549,1.21147,2.3892,1,3
550,1.21387,2.3902,1,3
551,1.21627,2.3946,1,3
552,1.21865,2.3938,1,3
553,1.22105,2.3946,1,3
554,1.22345,2.3954,1,3
555,1.22585,2.3954,1,3
556,1.22826,2.398,1,3
557,1.23065,2.3996,1,3
558,1.23306,2.4004,1,3
559,1.23545,2.4004,1,3
560,1.23785,2.4004,1,3
561,1.24026,2.4004,1,3
562,1.24269,2.4082,1,3
563,1.24509,2.4074,1,3
564,1.2475,2.4092,1,3
565,1.2499,2.4092,1,3
566,1.25234,2.416,1,3
567,1.25476,2.4134,1,3
568,1.25717,2.416,1,3
569,1.2596,2.4204,1,3
570,1.26203,2.4272,1,3
571,1.26446,2.423,1,3
572,1.26689,2.4256,1,3
573,1.26932,2.43,1,3
574,1.27177,2.4334,1,3
575,1.2742,2.4334,1,3
576,1.27664,2.436,1,3
577,1.27909,2.4404,1,3
578,1.28155,2.4446,1,3
579,1.284,2.4464,1,3
580,1.28644,2.4482,1,3
581,1.2889,2.4524,1,3
582,1.29136,2.4548,1,3
583,1.29382,2.4548,1,3
584,1.29629,2.4582,1,3
585,1.29875,2.4616,1,3
586,1.30122,2.465,1,3
587,1.3037,2.4676,1,3
588,1.3062,2.4754,1,3
589,1.30868,2.478,1,3
590,1.31364,2.4824,1,3
591,1.31614,2.486,1,3
592,1.31862,2.4878,1,3
593,1.32113,2.4896,1,3
594,1.32362,2.4922,1,3
595,1.32615,2.5016,1,3
596,1.32864,2.4998,1,3
597,1.33114,2.5024,1,3
598,1.33362,2.4988,1,3
599,1.33614,2.504,1,3
600,1.33866,2.5006,1,3
601,1.34117,2.5076,1,3
602,1.34368,2.5084,1,3
603,1.34621,2.5162,1,3
604,1.34872,2.5162,1,3
605,1.35124,2.517,1,3
606,1.35377,2.5186,1,3
607,1.3563,2.5238,1,3
608,1.35884,2.5264,1,3
609,1.36137,2.528,1,3
610,1.3639,2.5324,1,3
611,1.36644,2.535,1,3
612,1.36899,2.5394,1,3
613,1.37153,2.5386,1,3
614,1.37408,2.543,1,3
615,1.37662,2.5438,1,3
616,1.3792,2.5508,1,3
617,1.38175,2.5516,1,3
618,1.38431,2.5568,1,3
619,1.3869,2.5646,1,3
620,1.38946,2.568,1,3
621,1.39203,2.567,1,3
622,1.39462,2.573,1,3
623,1.3972,2.5782,1,3
624,1.3998,2.579,1,3
625,1.40237,2.5826,1,3
626,1.40498,2.5896,1,3
627,1.40758,2.594,1,3
628,1.41019,2.5966,1,3
629,1.41278,2.5974,1,3
630,1.41541,2.6076,1,3
631,1.41802,2.6076,1,3
632,1.42063,2.6092,1,3
633,1.42326,2.6142,1,3
634,1.42589,2.6212,1,3
635,1.42852,2.6222,1,3
636,1.43115,2.6274,1,3
637,1.4338,2.6336,1,3
638,1.43642,2.6328,1,3
639,1.43907,2.6354,1,3
640,1.44171,2.638,1,3
641,1.44436,2.6422,1,3
642,1.44703,2.6474,1,3
643,1.44968,2.6518,1,3
644,1.45232,2.6518,1,3
645,1.455,2.6586,1,3
646,1.45766,2.6596,1,3
647,1.46034,2.6604,1,3
648,1.46301,2.6664,1,3
649,1.46568,2.6706,1,3
650,1.46835,2.6698,1,3
651,1.47105,2.6774,1,3
652,1.47373,2.6782,1,3
653,1.47642,2.6808,1,3
654,1.4791,2.6852,1,3
655,1.48179,2.6886,1,3
656,1.4845,2.6904,1,3
657,1.48719,2.6922,1,3
658,1.48991,2.6982,1,3
659,1.49261,2.7008,1,3
660,1.49532,2.7052,1,3
661,1.49803,2.707,1,3
662,1.50075,2.7122,1,3
663,1.50346,2.7114,1,3
664,1.50618,2.7156,1,3
665,1.50891,2.7172,1,3
666,1.51163,2.7188,1,3
667,1.51436,2.7222,1,3
668,1.5171,2.7264,1,3
669,1.51981,2.7248,1,3
670,1.52254,2.7258,1,3
671,1.52529,2.732,1,3
672,1.52802,2.732,1,3
673,1.53075,2.732,1,3
674,1.53347,2.7328,1,3
675,1.53621,2.7344,1,3
676,1.53896,2.7352,1,3
677,1.5417,2.736,1,3
678,1.54444,2.736,1,3
679,1.54718,2.742,1,3
680,1.54991,2.7404,1,3
681,1.55264,2.7352,1,3
682,1.55538,2.7352,1,3
683,1.55813,2.7388,1,3
684,1.56088,2.7406,1,3
685,1.56362,2.7414,1,3
686,1.56637,2.7458,1,3
687,1.5691,2.7442,1,3
688,1.57185,2.745,1,3
689,1.57457,2.7364,1,3
690,1.5773,2.7364,1,3
691,1.58005,2.7354,1,3
692,1.58278,2.737,1,3
693,1.58552,2.7344,1,3
694,1.58826,2.7378,1,3
695,1.591,2.7412,1,3
696,1.59373,2.7378,1,3
697,1.59646,2.7362,1,3
698,1.59919,2.7328,1,3
699,1.60193,2.7346,1,3
700,1.60466,2.7312,1,3
701,1.6074,2.7338,1,3
702,1.61013,2.7338,1,3
703,1.61286,2.7338,1,3
704,1.61557,2.7286,1,3
705,1.61829,2.726,1,3
706,1.62103,2.726,1,3
707,1.62375,2.7242,1,3
708,1.62648,2.7242,1,3
709,1.6292,2.7268,1,3
710,1.63193,2.7276,1,3
711,1.63465,2.7242,1,3
712,1.63738,2.726,1,3
713,1.64011,2.7276,1,3
714,1.64283,2.7258,1,3
715,1.64555,2.7258,1,3
716,1.64827,2.7232,1,3
717,1.65099,2.7222,1,3
718,1.65374,2.7258,1,3
719,1.65644,2.7224,1,3
720,1.65915,2.7198,1,3
721,1.6619,2.7266,1,3
722,1.66462,2.7258,1,3
723,1.66734,2.7196,1,3
724,1.67008,2.7274,1,3
725,1.67279,2.7266,1,3
726,1.67551,2.7224,1,3
727,1.67826,2.7284,1,3
728,1.68099,2.7294,1,3
729,1.68373,2.7294,1,3
730,1.68644,2.7302,1,3
731,1.68917,2.731,1,3
732,1.69189,2.725,1,3
733,1.69464,2.7302,1,3
734,1.69736,2.7276,1,3
735,1.70009,2.7276,1,3
736,1.7028,2.7302,1,3
737,1.70554,2.7354,1,3
738,1.70829,2.7336,1,3
739,1.71102,2.7318,1,3
740,1.71374,2.7336,1,3
741,1.71649,2.7354,1,3
742,1.71921,2.732,1,3
743,1.72467,2.7302,1,3
744,1.72741,2.7346,1,3
745,1.73013,2.7346,1,3
746,1.73013,2.7302,1,3
747,1.73286,2.7318,1,3
748,1.7356,2.7318,1,3
749,1.73834,2.7326,1,3
750,1.74106,2.7326,1,3
751,1.74383,2.7394,1,3
752,1.74653,2.7326,1,3
753,1.74926,2.7326,1,3
754,1.752,2.7308,1,3
755,1.75471,2.7308,1,3
756,1.75745,2.724,1,3
757,1.76019,2.7326,1,3
758,1.7629,2.7284,1,3
759,1.76563,2.7258,1,3
760,1.76835,2.7276,1,3
761,1.77109,2.7294,1,3
762,1.77383,2.7286,1,3
763,1.77655,2.7302,1,3
764,1.77928,2.7302,1,3
765,1.78202,2.7328,1,3
766,1.78472,2.7258,1,3
767,1.78745,2.724,1,3
768,1.79017,2.7224,1,3
769,1.79288,2.7216,1,3
770,1.7956,2.7164,1,3
771,1.79832,2.719,1,3
772,1.80101,2.712,1,3
773,1.80372,2.7102,1,3
774,1.80643,2.7094,1,3
775,1.80913,2.7068,1,3
776,1.81183,2.7024,1,3
777,1.81452,2.7016,1,3
778,1.81721,2.6982,1,3
779,1.81992,2.6982,1,3
780,1.8226,2.6938,1,3
781,1.82529,2.693,1,3
782,1.828,2.6956,1,3
783,1.83066,2.6904,1,3
784,1.83335,2.6852,1,3
785,1.83604,2.687,1,3
786,1.83873,2.687,1,3
787,1.84139,2.6792,1,3
788,1.84408,2.6844,1,3
789,1.84676,2.6818,1,3
790,1.84944,2.6818,1,3
791,1.85211,2.6766,1,3
792,1.85479,2.6792,1,3
793,1.85744,2.6722,1,3
794,1.86011,2.6704,1,3
795,1.86277,2.6652,1,3
796,1.86543,2.6644,1,3
797,1.86812,2.6662,1,3
798,1.87078,2.6672,1,3
799,1.87345,2.6682,1,3
800,1.87612,2.67,1,3
801,1.87878,2.6692,1,3
802,1.88142,2.6596,1,3
803,1.88408,2.6612,1,3
804,1.88674,2.6576,1,3
805,1.8894,2.6566,1,3
806,1.89206,2.6566,1,3
807,1.89468,2.6532,1,3
808,1.89734,2.6516,1,3
809,1.89999,2.65,1,3
810,1.90263,2.6448,1,3
811,1.90526,2.6404,1,3
812,1.90791,2.6448,1,3
813,1.91318,2.637,1,3
814,1.91318,2.6344,1,3
815,1.91581,2.6328,1,3
816,1.91843,2.6302,1,3
817,1.92108,2.6302,1,3
818,1.9237,2.6318,1,3
819,1.92632,2.6282,1,3
820,1.92894,2.6256,1,3
821,1.93157,2.6274,1,3
822,1.9342,2.6256,1,3
823,1.93681,2.6214,1,3
824,1.93943,2.6224,1,3
825,1.94203,2.619,1,3
826,1.94467,2.6198,1,3
827,1.94728,2.6154,1,3
828,1.94989,2.617,1,3
829,1.95253,2.6196,1,3
830,1.95773,2.6196,1,3
831,1.95773,2.6128,1,3
832,1.96036,2.6154,1,3
833,1.96298,2.6164,1,3
834,1.96559,2.612,1,3
835,1.96819,2.612,1,3
836,1.97081,2.6154,1,3
837,1.97341,2.6104,1,3
838,1.97861,2.6052,1,3
839,1.98124,2.6086,1,3
840,1.98384,2.6086,1,3
841,1.98644,2.6052,1,3
842,1.98906,2.6076,1,3
843,1.99167,2.6128,1,3
844,1.99426,2.6052,1,3
845,1.99686,2.6034,1,3
846,1.99946,2.6034,1,3
847,2.00204,2.5974,1,3
848,2.00464,2.593,1,3
849,2.00723,2.5938,1,3
850,2.00982,2.593,1,3
851,2.01243,2.5946,1,3
852,2.015,2.592,1,3
853,2.01757,2.5868,1,3
854,2.02017,2.5868,1,3
855,2.02276,2.5876,1,3
856,2.02534,2.5816,1,3
857,2.02791,2.5826,1,3
858,2.0305,2.5862,1,3
859,2.03307,2.5802,1,3
860,2.03564,2.5758,1,3
861,2.03823,2.5784,1,3
862,2.0408,2.5766,1,3
863,2.04337,2.5722,1,3
864,2.04592,2.5712,1,3
865,2.0485,2.5722,1,3
866,2.05107,2.567,1,3
867,2.05363,2.5662,1,3
868,2.05621,2.5688,1,3
869,2.05877,2.5698,1,3
870,2.06134,2.568,1,3
871,2.0639,2.5662,1,3
