cnt,pos,speed,Dir,Force,
1,3.34900,1.277,-1,3
2,3.35028,1.277,-1,3
3,3.35156,1.281,-1,3
4,3.35285,1.294,-1,3
5,3.35413,1.281,-1,3
6,3.35543,1.294,-1,3
7,3.35673,1.303,-1,3
8,3.35802,1.286,-1,3
9,3.35933,1.316,-1,3
10,3.36065,1.316,-1,3
11,3.36196,1.312,-1,3
12,3.36328,1.320,-1,3
13,3.36461,1.333,-1,3
14,3.36595,1.337,-1,3
15,3.36728,1.333,-1,3
16,3.36864,1.355,-1,3
17,3.36999,1.346,-1,3
18,3.37134,1.359,-1,3
19,3.37270,1.359,-1,3
20,3.37409,1.385,-1,3
21,3.37546,1.372,-1,3
22,3.37685,1.389,-1,3
23,3.37822,1.406,-1,3
24,3.38101,1.389,-1,3
25,3.38241,1.402,-1,3
26,3.38383,1.415,-1,3
27,3.38523,1.402,-1,3
28,3.38666,1.424,-1,3
29,3.38808,1.428,-1,3
30,3.38950,1.415,-1,3
31,3.39093,1.432,-1,3
32,3.39237,1.441,-1,3
33,3.39380,1.424,-1,3
34,3.39525,1.454,-1,3
35,3.39671,1.458,-1,3
36,3.39815,1.445,-1,3
37,3.39962,1.471,-1,3
38,3.40110,1.480,-1,3
39,3.40258,1.475,-1,3
40,3.40404,1.463,-1,3
41,3.40553,1.488,-1,3
42,3.40701,1.484,-1,3
43,3.40850,1.488,-1,3
44,3.40998,1.480,-1,3
45,3.41149,1.506,-1,3
46,3.41299,1.506,-1,3
47,3.41452,1.523,-1,3
48,3.41601,1.497,-1,3
49,3.41755,1.536,-1,3
50,3.41908,1.527,-1,3
51,3.42062,1.545,-1,3
52,3.42214,1.519,-1,3
53,3.42368,1.536,-1,3
54,3.42523,1.557,-1,3
55,3.42679,1.553,-1,3
56,3.42834,1.553,-1,3
57,3.42991,1.566,-1,3
58,3.43149,1.583,-1,3
59,3.43305,1.562,-1,3
60,3.43464,1.583,-1,3
61,3.43622,1.583,-1,3
62,3.43780,1.583,-1,3
63,3.43939,1.592,-1,3
64,3.44101,1.614,-1,3
65,3.44261,1.601,-1,3
66,3.44424,1.635,-1,3
67,3.44585,1.609,-1,3
68,3.44748,1.631,-1,3
69,3.44911,1.631,-1,3
70,3.45074,1.631,-1,3
71,3.45241,1.661,-1,3
72,3.45405,1.639,-1,3
73,3.45568,1.639,-1,3
74,3.45735,1.670,-1,3
75,3.45902,1.670,-1,3
76,3.46070,1.674,-1,3
77,3.46237,1.674,-1,3
78,3.46405,1.678,-1,3
79,3.46575,1.708,-1,3
80,3.46917,1.713,-1,3
81,3.47088,1.713,-1,3
82,3.47259,1.713,-1,3
83,3.47432,1.730,-1,3
84,3.47605,1.726,-1,3
85,3.47777,1.726,-1,3
86,3.47952,1.747,-1,3
87,3.48128,1.760,-1,3
88,3.48305,1.765,-1,3
89,3.48481,1.773,-1,3
90,3.48658,1.773,-1,3
91,3.49011,1.769,-1,3
92,3.49190,1.795,-1,3
93,3.49371,1.803,-1,3
94,3.49551,1.803,-1,3
95,3.49731,1.803,-1,3
96,3.49914,1.829,-1,3
97,3.50093,1.790,-1,3
98,3.50275,1.821,-1,3
99,3.50457,1.821,-1,3
100,3.50640,1.829,-1,3
101,3.50825,1.851,-1,3
102,3.51008,1.821,-1,3
103,3.51191,1.838,-1,3
104,3.51378,1.864,-1,3
105,3.51563,1.851,-1,3
106,3.51750,1.872,-1,3
107,3.51938,1.877,-1,3
108,3.52124,1.864,-1,3
109,3.52311,1.872,-1,3
110,3.52498,1.864,-1,3
111,3.52687,1.890,-1,3
112,3.52874,1.877,-1,3
113,3.53064,1.898,-1,3
114,3.53254,1.898,-1,3
115,3.53444,1.898,-1,3
116,3.53633,1.894,-1,3
117,3.53822,1.885,-1,3
118,3.54011,1.894,-1,3
119,3.54203,1.916,-1,3
120,3.54395,1.924,-1,3
121,3.54586,1.907,-1,3
122,3.54778,1.924,-1,3
123,3.54970,1.920,-1,3
124,3.55161,1.911,-1,3
125,3.55354,1.929,-1,3
126,3.55548,1.941,-1,3
127,3.55742,1.933,-1,3
128,3.55936,1.941,-1,3
129,3.56130,1.941,-1,3
130,3.56325,1.954,-1,3
131,3.56518,1.929,-1,3
132,3.56713,1.950,-1,3
133,3.56908,1.946,-1,3
134,3.57104,1.959,-1,3
135,3.57297,1.954,-1,3
136,3.57688,1.950,-1,3
137,3.57884,1.963,-1,3
138,3.58078,1.941,-1,3
139,3.58275,1.967,-1,3
140,3.58473,1.980,-1,3
141,3.58669,1.959,-1,3
142,3.58867,1.980,-1,3
143,3.59063,1.959,-1,3
144,3.59260,1.972,-1,3
145,3.59459,1.993,-1,3
146,3.59654,1.946,-1,3
147,3.59852,1.985,-1,3
148,3.60050,1.976,-1,3
149,3.60247,1.972,-1,3
150,3.60446,1.989,-1,3
151,3.60644,1.980,-1,3
152,3.60843,1.989,-1,3
153,3.61238,1.976,-1,3
154,3.61437,1.989,-1,3
155,3.61437,1.989,-1,3
156,3.61636,1.989,-1,3
157,3.61834,1.993,-1,3
158,3.62033,1.993,-1,3
159,3.62429,1.967,-1,3
160,3.62627,1.985,-1,3
161,3.62826,1.989,-1,3
162,3.63025,1.989,-1,3
163,3.63224,1.989,-1,3
164,3.63424,1.998,-1,3
165,3.63622,1.985,-1,3
166,3.63822,1.993,-1,3
167,3.64020,1.985,-1,3
168,3.64218,1.985,-1,3
169,3.64417,1.985,-1,3
170,3.64614,1.976,-1,3
171,3.64813,1.980,-1,3
172,3.65011,1.980,-1,3
173,3.65209,1.989,-1,3
174,3.65408,1.989,-1,3
175,3.65607,1.989,-1,3
176,3.65806,1.985,-1,3
177,3.66005,1.993,-1,3
178,3.66203,1.985,-1,3
179,3.66403,1.993,-1,3
180,3.66599,1.963,-1,3
181,3.66796,1.972,-1,3
182,3.66995,1.985,-1,3
183,3.67193,1.980,-1,3
184,3.67391,1.985,-1,3
185,3.67589,1.976,-1,3
186,3.67786,1.967,-1,3
187,3.67984,1.980,-1,3
188,3.68182,1.989,-1,3
189,3.68381,1.985,-1,3
190,3.68578,1.976,-1,3
191,3.68777,1.980,-1,3
192,3.68973,1.963,-1,3
193,3.69170,1.972,-1,3
194,3.69367,1.967,-1,3
195,3.69564,1.972,-1,3
196,3.69761,1.972,-1,3
197,3.69959,1.976,-1,3
198,3.70156,1.976,-1,3
199,3.70353,1.967,-1,3
200,3.70549,1.963,-1,3
201,3.70746,1.963,-1,3
202,3.70942,1.967,-1,3
203,3.71138,1.959,-1,3
204,3.71334,1.963,-1,3
205,3.71530,1.954,-1,3
206,3.71725,1.954,-1,3
207,3.71922,1.967,-1,3
208,3.72118,1.954,-1,3
209,3.72312,1.946,-1,3
210,3.72508,1.954,-1,3
211,3.72704,1.967,-1,3
212,3.72898,1.941,-1,3
213,3.73092,1.933,-1,3
214,3.73287,1.954,-1,3
215,3.73482,1.946,-1,3
216,3.73675,1.929,-1,3
217,3.73867,1.920,-1,3
218,3.74251,1.916,-1,3
219,3.74251,1.907,-1,3
220,3.74441,1.907,-1,3
221,3.74633,1.920,-1,3
222,3.74824,1.916,-1,3
223,3.75016,1.916,-1,3
224,3.75206,1.903,-1,3
225,3.75587,1.903,-1,3
226,3.75776,1.894,-1,3
227,3.75963,1.868,-1,3
228,3.76150,1.868,-1,3
229,3.76338,1.881,-1,3
230,3.76525,1.868,-1,3
231,3.76710,1.851,-1,3
232,3.76896,1.864,-1,3
233,3.77082,1.855,-1,3
234,3.77265,1.829,-1,3
235,3.77450,1.847,-1,3
236,3.77635,1.851,-1,3
237,3.77818,1.838,-1,3
238,3.78001,1.825,-1,3
239,3.78185,1.842,-1,3
240,3.78545,1.803,-1,3
241,3.78726,1.808,-1,3
242,3.78907,1.808,-1,3
243,3.79088,1.812,-1,3
244,3.79265,1.773,-1,3
245,3.79445,1.790,-1,3
246,3.79624,1.799,-1,3
247,3.79802,1.778,-1,3
248,3.79981,1.790,-1,3
249,3.80159,1.782,-1,3
250,3.80335,1.756,-1,3
251,3.80511,1.765,-1,3
252,3.80687,1.756,-1,3
253,3.80865,1.778,-1,3
254,3.81039,1.743,-1,3
255,3.81213,1.743,-1,3
256,3.81387,1.739,-1,3
257,3.81562,1.743,-1,3
258,3.81738,1.760,-1,3
259,3.81909,1.717,-1,3
260,3.82081,1.717,-1,3
261,3.82254,1.726,-1,3
262,3.82428,1.743,-1,3
263,3.82600,1.726,-1,3
264,3.82773,1.721,-1,3
265,3.82946,1.730,-1,3
266,3.83116,1.704,-1,3
267,3.83285,1.687,-1,3
268,3.83456,1.708,-1,3
269,3.83626,1.704,-1,3
270,3.83796,1.704,-1,3
271,3.83967,1.704,-1,3
272,3.84137,1.700,-1,3
273,3.84306,1.696,-1,3
274,3.84474,1.674,-1,3
275,3.84644,1.700,-1,3
276,3.84811,1.674,-1,3
277,3.84979,1.678,-1,3
278,3.85148,1.687,-1,3
279,3.85314,1.661,-1,3
280,3.85482,1.678,-1,3
281,3.85648,1.665,-1,3
282,3.85816,1.678,-1,3
283,3.85982,1.657,-1,3
284,3.86149,1.674,-1,3
285,3.86315,1.657,-1,3
286,3.86480,1.652,-1,3
287,3.86646,1.665,-1,3
288,3.86815,1.683,-1,3
289,3.86980,1.652,-1,3
290,3.87144,1.644,-1,3
291,3.87309,1.644,-1,3
292,3.87474,1.652,-1,3
293,3.87637,1.635,-1,3
294,3.87804,1.665,-1,3
295,3.87968,1.644,-1,3
296,3.88132,1.639,-1,3
297,3.88296,1.639,-1,3
298,3.88460,1.635,-1,3
299,3.88626,1.661,-1,3
300,3.88788,1.622,-1,3
301,3.88953,1.648,-1,3
302,3.89117,1.644,-1,3
303,3.89282,1.644,-1,3
304,3.89445,1.631,-1,3
305,3.89609,1.639,-1,3
306,3.89936,1.639,-1,3
307,3.89936,1.639,-1,3
308,3.90266,1.648,-1,3
309,3.90431,1.648,-1,3
310,3.90592,1.618,-1,3
311,3.90754,1.618,-1,3
312,3.90919,1.648,-1,3
313,3.91084,1.648,-1,3
314,3.91248,1.644,-1,3
315,3.91414,1.661,-1,3
316,3.91579,1.644,-1,3
317,3.91743,1.648,-1,3
318,3.91909,1.652,-1,3
319,3.92075,1.661,-1,3
320,3.92240,1.652,-1,3
321,3.92404,1.644,-1,3
322,3.92570,1.652,-1,3
323,3.92737,1.670,-1,3
324,3.92902,1.657,-1,3
325,3.93069,1.670,-1,3
326,3.93236,1.665,-1,3
327,3.93404,1.683,-1,3
328,3.93570,1.665,-1,3
329,3.93739,1.683,-1,3
330,3.93910,1.713,-1,3
331,3.94077,1.674,-1,3
332,3.94249,1.713,-1,3
333,3.94419,1.700,-1,3
334,3.94588,1.696,-1,3
335,3.94760,1.713,-1,3
336,3.95103,1.713,-1,3
337,3.95275,1.726,-1,3
338,3.95448,1.734,-1,3
339,3.95622,1.734,-1,3
340,3.95798,1.756,-1,3
341,3.95971,1.730,-1,3
342,3.96146,1.756,-1,3
343,3.96323,1.769,-1,3
344,3.96501,1.778,-1,3
345,3.96679,1.786,-1,3
346,3.96858,1.782,-1,3
347,3.97037,1.799,-1,3
348,3.97217,1.795,-1,3
349,3.97396,1.795,-1,3
350,3.97577,1.803,-1,3
351,3.97758,1.812,-1,3
352,3.97940,1.821,-1,3
353,3.98124,1.842,-1,3
354,3.98309,1.851,-1,3
355,3.98495,1.859,-1,3
356,3.98680,1.851,-1,3
357,3.98867,1.868,-1,3
358,3.99055,1.877,-1,3
359,3.99243,1.885,-1,3
360,3.99432,1.890,-1,3
361,3.99622,1.898,-1,3
362,3.99813,1.907,-1,3
363,4.00004,1.911,-1,3
364,4.00196,1.924,-1,3
365,4.00391,1.941,-1,3
366,4.00584,1.933,-1,3
367,4.00779,1.950,-1,3
368,4.00976,1.967,-1,3
369,4.01173,1.972,-1,3
370,4.01370,1.972,-1,3
371,4.01568,1.985,-1,3
372,4.01768,1.998,-1,3
373,4.01967,1.993,-1,3
374,4.02168,2.002,-1,3
375,4.02370,2.019,-1,3
376,4.02571,2.015,-1,3
377,4.02774,2.028,-1,3
378,4.02977,2.036,-1,3
379,4.03183,2.054,-1,3
380,4.03389,2.058,-1,3
381,4.03596,2.071,-1,3
382,4.03803,2.075,-1,3
383,4.04013,2.097,-1,3
384,4.04220,2.075,-1,3
385,4.04430,2.101,-1,3
386,4.04642,2.114,-1,3
387,4.04852,2.105,-1,3
388,4.05064,2.114,-1,3
389,4.05276,2.118,-1,3
390,4.05488,2.127,-1,3
391,4.05703,2.144,-1,3
392,4.05918,2.153,-1,3
393,4.06134,2.161,-1,3
394,4.06352,2.174,-1,3
395,4.06567,2.157,-1,3
396,4.06785,2.174,-1,3
397,4.07003,2.183,-1,3
398,4.07222,2.192,-1,3
399,4.07662,2.209,-1,3
400,4.07885,2.222,-1,3
401,4.08105,2.209,-1,3
402,4.08329,2.239,-1,3
403,4.08553,2.239,-1,3
404,4.08777,2.235,-1,3
405,4.09003,2.261,-1,3
406,4.09228,2.256,-1,3
407,4.09454,2.256,-1,3
408,4.09681,2.274,-1,3
409,4.09910,2.282,-1,3
410,4.10139,2.287,-1,3
411,4.10367,2.287,-1,3
412,4.10599,2.317,-1,3
413,4.10833,2.338,-1,3
414,4.11064,2.312,-1,3
415,4.11298,2.338,-1,3
416,4.11765,2.338,-1,3
417,4.12003,2.382,-1,3
418,4.12241,2.373,-1,3
419,4.12478,2.377,-1,3
420,4.12718,2.399,-1,3
421,4.12959,2.403,-1,3
422,4.13199,2.403,-1,3
423,4.13443,2.438,-1,3
424,4.13686,2.438,-1,3
425,4.13929,2.425,-1,3
426,4.14174,2.455,-1,3
427,4.14420,2.455,-1,3
428,4.14667,2.468,-1,3
429,4.14916,2.494,-1,3
430,4.15169,2.528,-1,3
431,4.15420,2.511,-1,3
432,4.15671,2.515,-1,3
433,4.15925,2.537,-1,3
434,4.16180,2.545,-1,3
435,4.16436,2.558,-1,3
436,4.16695,2.593,-1,3
437,4.16951,2.563,-1,3
438,4.17210,2.589,-1,3
439,4.17471,2.606,-1,3
440,4.17733,2.627,-1,3
441,4.17996,2.623,-1,3
442,4.18260,2.640,-1,3
443,4.18528,2.679,-1,3
444,4.18793,2.653,-1,3
445,4.19058,2.649,-1,3
446,4.19327,2.696,-1,3
447,4.19597,2.696,-1,3
448,4.19870,2.731,-1,3
449,4.20142,2.722,-1,3
450,4.20415,2.727,-1,3
451,4.20689,2.740,-1,3
452,4.20965,2.761,-1,3
453,4.21239,2.735,-1,3
454,4.21515,2.761,-1,3
455,4.21794,2.791,-1,3
456,4.22073,2.787,-1,3
457,4.22353,2.813,-1,3
458,4.22634,2.826,-1,3
459,4.23200,2.830,-1,3
460,4.23482,2.822,-1,3
461,4.23767,2.847,-1,3
462,4.24052,2.852,-1,3
463,4.24335,2.826,-1,3
464,4.24622,2.878,-1,3
465,4.24912,2.899,-1,3
466,4.25199,2.869,-1,3
467,4.25491,2.916,-1,3
468,4.25779,2.882,-1,3
469,4.26071,2.916,-1,3
470,4.26362,2.912,-1,3
471,4.26657,2.947,-1,3
472,4.26949,2.938,-1,3
473,4.27540,2.973,-1,3
474,4.27836,2.955,-1,3
475,4.27836,2.973,-1,3
476,4.28133,2.994,-1,3
477,4.28432,2.994,-1,3
478,4.29031,3.007,-1,3
479,4.29331,3.007,-1,3
480,4.29633,3.011,-1,3
481,4.29936,3.037,-1,3
482,4.30239,3.029,-1,3
483,4.30542,3.029,-1,3
484,4.30845,3.033,-1,3
485,4.31149,3.042,-1,3
486,4.31456,3.067,-1,3
487,4.31765,3.085,-1,3
488,4.32071,3.067,-1,3
489,4.32381,3.093,-1,3
490,4.32689,3.085,-1,3
491,4.32999,3.098,-1,3
492,4.33310,3.111,-1,3
493,4.33621,3.111,-1,3
494,4.33933,3.115,-1,3
495,4.34245,3.124,-1,3
496,4.34560,3.149,-1,3
497,4.34874,3.145,-1,3
498,4.35190,3.158,-1,3
499,4.35506,3.154,-1,3
500,4.35820,3.145,-1,3
501,4.36139,3.188,-1,3
502,4.36459,3.197,-1,3
503,4.36778,3.188,-1,3
504,4.37096,3.184,-1,3
505,4.37418,3.218,-1,3
506,4.37737,3.197,-1,3
507,4.38059,3.214,-1,3
508,4.38382,3.227,-1,3
509,4.38704,3.223,-1,3
510,4.39027,3.236,-1,3
511,4.39354,3.262,-1,3
512,4.39678,3.249,-1,3
513,4.40002,3.231,-1,3
514,4.40329,3.270,-1,3
515,4.40656,3.270,-1,3
516,4.40983,3.275,-1,3
517,4.41311,3.275,-1,3
518,4.41638,3.270,-1,3
519,4.41967,3.296,-1,3
520,4.42295,3.275,-1,3
521,4.42625,3.305,-1,3
522,4.42953,3.279,-1,3
523,4.43285,3.318,-1,3
524,4.43615,3.300,-1,3
525,4.43945,3.305,-1,3
526,4.44278,3.326,-1,3
527,4.44608,3.296,-1,3
528,4.44940,3.322,-1,3
529,4.45273,3.335,-1,3
530,4.45606,3.331,-1,3
531,4.45937,3.305,-1,3
532,4.46271,3.339,-1,3
533,4.46606,3.352,-1,3
534,4.46939,3.335,-1,3
535,4.47271,3.313,-1,3
536,4.47606,3.352,-1,3
537,4.47942,3.361,-1,3
538,4.48278,3.357,-1,3
539,4.48613,3.352,-1,3
540,4.48948,3.348,-1,3
541,4.49283,3.357,-1,3
542,4.49618,3.344,-1,3
543,4.49953,3.357,-1,3
544,4.50624,3.365,-1,3
545,4.50962,3.378,-1,3
546,4.51298,3.357,-1,3
547,4.51633,3.357,-1,3
548,4.51970,3.369,-1,3
549,4.52305,3.348,-1,3
550,4.52641,3.361,-1,3
551,4.52979,3.378,-1,3
552,4.53315,3.361,-1,3
553,4.53653,3.378,-1,3
554,4.53988,3.348,-1,3
555,4.54660,3.361,-1,3
556,4.54660,3.382,-1,3
557,4.55333,3.348,-1,3
558,4.55671,3.378,-1,3
559,4.56009,3.382,-1,3
560,4.56345,3.361,-1,3
561,4.56683,3.378,-1,3
562,4.57018,3.352,-1,3
563,4.57355,3.365,-1,3
564,4.57694,3.391,-1,3
565,4.58032,3.382,-1,3
566,4.58370,3.378,-1,3
567,4.58707,3.369,-1,3
568,4.59045,3.378,-1,3
569,4.59381,3.361,-1,3
570,4.59718,3.374,-1,3
571,4.60057,3.387,-1,3
572,4.60396,3.395,-1,3
573,4.60731,3.348,-1,3
574,4.61069,3.382,-1,3
575,4.61409,3.395,-1,3
576,4.61746,3.369,-1,3
577,4.62083,3.374,-1,3
578,4.62423,3.395,-1,3
579,4.62759,3.365,-1,3
580,4.63100,3.404,-1,3
581,4.63437,3.374,-1,3
582,4.63774,3.365,-1,3
583,4.64110,3.365,-1,3
584,4.64450,3.404,-1,3
585,4.64788,3.378,-1,3
586,4.65125,3.365,-1,3
587,4.65463,3.387,-1,3
588,4.65800,3.361,-1,3
589,4.66137,3.374,-1,3
590,4.66473,3.361,-1,3
591,4.66810,3.369,-1,3
592,4.67145,3.348,-1,3
593,4.67482,3.369,-1,3
594,4.67818,3.361,-1,3
595,4.68152,3.344,-1,3
596,4.68485,3.331,-1,3
597,4.68821,3.357,-1,3
598,4.69156,3.352,-1,3
599,4.69490,3.339,-1,3
600,4.69822,3.322,-1,3
601,4.70154,3.313,-1,3
602,4.70487,3.335,-1,3
603,4.70817,3.300,-1,3
604,4.71149,3.318,-1,3
605,4.71479,3.300,-1,3
606,4.71812,3.331,-1,3
607,4.72142,3.296,-1,3
608,4.72470,3.283,-1,3
609,4.72800,3.305,-1,3
610,4.73128,3.279,-1,3
611,4.73457,3.292,-1,3
612,4.73784,3.262,-1,3
613,4.74111,3.275,-1,3
614,4.74436,3.253,-1,3
615,4.74763,3.262,-1,3
616,4.75090,3.275,-1,3
617,4.75414,3.236,-1,3
618,4.75736,3.223,-1,3
619,4.76061,3.253,-1,3
620,4.76383,3.214,-1,3
621,4.76706,3.231,-1,3
622,4.77029,3.231,-1,3
623,4.77348,3.188,-1,3
624,4.77666,3.184,-1,3
625,4.77985,3.193,-1,3
626,4.78303,3.180,-1,3
627,4.78620,3.162,-1,3
628,4.78938,3.180,-1,3
629,4.79255,3.171,-1,3
630,4.79570,3.154,-1,3
631,4.80197,3.154,-1,3
632,4.80509,3.115,-1,3
633,4.80820,3.111,-1,3
634,4.81130,3.102,-1,3
635,4.81442,3.115,-1,3
636,4.81750,3.080,-1,3
637,4.82059,3.098,-1,3
638,4.82365,3.059,-1,3
639,4.82673,3.076,-1,3
640,4.82979,3.063,-1,3
641,4.83286,3.072,-1,3
642,4.83591,3.042,-1,3
643,4.83895,3.042,-1,3
644,4.84198,3.037,-1,3
645,4.84503,3.042,-1,3
646,4.84805,3.020,-1,3
647,4.85106,3.016,-1,3
648,4.85406,3.033,-1,3
649,4.85710,3.033,-1,3
650,4.86009,2.994,-1,3
651,4.86309,2.994,-1,3
652,4.86608,2.968,-1,3
653,4.86904,2.981,-1,3
654,4.87497,2.942,-1,3
655,4.87792,2.951,-1,3
656,4.88089,2.973,-1,3
657,4.88383,2.938,-1,3
658,4.88679,2.960,-1,3
659,4.88971,2.921,-1,3
660,4.89264,2.929,-1,3
661,4.89556,2.916,-1,3
662,4.89848,2.929,-1,3
663,4.90139,2.908,-1,3
664,4.90429,2.899,-1,3
665,4.90720,2.904,-1,3
666,4.91009,2.895,-1,3
667,4.91299,2.904,-1,3
668,4.91588,2.882,-1,3
669,4.91874,2.865,-1,3
670,4.92164,2.895,-1,3
671,4.92450,2.869,-1,3
672,4.92738,2.878,-1,3
673,4.93026,2.878,-1,3
674,4.93313,2.873,-1,3
675,4.93599,2.856,-1,3
676,4.93884,2.856,-1,3
677,4.94171,2.860,-1,3
678,4.94456,2.852,-1,3
679,4.94740,2.843,-1,3
680,4.95026,2.865,-1,3
681,4.95310,2.835,-1,3
682,4.95596,2.860,-1,3
683,4.95882,2.860,-1,3
684,4.96166,2.843,-1,3
685,4.96453,2.865,-1,3
686,4.96735,2.826,-1,3
687,4.97021,2.860,-1,3
688,4.97305,2.839,-1,3
689,4.97591,2.856,-1,3
690,4.97875,2.843,-1,3
691,4.98160,2.843,-1,3
692,4.98445,2.852,-1,3
693,4.98729,2.843,-1,3
694,4.99013,2.839,-1,3
695,4.99297,2.843,-1,3
696,4.99582,2.847,-1,3
697,4.99868,2.860,-1,3
698,5.00153,2.847,-1,3
699,5.00437,2.843,-1,3
700,5.00721,2.843,-1,3
701,5.01005,2.839,-1,3
702,5.01292,2.865,-1,3
703,5.01575,2.830,-1,3
704,5.01859,2.839,-1,3
705,5.02145,2.860,-1,3
706,5.02428,2.835,-1,3
707,5.02712,2.835,-1,3
708,5.02996,2.843,-1,3
709,5.03280,2.843,-1,3
710,5.03565,2.843,-1,3
711,5.03845,2.809,-1,3
712,5.04129,2.839,-1,3
713,5.04412,2.826,-1,3
714,5.04697,2.847,-1,3
715,5.04979,2.822,-1,3
716,5.05261,2.822,-1,3
717,5.05541,2.800,-1,3
718,5.05823,2.822,-1,3
719,5.06102,2.787,-1,3
720,5.06381,2.796,-1,3
721,5.06661,2.800,-1,3
722,5.06940,2.783,-1,3
723,5.07220,2.800,-1,3
724,5.07499,2.791,-1,3
725,5.07777,2.787,-1,3
726,5.08054,2.765,-1,3
727,5.08331,2.765,-1,3
728,5.08606,2.753,-1,3
729,5.08881,2.757,-1,3
730,5.09156,2.748,-1,3
731,5.09430,2.740,-1,3
732,5.09705,2.748,-1,3
733,5.09979,2.735,-1,3
734,5.10251,2.722,-1,3
735,5.10524,2.727,-1,3
736,5.10793,2.696,-1,3
737,5.11064,2.705,-1,3
738,5.11337,2.731,-1,3
739,5.11607,2.701,-1,3
740,5.11876,2.688,-1,3
741,5.12147,2.714,-1,3
742,5.12417,2.696,-1,3
743,5.12686,2.696,-1,3
744,5.12955,2.688,-1,3
745,5.13224,2.688,-1,3
746,5.13493,2.688,-1,3
747,5.13761,2.684,-1,3
748,5.14030,2.692,-1,3
749,5.14569,2.701,-1,3
750,5.14838,2.688,-1,3
751,5.15107,2.684,-1,3
752,5.15377,2.701,-1,3
753,5.15646,2.688,-1,3
754,5.15915,2.696,-1,3
755,5.16186,2.709,-1,3
756,5.16456,2.696,-1,3
757,5.16728,2.727,-1,3
758,5.17000,2.718,-1,3
759,5.17270,2.701,-1,3
760,5.17544,2.735,-1,3
761,5.17816,2.727,-1,3
762,5.18090,2.731,-1,3
763,5.18367,2.774,-1,3
764,5.18638,2.714,-1,3
765,5.18916,2.774,-1,3
766,5.19193,2.770,-1,3
767,5.19470,2.774,-1,3
768,5.20028,2.804,-1,3
769,5.20304,2.765,-1,3
770,5.20584,2.800,-1,3
771,5.20863,2.791,-1,3
772,5.21146,2.830,-1,3
773,5.21431,2.847,-1,3
774,5.21714,2.835,-1,3
775,5.21998,2.839,-1,3
776,5.22284,2.860,-1,3
777,5.22569,2.843,-1,3
778,5.22855,2.865,-1,3
779,5.23144,2.891,-1,3
780,5.23430,2.856,-1,3
781,5.23720,2.899,-1,3
782,5.24011,2.908,-1,3
783,5.24301,2.904,-1,3
784,5.24591,2.899,-1,3
785,5.24881,2.904,-1,3
786,5.25175,2.934,-1,3
787,5.25468,2.938,-1,3
788,5.25764,2.955,-1,3
789,5.26059,2.947,-1,3
790,5.26355,2.960,-1,3
791,5.26648,2.938,-1,3
792,5.26946,2.977,-1,3
793,5.27541,2.968,-1,3
794,5.27541,2.981,-1,3
795,5.27839,3.011,-1,3
796,5.28140,3.011,-1,3
797,5.28441,3.003,-1,3
798,5.28741,3.020,-1,3
799,5.29347,3.042,-1,3
800,5.29650,3.024,-1,3
801,5.29953,3.029,-1,3
802,5.30259,3.063,-1,3
803,5.30563,3.037,-1,3
804,5.30869,3.059,-1,3
805,5.31174,3.059,-1,3
806,5.31483,3.080,-1,3
807,5.31793,3.102,-1,3
808,5.32096,3.033,-1,3
809,5.32406,3.102,-1,3
810,5.32714,3.076,-1,3
811,5.33027,3.137,-1,3
812,5.33338,3.102,-1,3
813,5.33650,3.124,-1,3
814,5.33960,3.098,-1,3
815,5.34272,3.124,-1,3
816,5.34584,3.124,-1,3
817,5.34898,3.141,-1,3
818,5.35212,3.141,-1,3
819,5.35528,3.171,-1,3
820,5.35846,3.171,-1,3
821,5.36161,3.158,-1,3
822,5.36478,3.167,-1,3
823,5.37115,3.184,-1,3
824,5.37434,3.188,-1,3
825,5.37755,3.210,-1,3
826,5.38078,3.231,-1,3
827,5.38401,3.231,-1,3
828,5.38721,3.201,-1,3
829,5.39045,3.236,-1,3
830,5.39371,3.262,-1,3
831,5.39697,3.262,-1,3
832,5.40025,3.279,-1,3
833,5.40352,3.270,-1,3
834,5.40682,3.300,-1,3
835,5.41013,3.309,-1,3
836,5.41344,3.313,-1,3
837,5.41676,3.322,-1,3
838,5.42011,3.348,-1,3
839,5.42347,3.361,-1,3
840,5.42682,3.344,-1,3
841,5.43019,3.378,-1,3
842,5.43358,3.382,-1,3
843,5.43695,3.378,-1,3
844,5.44035,3.395,-1,3
845,5.44376,3.413,-1,3
846,5.44718,3.421,-1,3
847,5.45063,3.443,-1,3
848,5.45408,3.456,-1,3
849,5.45751,3.426,-1,3
850,5.46098,3.469,-1,3
851,5.46445,3.477,-1,3
852,5.46794,3.486,-1,3
853,5.47141,3.473,-1,3
854,5.47493,3.516,-1,3
855,5.47846,3.529,-1,3
856,5.48196,3.499,-1,3
857,5.48550,3.542,-1,3
858,5.48903,3.533,-1,3
859,5.49260,3.568,-1,3
860,5.49617,3.568,-1,3
861,5.49975,3.577,-1,3
862,5.50333,3.585,-1,3
863,5.50692,3.590,-1,3
864,5.51052,3.598,-1,3
865,5.51414,3.620,-1,3
866,5.51775,3.611,-1,3
867,5.52138,3.633,-1,3
868,5.52502,3.637,-1,3
869,5.52867,3.650,-1,3
870,5.53231,3.646,-1,3
871,5.53598,3.667,-1,3
872,5.53965,3.671,-1,3
873,5.54332,3.663,-1,3
