cnt,pos,speed,Dir,Force,
1,3.27081,2.049,-1,3
2,3.27288,2.071,-1,3
3,3.27495,2.067,-1,3
4,3.27703,2.084,-1,3
5,3.27911,2.080,-1,3
6,3.28121,2.097,-1,3
7,3.28330,2.092,-1,3
8,3.28541,2.105,-1,3
9,3.28753,2.118,-1,3
10,3.28966,2.131,-1,3
11,3.29179,2.136,-1,3
12,3.29394,2.149,-1,3
13,3.29610,2.161,-1,3
14,3.29825,2.149,-1,3
15,3.30046,2.205,-1,3
16,3.30265,2.196,-1,3
17,3.30485,2.196,-1,3
18,3.30707,2.218,-1,3
19,3.30927,2.205,-1,3
20,3.31148,2.209,-1,3
21,3.31371,2.235,-1,3
22,3.31597,2.261,-1,3
23,3.31821,2.235,-1,3
24,3.32049,2.278,-1,3
25,3.32277,2.287,-1,3
26,3.32505,2.274,-1,3
27,3.32733,2.278,-1,3
28,3.32960,2.278,-1,3
29,3.33192,2.312,-1,3
30,3.33424,2.321,-1,3
31,3.33658,2.343,-1,3
32,3.33893,2.351,-1,3
33,3.34125,2.321,-1,3
34,3.34360,2.351,-1,3
35,3.34597,2.369,-1,3
36,3.34837,2.399,-1,3
37,3.35078,2.407,-1,3
38,3.35317,2.390,-1,3
39,3.35558,2.407,-1,3
40,3.35800,2.420,-1,3
41,3.36042,2.425,-1,3
42,3.36288,2.455,-1,3
43,3.36533,2.455,-1,3
44,3.36780,2.472,-1,3
45,3.37027,2.463,-1,3
46,3.37275,2.481,-1,3
47,3.37526,2.511,-1,3
48,3.37777,2.515,-1,3
49,3.38030,2.524,-1,3
50,3.38282,2.520,-1,3
51,3.38535,2.533,-1,3
52,3.38789,2.545,-1,3
53,3.39045,2.558,-1,3
54,3.39300,2.545,-1,3
55,3.39556,2.563,-1,3
56,3.39814,2.580,-1,3
57,3.40075,2.606,-1,3
58,3.40333,2.589,-1,3
59,3.40593,2.597,-1,3
60,3.40852,2.593,-1,3
61,3.41113,2.602,-1,3
62,3.41375,2.623,-1,3
63,3.41639,2.645,-1,3
64,3.41903,2.636,-1,3
65,3.42165,2.623,-1,3
66,3.42429,2.632,-1,3
67,3.42695,2.666,-1,3
68,3.42961,2.662,-1,3
69,3.43229,2.675,-1,3
70,3.43495,2.666,-1,3
71,3.43763,2.675,-1,3
72,3.44030,2.675,-1,3
73,3.44301,2.701,-1,3
74,3.44571,2.709,-1,3
75,3.44842,2.701,-1,3
76,3.45113,2.714,-1,3
77,3.45384,2.709,-1,3
78,3.45656,2.722,-1,3
79,3.45927,2.705,-1,3
80,3.46198,2.709,-1,3
81,3.46470,2.727,-1,3
82,3.46743,2.731,-1,3
83,3.47016,2.727,-1,3
84,3.47290,2.740,-1,3
85,3.47562,2.722,-1,3
86,3.47833,2.709,-1,3
87,3.48109,2.757,-1,3
88,3.48382,2.731,-1,3
89,3.48657,2.748,-1,3
90,3.48930,2.731,-1,3
91,3.49202,2.727,-1,3
92,3.49479,2.765,-1,3
93,3.49753,2.744,-1,3
94,3.50028,2.744,-1,3
95,3.50301,2.735,-1,3
96,3.50576,2.744,-1,3
97,3.50851,2.748,-1,3
98,3.51124,2.731,-1,3
99,3.51399,2.753,-1,3
100,3.51676,2.770,-1,3
101,3.51952,2.757,-1,3
102,3.52224,2.727,-1,3
103,3.52498,2.740,-1,3
104,3.52774,2.757,-1,3
105,3.53048,2.744,-1,3
106,3.53322,2.735,-1,3
107,3.53594,2.727,-1,3
108,3.53869,2.748,-1,3
109,3.54142,2.731,-1,3
110,3.54417,2.744,-1,3
111,3.54691,2.740,-1,3
112,3.54962,2.709,-1,3
113,3.55233,2.718,-1,3
114,3.55506,2.722,-1,3
115,3.55777,2.718,-1,3
116,3.56051,2.731,-1,3
117,3.56322,2.718,-1,3
118,3.56590,2.679,-1,3
119,3.56861,2.709,-1,3
120,3.57133,2.718,-1,3
121,3.57401,2.679,-1,3
122,3.57670,2.688,-1,3
123,3.57938,2.684,-1,3
124,3.58206,2.684,-1,3
125,3.58476,2.701,-1,3
126,3.58747,2.701,-1,3
127,3.59014,2.671,-1,3
128,3.59281,2.675,-1,3
129,3.59549,2.679,-1,3
130,3.59816,2.666,-1,3
131,3.60082,2.692,-1,3
132,3.60351,2.692,-1,3
133,3.60617,2.658,-1,3
134,3.60884,2.653,-1,3
135,3.61149,2.653,-1,3
136,3.61681,2.653,-1,3
137,3.61948,2.675,-1,3
138,3.62214,2.653,-1,3
139,3.62475,2.619,-1,3
140,3.62742,2.662,-1,3
141,3.63006,2.645,-1,3
142,3.63270,2.640,-1,3
143,3.63537,2.666,-1,3
144,3.63800,2.632,-1,3
145,3.64063,2.627,-1,3
146,3.64325,2.623,-1,3
147,3.64586,2.610,-1,3
148,3.64848,2.623,-1,3
149,3.65111,2.623,-1,3
150,3.65373,2.619,-1,3
151,3.65633,2.606,-1,3
152,3.65894,2.606,-1,3
153,3.66155,2.610,-1,3
154,3.66414,2.589,-1,3
155,3.66672,2.584,-1,3
156,3.66930,2.580,-1,3
157,3.67188,2.580,-1,3
158,3.67446,2.576,-1,3
159,3.67703,2.571,-1,3
160,3.67960,2.571,-1,3
161,3.68218,2.584,-1,3
162,3.68474,2.558,-1,3
163,3.68732,2.580,-1,3
164,3.68986,2.541,-1,3
165,3.69241,2.545,-1,3
166,3.69495,2.545,-1,3
167,3.69752,2.567,-1,3
168,3.70006,2.537,-1,3
169,3.70261,2.550,-1,3
170,3.70515,2.541,-1,3
171,3.70769,2.541,-1,3
172,3.71023,2.537,-1,3
173,3.71274,2.515,-1,3
174,3.71528,2.541,-1,3
175,3.71779,2.511,-1,3
176,3.72033,2.533,-1,3
177,3.72282,2.498,-1,3
178,3.72536,2.537,-1,3
179,3.72789,2.533,-1,3
180,3.73040,2.507,-1,3
181,3.73291,2.507,-1,3
182,3.73543,2.520,-1,3
183,3.73790,2.476,-1,3
184,3.74040,2.502,-1,3
185,3.74290,2.494,-1,3
186,3.74539,2.485,-1,3
187,3.74787,2.485,-1,3
188,3.75036,2.485,-1,3
189,3.75283,2.472,-1,3
190,3.75531,2.476,-1,3
191,3.75779,2.485,-1,3
192,3.76022,2.433,-1,3
193,3.76513,2.455,-1,3
194,3.76760,2.463,-1,3
195,3.77004,2.446,-1,3
196,3.77246,2.412,-1,3
197,3.77488,2.425,-1,3
198,3.77733,2.446,-1,3
199,3.77976,2.433,-1,3
200,3.78217,2.412,-1,3
201,3.78458,2.407,-1,3
202,3.78698,2.399,-1,3
203,3.78938,2.407,-1,3
204,3.79177,2.386,-1,3
205,3.79416,2.386,-1,3
206,3.79656,2.403,-1,3
207,3.79897,2.382,-1,3
208,3.80372,2.369,-1,3
209,3.80609,2.377,-1,3
210,3.80609,2.373,-1,3
211,3.81082,2.356,-1,3
212,3.81319,2.369,-1,3
213,3.81553,2.343,-1,3
214,3.81790,2.364,-1,3
215,3.82023,2.330,-1,3
216,3.82257,2.338,-1,3
217,3.82493,2.360,-1,3
218,3.82729,2.360,-1,3
219,3.82962,2.338,-1,3
220,3.83194,2.317,-1,3
221,3.83426,2.321,-1,3
222,3.83658,2.317,-1,3
223,3.83891,2.330,-1,3
224,3.84124,2.334,-1,3
225,3.84356,2.312,-1,3
226,3.84586,2.308,-1,3
227,3.84817,2.304,-1,3
228,3.85047,2.304,-1,3
229,3.85277,2.295,-1,3
230,3.85507,2.300,-1,3
231,3.85735,2.282,-1,3
232,3.85964,2.291,-1,3
233,3.86193,2.287,-1,3
234,3.86420,2.278,-1,3
235,3.86649,2.287,-1,3
236,3.86878,2.291,-1,3
237,3.87106,2.278,-1,3
238,3.87331,2.248,-1,3
239,3.87557,2.265,-1,3
240,3.87783,2.256,-1,3
241,3.88008,2.252,-1,3
242,3.88233,2.252,-1,3
243,3.88458,2.252,-1,3
244,3.88684,2.252,-1,3
245,3.88908,2.248,-1,3
246,3.89133,2.248,-1,3
247,3.89356,2.226,-1,3
248,3.89580,2.239,-1,3
249,3.89805,2.248,-1,3
250,3.90031,2.265,-1,3
251,3.90254,2.231,-1,3
252,3.90478,2.239,-1,3
253,3.90700,2.222,-1,3
254,3.90922,2.222,-1,3
255,3.91146,2.235,-1,3
256,3.91370,2.243,-1,3
257,3.91595,2.243,-1,3
258,3.91818,2.239,-1,3
259,3.92041,2.231,-1,3
260,3.92262,2.209,-1,3
261,3.92484,2.218,-1,3
262,3.92707,2.231,-1,3
263,3.92929,2.218,-1,3
264,3.93151,2.222,-1,3
265,3.93373,2.222,-1,3
266,3.93594,2.209,-1,3
267,3.93816,2.213,-1,3
268,3.94039,2.231,-1,3
269,3.94262,2.235,-1,3
270,3.94484,2.222,-1,3
271,3.94706,2.218,-1,3
272,3.94928,2.218,-1,3
273,3.95149,2.213,-1,3
274,3.95590,2.205,-1,3
275,3.95590,2.205,-1,3
276,3.96030,2.196,-1,3
277,3.96251,2.209,-1,3
278,3.96472,2.209,-1,3
279,3.96691,2.196,-1,3
280,3.96911,2.200,-1,3
281,3.97132,2.205,-1,3
282,3.97349,2.166,-1,3
283,3.97567,2.187,-1,3
284,3.97788,2.205,-1,3
285,3.98007,2.192,-1,3
286,3.98226,2.192,-1,3
287,3.98444,2.179,-1,3
288,3.98662,2.179,-1,3
289,3.98880,2.179,-1,3
290,3.99098,2.179,-1,3
291,3.99316,2.174,-1,3
292,3.99533,2.174,-1,3
293,3.99752,2.187,-1,3
294,3.99969,2.166,-1,3
295,4.00185,2.174,-1,3
296,4.00618,2.161,-1,3
297,4.00835,2.161,-1,3
298,4.01051,2.166,-1,3
299,4.01269,2.183,-1,3
300,4.01486,2.161,-1,3
301,4.01701,2.153,-1,3
302,4.01917,2.157,-1,3
303,4.02131,2.144,-1,3
304,4.02346,2.153,-1,3
305,4.02562,2.153,-1,3
306,4.02775,2.136,-1,3
307,4.02990,2.149,-1,3
308,4.03205,2.149,-1,3
309,4.03420,2.153,-1,3
310,4.03635,2.144,-1,3
311,4.03849,2.149,-1,3
312,4.04062,2.131,-1,3
313,4.04275,2.123,-1,3
314,4.04488,2.131,-1,3
315,4.04702,2.140,-1,3
316,4.04915,2.127,-1,3
317,4.05127,2.127,-1,3
318,4.05341,2.136,-1,3
319,4.05550,2.097,-1,3
320,4.05763,2.123,-1,3
321,4.05975,2.123,-1,3
322,4.06188,2.131,-1,3
323,4.06399,2.105,-1,3
324,4.06611,2.123,-1,3
325,4.06821,2.105,-1,3
326,4.07032,2.110,-1,3
327,4.07243,2.105,-1,3
328,4.07453,2.101,-1,3
329,4.07663,2.101,-1,3
330,4.07873,2.105,-1,3
331,4.08084,2.105,-1,3
332,4.08294,2.105,-1,3
333,4.08505,2.105,-1,3
334,4.08712,2.067,-1,3
335,4.08922,2.097,-1,3
336,4.09340,2.080,-1,3
337,4.09549,2.088,-1,3
338,4.09756,2.075,-1,3
339,4.09965,2.088,-1,3
340,4.10172,2.071,-1,3
341,4.10380,2.075,-1,3
342,4.10587,2.080,-1,3
343,4.10795,2.071,-1,3
344,4.11002,2.080,-1,3
345,4.11210,2.071,-1,3
346,4.11417,2.071,-1,3
347,4.11623,2.067,-1,3
348,4.11829,2.054,-1,3
349,4.12035,2.062,-1,3
350,4.12241,2.062,-1,3
351,4.12446,2.049,-1,3
352,4.12653,2.071,-1,3
353,4.12859,2.058,-1,3
354,4.13063,2.049,-1,3
355,4.13472,2.041,-1,3
356,4.13679,2.067,-1,3
357,4.13883,2.045,-1,3
358,4.14086,2.028,-1,3
359,4.14289,2.032,-1,3
360,4.14492,2.032,-1,3
361,4.14697,2.049,-1,3
362,4.14901,2.036,-1,3
363,4.15108,2.075,-1,3
364,4.15311,2.028,-1,3
365,4.15516,2.045,-1,3
366,4.15718,2.019,-1,3
367,4.15920,2.028,-1,3
368,4.16124,2.041,-1,3
369,4.16328,2.032,-1,3
370,4.16531,2.032,-1,3
371,4.16735,2.036,-1,3
372,4.16938,2.036,-1,3
373,4.17142,2.036,-1,3
374,4.17345,2.032,-1,3
375,4.17548,2.028,-1,3
376,4.17748,2.006,-1,3
377,4.17952,2.036,-1,3
378,4.18155,2.028,-1,3
379,4.18357,2.023,-1,3
380,4.18561,2.041,-1,3
381,4.18764,2.023,-1,3
382,4.18963,1.993,-1,3
383,4.19164,2.015,-1,3
384,4.19367,2.023,-1,3
385,4.19569,2.023,-1,3
386,4.19770,2.010,-1,3
387,4.19972,2.023,-1,3
388,4.20173,2.002,-1,3
389,4.20375,2.028,-1,3
390,4.20576,2.002,-1,3
391,4.20776,1.998,-1,3
392,4.21175,1.989,-1,3
393,4.21374,1.993,-1,3
394,4.21374,1.980,-1,3
395,4.21572,1.980,-1,3
396,4.21772,1.998,-1,3
397,4.21972,2.002,-1,3
398,4.22171,1.989,-1,3
399,4.22369,1.980,-1,3
400,4.22567,1.985,-1,3
401,4.22768,1.976,-1,3
402,4.22965,1.976,-1,3
403,4.23162,1.963,-1,3
404,4.23358,1.972,-1,3
405,4.23555,1.972,-1,3
406,4.23949,1.967,-1,3
407,4.24145,1.959,-1,3
408,4.24341,1.954,-1,3
409,4.24537,1.967,-1,3
410,4.24735,1.972,-1,3
411,4.24930,1.950,-1,3
412,4.25127,1.976,-1,3
413,4.25322,1.950,-1,3
414,4.25518,1.954,-1,3
415,4.25712,1.946,-1,3
416,4.25907,1.954,-1,3
417,4.26102,1.950,-1,3
418,4.26297,1.950,-1,3
419,4.26493,1.959,-1,3
420,4.26689,1.959,-1,3
421,4.26884,1.937,-1,3
422,4.27078,1.946,-1,3
423,4.27467,1.950,-1,3
424,4.27661,1.941,-1,3
425,4.27856,1.950,-1,3
426,4.28051,1.950,-1,3
427,4.28246,1.946,-1,3
428,4.28441,1.950,-1,3
429,4.28635,1.941,-1,3
430,4.28829,1.937,-1,3
431,4.29024,1.950,-1,3
432,4.29221,1.967,-1,3
433,4.29413,1.924,-1,3
434,4.29608,1.946,-1,3
435,4.29803,1.959,-1,3
436,4.29997,1.937,-1,3
437,4.30191,1.941,-1,3
438,4.30385,1.933,-1,3
439,4.30577,1.929,-1,3
440,4.30771,1.933,-1,3
441,4.30964,1.929,-1,3
442,4.31158,1.946,-1,3
443,4.31351,1.933,-1,3
444,4.31546,1.941,-1,3
445,4.31739,1.933,-1,3
446,4.31933,1.937,-1,3
447,4.32126,1.933,-1,3
448,4.32319,1.929,-1,3
449,4.32510,1.911,-1,3
450,4.32703,1.933,-1,3
451,4.32897,1.941,-1,3
452,4.33089,1.916,-1,3
453,4.33281,1.924,-1,3
454,4.33474,1.929,-1,3
455,4.33666,1.916,-1,3
456,4.33855,1.898,-1,3
457,4.34047,1.920,-1,3
458,4.34240,1.929,-1,3
459,4.34433,1.924,-1,3
460,4.34625,1.924,-1,3
461,4.34817,1.916,-1,3
462,4.35009,1.920,-1,3
463,4.35391,1.911,-1,3
464,4.35391,1.911,-1,3
465,4.35773,1.907,-1,3
466,4.35773,1.907,-1,3
467,4.35965,1.929,-1,3
468,4.36158,1.907,-1,3
469,4.36348,1.920,-1,3
470,4.36734,1.933,-1,3
471,4.36924,1.907,-1,3
472,4.37115,1.911,-1,3
473,4.37306,1.907,-1,3
474,4.37499,1.929,-1,3
475,4.37689,1.903,-1,3
476,4.37881,1.920,-1,3
477,4.38072,1.911,-1,3
478,4.38265,1.929,-1,3
479,4.38456,1.907,-1,3
480,4.38646,1.898,-1,3
481,4.38837,1.911,-1,3
482,4.39030,1.929,-1,3
483,4.39221,1.911,-1,3
484,4.39413,1.924,-1,3
485,4.39605,1.916,-1,3
486,4.39987,1.916,-1,3
487,4.40179,1.916,-1,3
488,4.40371,1.920,-1,3
489,4.40562,1.920,-1,3
490,4.40755,1.924,-1,3
491,4.40947,1.924,-1,3
492,4.41139,1.920,-1,3
493,4.41330,1.911,-1,3
494,4.41522,1.920,-1,3
495,4.41714,1.916,-1,3
496,4.41906,1.924,-1,3
497,4.42098,1.911,-1,3
498,4.42289,1.911,-1,3
499,4.42482,1.929,-1,3
500,4.42674,1.924,-1,3
501,4.42866,1.920,-1,3
502,4.43057,1.916,-1,3
503,4.43252,1.946,-1,3
504,4.43444,1.924,-1,3
505,4.43636,1.920,-1,3
506,4.43829,1.929,-1,3
507,4.44021,1.916,-1,3
508,4.44213,1.920,-1,3
509,4.44407,1.937,-1,3
510,4.44599,1.924,-1,3
511,4.44792,1.933,-1,3
512,4.44985,1.929,-1,3
513,4.45180,1.950,-1,3
514,4.45373,1.933,-1,3
515,4.45565,1.920,-1,3
516,4.45759,1.933,-1,3
517,4.45950,1.916,-1,3
518,4.46144,1.941,-1,3
519,4.46338,1.937,-1,3
520,4.46532,1.941,-1,3
521,4.46727,1.950,-1,3
522,4.46920,1.929,-1,3
523,4.47116,1.959,-1,3
524,4.47309,1.933,-1,3
525,4.47504,1.946,-1,3
526,4.47698,1.946,-1,3
527,4.47895,1.963,-1,3
528,4.48090,1.954,-1,3
529,4.48286,1.963,-1,3
530,4.48483,1.963,-1,3
531,4.48678,1.954,-1,3
532,4.48874,1.954,-1,3
533,4.49069,1.959,-1,3
534,4.49267,1.967,-1,3
535,4.49464,1.963,-1,3
536,4.49660,1.963,-1,3
537,4.50055,1.980,-1,3
538,4.50252,1.972,-1,3
539,4.50452,1.998,-1,3
540,4.50650,1.980,-1,3
541,4.50850,1.998,-1,3
542,4.51049,1.998,-1,3
543,4.51249,1.998,-1,3
544,4.51448,1.985,-1,3
545,4.51647,1.998,-1,3
546,4.51847,1.998,-1,3
547,4.52046,1.993,-1,3
548,4.52247,2.010,-1,3
549,4.52649,2.010,-1,3
550,4.52852,2.028,-1,3
551,4.53054,2.019,-1,3
552,4.53257,2.028,-1,3
553,4.53460,2.032,-1,3
554,4.53662,2.028,-1,3
555,4.53865,2.023,-1,3
556,4.54068,2.028,-1,3
557,4.54271,2.036,-1,3
558,4.54476,2.049,-1,3
559,4.54681,2.049,-1,3
560,4.54887,2.058,-1,3
561,4.55093,2.062,-1,3
562,4.55298,2.049,-1,3
563,4.55504,2.062,-1,3
564,4.55711,2.071,-1,3
565,4.55919,2.080,-1,3
566,4.56128,2.088,-1,3
567,4.56336,2.080,-1,3
568,4.56545,2.092,-1,3
569,4.56755,2.092,-1,3
570,4.56965,2.101,-1,3
571,4.57175,2.105,-1,3
572,4.57386,2.105,-1,3
573,4.57599,2.131,-1,3
574,4.57813,2.140,-1,3
575,4.58025,2.118,-1,3
576,4.58238,2.136,-1,3
577,4.58454,2.153,-1,3
578,4.58667,2.131,-1,3
579,4.58882,2.149,-1,3
580,4.59098,2.161,-1,3
581,4.59314,2.161,-1,3
582,4.59532,2.179,-1,3
583,4.59749,2.170,-1,3
584,4.59968,2.196,-1,3
585,4.60189,2.205,-1,3
586,4.60410,2.213,-1,3
587,4.60630,2.196,-1,3
588,4.60850,2.205,-1,3
589,4.61073,2.226,-1,3
590,4.61297,2.243,-1,3
591,4.61521,2.239,-1,3
592,4.61748,2.265,-1,3
593,4.61974,2.269,-1,3
594,4.62199,2.248,-1,3
595,4.62427,2.282,-1,3
596,4.62657,2.295,-1,3
597,4.62887,2.295,-1,3
598,4.63117,2.308,-1,3
599,4.63349,2.317,-1,3
600,4.63580,2.312,-1,3
601,4.63814,2.338,-1,3
602,4.64048,2.338,-1,3
603,4.64281,2.330,-1,3
604,4.64518,2.369,-1,3
605,4.64757,2.390,-1,3
606,4.64996,2.377,-1,3
607,4.65234,2.377,-1,3
608,4.65473,2.399,-1,3
609,4.65715,2.420,-1,3
610,4.65955,2.399,-1,3
611,4.66442,2.438,-1,3
612,4.66687,2.451,-1,3
613,4.66932,2.451,-1,3
614,4.67181,2.481,-1,3
615,4.67429,2.485,-1,3
616,4.67678,2.485,-1,3
617,4.67927,2.498,-1,3
618,4.68179,2.520,-1,3
619,4.68430,2.502,-1,3
620,4.68683,2.533,-1,3
621,4.68939,2.558,-1,3
622,4.69194,2.554,-1,3
623,4.69450,2.563,-1,3
624,4.69707,2.563,-1,3
625,4.69965,2.584,-1,3
626,4.70226,2.606,-1,3
627,4.70484,2.614,-1,3
628,4.71007,2.614,-1,3
629,4.71271,2.636,-1,3
630,4.71536,2.653,-1,3
631,4.71802,2.662,-1,3
632,4.72068,2.658,-1,3
633,4.72336,2.679,-1,3
634,4.72604,2.684,-1,3
635,4.72872,2.675,-1,3
636,4.73142,2.705,-1,3
637,4.73414,2.718,-1,3
638,4.73687,2.727,-1,3
639,4.73959,2.727,-1,3
640,4.74231,2.718,-1,3
641,4.74507,2.757,-1,3
642,4.74782,2.748,-1,3
643,4.75060,2.783,-1,3
644,4.75336,2.765,-1,3
645,4.75613,2.770,-1,3
646,4.75891,2.778,-1,3
647,4.76171,2.796,-1,3
648,4.76452,2.817,-1,3
649,4.76732,2.800,-1,3
650,4.77014,2.817,-1,3
651,4.77296,2.817,-1,3
652,4.77577,2.813,-1,3
653,4.77859,2.822,-1,3
654,4.78144,2.843,-1,3
655,4.78428,2.839,-1,3
656,4.78712,2.843,-1,3
657,4.78998,2.865,-1,3
658,4.79284,2.856,-1,3
659,4.79570,2.865,-1,3
660,4.79855,2.843,-1,3
661,4.80142,2.869,-1,3
662,4.80430,2.886,-1,3
663,4.80717,2.869,-1,3
664,4.81005,2.873,-1,3
665,4.81294,2.899,-1,3
666,4.81584,2.895,-1,3
667,4.81875,2.912,-1,3
668,4.82163,2.878,-1,3
669,4.82454,2.912,-1,3
670,4.82744,2.899,-1,3
671,4.83038,2.938,-1,3
672,4.83329,2.912,-1,3
673,4.83620,2.912,-1,3
674,4.83914,2.934,-1,3
675,4.84207,2.934,-1,3
676,4.84502,2.947,-1,3
677,4.84795,2.929,-1,3
678,4.85087,2.925,-1,3
679,4.85382,2.947,-1,3
680,4.85678,2.964,-1,3
681,4.85973,2.951,-1,3
682,4.86270,2.964,-1,3
683,4.86567,2.938,-1,3
684,4.86860,2.964,-1,3
685,4.87157,2.964,-1,3
686,4.87453,2.960,-1,3
687,4.87749,2.977,-1,3
688,4.88046,2.977,-1,3
689,4.88640,2.973,-1,3
690,4.88937,2.968,-1,3
691,4.89233,2.964,-1,3
692,4.89530,2.973,-1,3
693,4.89828,2.973,-1,3
694,4.90126,2.981,-1,3
695,4.90422,2.960,-1,3
696,4.90720,2.981,-1,3
697,4.91018,2.977,-1,3
698,4.91318,3.003,-1,3
699,4.91614,2.960,-1,3
700,4.91909,2.955,-1,3
701,4.92210,3.007,-1,3
702,4.92507,2.964,-1,3
703,4.92805,2.981,-1,3
704,4.93104,2.990,-1,3
705,4.93703,2.994,-1,3
706,4.94002,2.990,-1,3
707,4.94299,2.973,-1,3
708,4.94598,2.986,-1,3
709,4.94898,3.007,-1,3
710,4.95193,2.951,-1,3
711,4.95493,2.998,-1,3
712,4.95792,2.990,-1,3
713,4.96093,3.003,-1,3
714,4.96390,2.973,-1,3
715,4.96689,2.990,-1,3
716,4.96987,2.981,-1,3
717,4.97288,3.011,-1,3
718,4.97586,2.981,-1,3
719,4.97886,2.994,-1,3
720,4.98183,2.977,-1,3
721,4.98484,3.011,-1,3
722,4.98780,2.955,-1,3
723,4.99078,2.986,-1,3
724,4.99376,2.977,-1,3
725,4.99678,3.016,-1,3
726,4.99977,2.994,-1,3
727,5.00274,2.968,-1,3
728,5.00573,2.990,-1,3
729,5.00873,3.003,-1,3
730,5.01169,2.955,-1,3
731,5.01466,2.973,-1,3
732,5.01766,2.998,-1,3
733,5.02064,2.977,-1,3
734,5.02363,2.990,-1,3
735,5.02658,2.951,-1,3
736,5.02957,2.998,-1,3
737,5.03254,2.968,-1,3
738,5.03555,3.003,-1,3
739,5.03848,2.934,-1,3
740,5.04146,2.981,-1,3
741,5.04445,2.986,-1,3
742,5.04743,2.981,-1,3
743,5.05039,2.964,-1,3
744,5.05338,2.986,-1,3
745,5.05633,2.960,-1,3
746,5.06226,2.968,-1,3
747,5.06522,2.955,-1,3
748,5.06818,2.960,-1,3
749,5.07113,2.960,-1,3
750,5.07410,2.964,-1,3
751,5.07706,2.960,-1,3
752,5.08000,2.942,-1,3
753,5.08295,2.951,-1,3
754,5.08589,2.938,-1,3
755,5.08881,2.925,-1,3
756,5.09176,2.942,-1,3
757,5.09468,2.921,-1,3
758,5.09763,2.951,-1,3
759,5.10055,2.938,-1,3
760,5.10638,2.895,-1,3
761,5.10932,2.934,-1,3
762,5.11222,2.904,-1,3
763,5.11516,2.942,-1,3
764,5.11806,2.895,-1,3
765,5.12097,2.908,-1,3
766,5.12388,2.912,-1,3
767,5.12679,2.908,-1,3
768,5.12968,2.895,-1,3
769,5.13258,2.899,-1,3
770,5.13546,2.882,-1,3
771,5.13836,2.895,-1,3
772,5.14124,2.886,-1,3
773,5.14414,2.895,-1,3
774,5.14701,2.869,-1,3
775,5.14988,2.878,-1,3
776,5.15275,2.865,-1,3
777,5.15561,2.860,-1,3
778,5.15846,2.847,-1,3
779,5.16133,2.873,-1,3
780,5.16418,2.852,-1,3
781,5.16703,2.852,-1,3
782,5.16988,2.847,-1,3
783,5.17272,2.839,-1,3
784,5.17556,2.839,-1,3
785,5.17839,2.830,-1,3
786,5.18124,2.847,-1,3
787,5.18406,2.822,-1,3
788,5.18685,2.796,-1,3
789,5.18968,2.830,-1,3
790,5.19250,2.817,-1,3
791,5.19531,2.804,-1,3
792,5.19811,2.809,-1,3
793,5.20091,2.791,-1,3
794,5.20369,2.783,-1,3
795,5.20648,2.787,-1,3
796,5.20924,2.761,-1,3
797,5.21204,2.809,-1,3
798,5.21483,2.783,-1,3
799,5.21759,2.765,-1,3
800,5.22035,2.761,-1,3
801,5.22312,2.761,-1,3
802,5.22585,2.735,-1,3
803,5.22861,2.761,-1,3
804,5.23136,2.753,-1,3
805,5.23409,2.722,-1,3
806,5.23680,2.718,-1,3
807,5.23955,2.744,-1,3
808,5.24226,2.709,-1,3
809,5.24498,2.696,-1,3
810,5.24768,2.688,-1,3
811,5.25308,2.718,-1,3
812,5.25577,2.692,-1,3
813,5.25845,2.679,-1,3
814,5.26115,2.692,-1,3
815,5.26380,2.658,-1,3
816,5.26647,2.662,-1,3
817,5.26914,2.671,-1,3
818,5.27179,2.649,-1,3
819,5.27444,2.649,-1,3
820,5.27708,2.640,-1,3
821,5.27972,2.658,-1,3
822,5.28501,2.632,-1,3
823,5.28762,2.610,-1,3
824,5.29025,2.623,-1,3
825,5.29286,2.610,-1,3
826,5.29548,2.623,-1,3
827,5.29809,2.606,-1,3
828,5.30068,2.597,-1,3
829,5.30328,2.597,-1,3
830,5.30587,2.593,-1,3
831,5.30845,2.580,-1,3
832,5.31103,2.580,-1,3
833,5.31361,2.576,-1,3
834,5.31619,2.567,-1,3
835,5.31876,2.567,-1,3
836,5.32129,2.533,-1,3
837,5.32386,2.567,-1,3
838,5.32640,2.537,-1,3
839,5.33149,2.554,-1,3
840,5.33149,2.541,-1,3
841,5.33403,2.541,-1,3
842,5.33656,2.524,-1,3
843,5.33907,2.511,-1,3
844,5.34157,2.502,-1,3
845,5.34408,2.507,-1,3
846,5.34657,2.498,-1,3
847,5.34908,2.502,-1,3
848,5.35155,2.472,-1,3
849,5.35405,2.502,-1,3
850,5.35653,2.481,-1,3
851,5.35902,2.489,-1,3
852,5.36148,2.463,-1,3
853,5.36393,2.446,-1,3
854,5.36639,2.463,-1,3
855,5.36884,2.446,-1,3
856,5.37129,2.446,-1,3
857,5.37373,2.442,-1,3
858,5.37616,2.433,-1,3
859,5.37860,2.442,-1,3
860,5.38104,2.433,-1,3
861,5.38345,2.416,-1,3
862,5.38589,2.433,-1,3
863,5.38828,2.399,-1,3
864,5.39068,2.399,-1,3
865,5.39309,2.407,-1,3
866,5.39550,2.407,-1,3
867,5.39790,2.403,-1,3
868,5.40029,2.386,-1,3
869,5.40265,2.364,-1,3
870,5.40506,2.407,-1,3
871,5.40743,2.369,-1,3
872,5.40980,2.377,-1,3
873,5.41218,2.377,-1,3
