cnt,pos,speed,Dir,Force,
1,3.21154,1.626,-1,2
2,3.21319,1.652,-1,2
3,3.21483,1.644,-1,2
4,3.21650,1.665,-1,2
5,3.21816,1.657,-1,2
6,3.21981,1.657,-1,2
7,3.22148,1.670,-1,2
8,3.22316,1.674,-1,2
9,3.22482,1.665,-1,2
10,3.22650,1.683,-1,2
11,3.22818,1.683,-1,2
12,3.22985,1.665,-1,2
13,3.23155,1.704,-1,2
14,3.23328,1.683,-1,2
15,3.23496,1.713,-1,2
16,3.23838,1.704,-1,2
17,3.24009,1.708,-1,2
18,3.24179,1.708,-1,2
19,3.24353,1.734,-1,2
20,3.24525,1.721,-1,2
21,3.24698,1.726,-1,2
22,3.24870,1.721,-1,2
23,3.25044,1.747,-1,2
24,3.25218,1.734,-1,2
25,3.25393,1.756,-1,2
26,3.25567,1.734,-1,2
27,3.25742,1.752,-1,2
28,3.25918,1.765,-1,2
29,3.26095,1.769,-1,2
30,3.26271,1.760,-1,2
31,3.26449,1.778,-1,2
32,3.26626,1.773,-1,2
33,3.26804,1.778,-1,2
34,3.26982,1.773,-1,2
35,3.27160,1.782,-1,2
36,3.27339,1.790,-1,2
37,3.27518,1.790,-1,2
38,3.27698,1.803,-1,2
39,3.27879,1.808,-1,2
40,3.28060,1.812,-1,2
41,3.28240,1.799,-1,2
42,3.28422,1.825,-1,2
43,3.28603,1.808,-1,2
44,3.28784,1.808,-1,2
45,3.28968,1.838,-1,2
46,3.29149,1.812,-1,2
47,3.29334,1.851,-1,2
48,3.29517,1.834,-1,2
49,3.29699,1.816,-1,2
50,3.29885,1.859,-1,2
51,3.30070,1.851,-1,2
52,3.30257,1.864,-1,2
53,3.30442,1.859,-1,2
54,3.30627,1.842,-1,2
55,3.30812,1.855,-1,2
56,3.30998,1.859,-1,2
57,3.31187,1.885,-1,2
58,3.31370,1.829,-1,2
59,3.31559,1.890,-1,2
60,3.31745,1.868,-1,2
61,3.31934,1.885,-1,2
62,3.32123,1.890,-1,2
63,3.32312,1.894,-1,2
64,3.32501,1.890,-1,2
65,3.32692,1.907,-1,2
66,3.32879,1.868,-1,2
67,3.33070,1.911,-1,2
68,3.33260,1.898,-1,2
69,3.33450,1.903,-1,2
70,3.33642,1.916,-1,2
71,3.33833,1.916,-1,2
72,3.34025,1.916,-1,2
73,3.34215,1.903,-1,2
74,3.34407,1.920,-1,2
75,3.34599,1.924,-1,2
76,3.34793,1.941,-1,2
77,3.34986,1.929,-1,2
78,3.35181,1.946,-1,2
79,3.35375,1.941,-1,2
80,3.35569,1.941,-1,2
81,3.35959,1.946,-1,2
82,3.36155,1.959,-1,2
83,3.36350,1.954,-1,2
84,3.36546,1.959,-1,2
85,3.36742,1.959,-1,2
86,3.36939,1.972,-1,2
87,3.37137,1.980,-1,2
88,3.37335,1.972,-1,2
89,3.37533,1.989,-1,2
90,3.37735,2.010,-1,2
91,3.37933,1.989,-1,2
92,3.38134,1.985,-1,2
93,3.38332,1.985,-1,2
94,3.38533,2.006,-1,2
95,3.38934,2.010,-1,2
96,3.39136,2.019,-1,2
97,3.39337,2.010,-1,2
98,3.39539,2.019,-1,2
99,3.39742,2.032,-1,2
100,3.39946,2.036,-1,2
101,3.40150,2.041,-1,2
102,3.40354,2.041,-1,2
103,3.40559,2.049,-1,2
104,3.40762,2.032,-1,2
105,3.40967,2.045,-1,2
106,3.41172,2.062,-1,2
107,3.41378,2.062,-1,2
108,3.41585,2.071,-1,2
109,3.41792,2.071,-1,2
110,3.42207,2.075,-1,2
111,3.42207,2.071,-1,2
112,3.42414,2.092,-1,2
113,3.42832,2.088,-1,2
114,3.43042,2.101,-1,2
115,3.43253,2.105,-1,2
116,3.43462,2.092,-1,2
117,3.43672,2.101,-1,2
118,3.43884,2.118,-1,2
119,3.44096,2.118,-1,2
120,3.44307,2.118,-1,2
121,3.44520,2.123,-1,2
122,3.44735,2.149,-1,2
123,3.44949,2.144,-1,2
124,3.45163,2.136,-1,2
125,3.45377,2.144,-1,2
126,3.45591,2.144,-1,2
127,3.45807,2.157,-1,2
128,3.46022,2.149,-1,2
129,3.46238,2.170,-1,2
130,3.46456,2.170,-1,2
131,3.46674,2.183,-1,2
132,3.46892,2.183,-1,2
133,3.47111,2.187,-1,2
134,3.47330,2.192,-1,2
135,3.47549,2.192,-1,2
136,3.47767,2.183,-1,2
137,3.47988,2.205,-1,2
138,3.48209,2.213,-1,2
139,3.48431,2.222,-1,2
140,3.48655,2.231,-1,2
141,3.48878,2.231,-1,2
142,3.49099,2.213,-1,2
143,3.49322,2.235,-1,2
144,3.49547,2.248,-1,2
145,3.49772,2.248,-1,2
146,3.49997,2.248,-1,2
147,3.50222,2.252,-1,2
148,3.50448,2.256,-1,2
149,3.50674,2.265,-1,2
150,3.50899,2.252,-1,2
151,3.51127,2.278,-1,2
152,3.51356,2.291,-1,2
153,3.51584,2.278,-1,2
154,3.51813,2.291,-1,2
155,3.52043,2.295,-1,2
156,3.52272,2.291,-1,2
157,3.52502,2.300,-1,2
158,3.52732,2.308,-1,2
159,3.52963,2.308,-1,2
160,3.53195,2.321,-1,2
161,3.53429,2.334,-1,2
162,3.53661,2.321,-1,2
163,3.53893,2.325,-1,2
164,3.54128,2.343,-1,2
165,3.54362,2.343,-1,2
166,3.54596,2.343,-1,2
167,3.54832,2.356,-1,2
168,3.55069,2.369,-1,2
169,3.55303,2.347,-1,2
170,3.55540,2.369,-1,2
171,3.55778,2.377,-1,2
172,3.56015,2.373,-1,2
173,3.56256,2.412,-1,2
174,3.56495,2.386,-1,2
175,3.56734,2.390,-1,2
176,3.56973,2.394,-1,2
177,3.57215,2.416,-1,2
178,3.57455,2.399,-1,2
179,3.57698,2.429,-1,2
180,3.57939,2.416,-1,2
181,3.58184,2.442,-1,2
182,3.58428,2.442,-1,2
183,3.58673,2.451,-1,2
184,3.58919,2.463,-1,2
185,3.59411,2.459,-1,2
186,3.59659,2.472,-1,2
187,3.59908,2.494,-1,2
188,3.60158,2.498,-1,2
189,3.60407,2.489,-1,2
190,3.60658,2.511,-1,2
191,3.60908,2.502,-1,2
192,3.61161,2.533,-1,2
193,3.61413,2.515,-1,2
194,3.61667,2.545,-1,2
195,3.61922,2.545,-1,2
196,3.62179,2.576,-1,2
197,3.62432,2.528,-1,2
198,3.62689,2.567,-1,2
199,3.62948,2.593,-1,2
200,3.63205,2.571,-1,2
201,3.63466,2.602,-1,2
202,3.63727,2.614,-1,2
203,3.63988,2.610,-1,2
204,3.64248,2.602,-1,2
205,3.64510,2.619,-1,2
206,3.64774,2.636,-1,2
207,3.65303,2.649,-1,2
208,3.65567,2.640,-1,2
209,3.65835,2.684,-1,2
210,3.66102,2.671,-1,2
211,3.66371,2.692,-1,2
212,3.66641,2.701,-1,2
213,3.66910,2.684,-1,2
214,3.67181,2.714,-1,2
215,3.67452,2.709,-1,2
216,3.67725,2.731,-1,2
217,3.67998,2.731,-1,2
218,3.68273,2.748,-1,2
219,3.68551,2.778,-1,2
220,3.68826,2.753,-1,2
221,3.69102,2.757,-1,2
222,3.69380,2.778,-1,2
223,3.69658,2.783,-1,2
224,3.69941,2.835,-1,2
225,3.70221,2.800,-1,2
226,3.70502,2.809,-1,2
227,3.70786,2.835,-1,2
228,3.71068,2.822,-1,2
229,3.71352,2.843,-1,2
230,3.71639,2.865,-1,2
231,3.71923,2.847,-1,2
232,3.72210,2.869,-1,2
233,3.72500,2.899,-1,2
234,3.72790,2.895,-1,2
235,3.73080,2.899,-1,2
236,3.73372,2.925,-1,2
237,3.73665,2.925,-1,2
238,3.73958,2.929,-1,2
239,3.74251,2.929,-1,2
240,3.74544,2.938,-1,2
241,3.74840,2.986,-1,2
242,3.75139,2.986,-1,2
243,3.75436,2.973,-1,2
244,3.75736,2.968,-1,2
245,3.76335,3.016,-1,2
246,3.76634,2.994,-1,2
247,3.76937,3.029,-1,2
248,3.77238,3.007,-1,2
249,3.77543,3.050,-1,2
250,3.77847,3.042,-1,2
251,3.78152,3.055,-1,2
252,3.78459,3.063,-1,2
253,3.78765,3.063,-1,2
254,3.79074,3.093,-1,2
255,3.79381,3.067,-1,2
256,3.79691,3.102,-1,2
257,3.80004,3.124,-1,2
258,3.80316,3.119,-1,2
259,3.80629,3.132,-1,2
260,3.80941,3.124,-1,2
261,3.81256,3.145,-1,2
262,3.81570,3.141,-1,2
263,3.81886,3.158,-1,2
264,3.82202,3.162,-1,2
265,3.82522,3.197,-1,2
266,3.82839,3.171,-1,2
267,3.83159,3.201,-1,2
268,3.83476,3.175,-1,2
269,3.83799,3.223,-1,2
270,3.84122,3.223,-1,2
271,3.84444,3.244,-1,2
272,3.84768,3.244,-1,2
273,3.85418,3.266,-1,2
274,3.85418,3.240,-1,2
275,3.86069,3.275,-1,2
276,3.86069,3.253,-1,2
277,3.86725,3.305,-1,2
278,3.87054,3.288,-1,2
279,3.87383,3.292,-1,2
280,3.87714,3.309,-1,2
281,3.88044,3.305,-1,2
282,3.88377,3.326,-1,2
283,3.88710,3.331,-1,2
284,3.89045,3.348,-1,2
285,3.89377,3.318,-1,2
286,3.89712,3.357,-1,2
287,3.90386,3.365,-1,2
288,3.90386,3.357,-1,2
289,3.90722,3.382,-1,2
290,3.91060,3.382,-1,2
291,3.91742,3.408,-1,2
292,3.91742,3.404,-1,2
293,3.92082,3.404,-1,2
294,3.92422,3.404,-1,2
295,3.93106,3.426,-1,2
296,3.93449,3.430,-1,2
297,3.93791,3.417,-1,2
298,3.94136,3.456,-1,2
299,3.94483,3.473,-1,2
300,3.94828,3.443,-1,2
301,3.95174,3.464,-1,2
302,3.95520,3.456,-1,2
303,3.95866,3.464,-1,2
304,3.96562,3.477,-1,2
305,3.96562,3.503,-1,2
306,3.96913,3.490,-1,2
307,3.97262,3.490,-1,2
308,3.97610,3.503,-1,2
309,3.97960,3.503,-1,2
310,3.98313,3.525,-1,2
311,3.99016,3.520,-1,2
312,3.99369,3.529,-1,2
313,3.99723,3.542,-1,2
314,4.00076,3.525,-1,2
315,4.00429,3.538,-1,2
316,4.00783,3.538,-1,2
317,4.01139,3.564,-1,2
318,4.01496,3.568,-1,2
319,4.01852,3.559,-1,2
320,4.02209,3.564,-1,2
321,4.02564,3.551,-1,2
322,4.02921,3.572,-1,2
323,4.03280,3.594,-1,2
324,4.03638,3.572,-1,2
325,4.03996,3.585,-1,2
326,4.04353,3.572,-1,2
327,4.04714,3.611,-1,2
328,4.05075,3.602,-1,2
329,4.05434,3.594,-1,2
330,4.05792,3.581,-1,2
331,4.06155,3.628,-1,2
332,4.06518,3.628,-1,2
333,4.06876,3.581,-1,2
334,4.07239,3.633,-1,2
335,4.07600,3.607,-1,2
336,4.07963,3.628,-1,2
337,4.08325,3.628,-1,2
338,4.08689,3.637,-1,2
339,4.09051,3.620,-1,2
340,4.09415,3.637,-1,2
341,4.09778,3.628,-1,2
342,4.10141,3.633,-1,2
343,4.10503,3.624,-1,2
344,4.10869,3.659,-1,2
345,4.11232,3.628,-1,2
346,4.11595,3.633,-1,2
347,4.11958,3.628,-1,2
348,4.12323,3.646,-1,2
349,4.12689,3.667,-1,2
350,4.13054,3.641,-1,2
351,4.13416,3.624,-1,2
352,4.13781,3.654,-1,2
353,4.14145,3.637,-1,2
354,4.14507,3.624,-1,2
355,4.14873,3.659,-1,2
356,4.15237,3.641,-1,2
357,4.15602,3.650,-1,2
358,4.15966,3.633,-1,2
359,4.16331,3.654,-1,2
360,4.16696,3.646,-1,2
361,4.17059,3.633,-1,2
362,4.17424,3.654,-1,2
363,4.17788,3.637,-1,2
364,4.18155,3.667,-1,2
365,4.18520,3.650,-1,2
366,4.18883,3.637,-1,2
367,4.19245,3.620,-1,2
368,4.19610,3.646,-1,2
369,4.19976,3.663,-1,2
370,4.20341,3.650,-1,2
371,4.20705,3.637,-1,2
372,4.21067,3.620,-1,2
373,4.21431,3.641,-1,2
374,4.21793,3.624,-1,2
375,4.22156,3.628,-1,2
376,4.22522,3.624,-1,2
377,4.22884,3.624,-1,2
378,4.23247,3.620,-1,2
379,4.23970,3.620,-1,2
380,4.24331,3.607,-1,2
381,4.24694,3.633,-1,2
382,4.25056,3.611,-1,2
383,4.25417,3.611,-1,2
384,4.25777,3.602,-1,2
385,4.26138,3.607,-1,2
386,4.26499,3.611,-1,2
387,4.26858,3.594,-1,2
388,4.27216,3.581,-1,2
389,4.27578,3.620,-1,2
390,4.27938,3.594,-1,2
391,4.28294,3.568,-1,2
392,4.28654,3.594,-1,2
393,4.29012,3.585,-1,2
394,4.29370,3.577,-1,2
395,4.29728,3.577,-1,2
396,4.30086,3.581,-1,2
397,4.30441,3.555,-1,2
398,4.30796,3.546,-1,2
399,4.31504,3.533,-1,2
400,4.31857,3.538,-1,2
401,4.32211,3.538,-1,2
402,4.32211,3.516,-1,2
403,4.32563,3.516,-1,2
404,4.32917,3.499,-1,2
405,4.33267,3.516,-1,2
406,4.33967,3.490,-1,2
407,4.34320,3.525,-1,2
408,4.34667,3.473,-1,2
409,4.35016,3.486,-1,2
410,4.35362,3.464,-1,2
411,4.35710,3.482,-1,2
412,4.36054,3.443,-1,2
413,4.36403,3.490,-1,2
414,4.36750,3.460,-1,2
415,4.37093,3.434,-1,2
416,4.37438,3.451,-1,2
417,4.37780,3.417,-1,2
418,4.38120,3.404,-1,2
419,4.38461,3.413,-1,2
420,4.38800,3.387,-1,2
421,4.39142,3.421,-1,2
422,4.39482,3.395,-1,2
423,4.39818,3.361,-1,2
424,4.40155,3.369,-1,2
425,4.40493,3.387,-1,2
426,4.40827,3.339,-1,2
427,4.41163,3.357,-1,2
428,4.41497,3.335,-1,2
429,4.41828,3.313,-1,2
430,4.42161,3.331,-1,2
431,4.42491,3.300,-1,2
432,4.42820,3.292,-1,2
433,4.43150,3.300,-1,2
434,4.43479,3.292,-1,2
435,4.43807,3.279,-1,2
436,4.44133,3.253,-1,2
437,4.44457,3.244,-1,2
438,4.44783,3.257,-1,2
439,4.45105,3.223,-1,2
440,4.45429,3.240,-1,2
441,4.45750,3.206,-1,2
442,4.46069,3.193,-1,2
443,4.46390,3.214,-1,2
444,4.46708,3.175,-1,2
445,4.47026,3.184,-1,2
446,4.47656,3.149,-1,2
447,4.47973,3.171,-1,2
448,4.48287,3.137,-1,2
449,4.48600,3.128,-1,2
450,4.48910,3.106,-1,2
451,4.49222,3.119,-1,2
452,4.49530,3.080,-1,2
453,4.49838,3.076,-1,2
454,4.50145,3.072,-1,2
455,4.50453,3.080,-1,2
456,4.50760,3.067,-1,2
457,4.51064,3.046,-1,2
458,4.51367,3.024,-1,2
459,4.51669,3.024,-1,2
460,4.51970,3.007,-1,2
461,4.52269,2.990,-1,2
462,4.52569,2.998,-1,2
463,4.52866,2.973,-1,2
464,4.53165,2.986,-1,2
465,4.53460,2.951,-1,2
466,4.53756,2.960,-1,2
467,4.54047,2.912,-1,2
468,4.54340,2.934,-1,2
469,4.54631,2.908,-1,2
470,4.54923,2.921,-1,2
471,4.55211,2.878,-1,2
472,4.55499,2.882,-1,2
473,4.55788,2.891,-1,2
474,4.56073,2.852,-1,2
475,4.56359,2.856,-1,2
476,4.56643,2.839,-1,2
477,4.56925,2.826,-1,2
478,4.57207,2.817,-1,2
479,4.57488,2.809,-1,2
480,4.57770,2.817,-1,2
481,4.58049,2.796,-1,2
482,4.58326,2.770,-1,2
483,4.58601,2.744,-1,2
484,4.58877,2.761,-1,2
485,4.59152,2.748,-1,2
486,4.59424,2.727,-1,2
487,4.59696,2.714,-1,2
488,4.59968,2.727,-1,2
489,4.60238,2.701,-1,2
490,4.60507,2.684,-1,2
491,4.60775,2.679,-1,2
492,4.61042,2.671,-1,2
493,4.61307,2.649,-1,2
494,4.61573,2.666,-1,2
495,4.61837,2.640,-1,2
496,4.62097,2.619,-1,2
497,4.62359,2.619,-1,2
498,4.62622,2.623,-1,2
499,4.63138,2.584,-1,2
500,4.63395,2.563,-1,2
501,4.63651,2.558,-1,2
502,4.63906,2.554,-1,2
503,4.64160,2.541,-1,2
504,4.64412,2.515,-1,2
505,4.64665,2.533,-1,2
506,4.64917,2.524,-1,2
507,4.65167,2.498,-1,2
508,4.65416,2.489,-1,2
509,4.65909,2.451,-1,2
510,4.66154,2.451,-1,2
511,4.66398,2.442,-1,2
512,4.66641,2.425,-1,2
513,4.66881,2.403,-1,2
514,4.67121,2.403,-1,2
515,4.67364,2.425,-1,2
516,4.67602,2.386,-1,2
517,4.67839,2.369,-1,2
518,4.68075,2.356,-1,2
519,4.68308,2.334,-1,2
520,4.68543,2.351,-1,2
521,4.68778,2.343,-1,2
522,4.69009,2.308,-1,2
523,4.69240,2.317,-1,2
524,4.69470,2.300,-1,2
525,4.69697,2.265,-1,2
526,4.69924,2.269,-1,2
527,4.70150,2.261,-1,2
528,4.70375,2.256,-1,2
529,4.70599,2.235,-1,2
530,4.70821,2.218,-1,2
531,4.71042,2.218,-1,2
532,4.71265,2.222,-1,2
533,4.71484,2.192,-1,2
534,4.71704,2.200,-1,2
535,4.71922,2.179,-1,2
536,4.72137,2.157,-1,2
537,4.72354,2.166,-1,2
538,4.72569,2.110,-1,2
539,4.72992,2.123,-1,2
540,4.73202,2.101,-1,2
541,4.73412,2.097,-1,2
542,4.73622,2.101,-1,2
543,4.73830,2.075,-1,2
544,4.74038,2.080,-1,2
545,4.74243,2.054,-1,2
546,4.74449,2.058,-1,2
547,4.74654,2.049,-1,2
548,4.74857,2.032,-1,2
549,4.75059,2.015,-1,2
550,4.75260,2.015,-1,2
551,4.75458,1.980,-1,2
552,4.75656,1.976,-1,2
553,4.75854,1.980,-1,2
554,4.76050,1.967,-1,2
555,4.76245,1.950,-1,2
556,4.76442,1.963,-1,2
557,4.76635,1.929,-1,2
558,4.76826,1.916,-1,2
559,4.77018,1.916,-1,2
560,4.77207,1.894,-1,2
561,4.77395,1.881,-1,2
562,4.77583,1.881,-1,2
563,4.77769,1.859,-1,2
564,4.77956,1.864,-1,2
565,4.78141,1.851,-1,2
566,4.78323,1.825,-1,2
567,4.78506,1.829,-1,2
568,4.78686,1.799,-1,2
569,4.78868,1.821,-1,2
570,4.79048,1.803,-1,2
571,4.79227,1.782,-1,2
572,4.79403,1.760,-1,2
573,4.79579,1.760,-1,2
574,4.79753,1.747,-1,2
575,4.79925,1.721,-1,2
576,4.80099,1.734,-1,2
577,4.80271,1.717,-1,2
578,4.80441,1.708,-1,2
579,4.80613,1.713,-1,2
580,4.80778,1.657,-1,2
581,4.80946,1.674,-1,2
582,4.81114,1.678,-1,2
583,4.81280,1.661,-1,2
584,4.81445,1.652,-1,2
585,4.81608,1.635,-1,2
586,4.81769,1.609,-1,2
587,4.81932,1.626,-1,2
588,4.82092,1.601,-1,2
589,4.82252,1.596,-1,2
590,4.82409,1.575,-1,2
591,4.82565,1.553,-1,2
592,4.82721,1.562,-1,2
593,4.82877,1.562,-1,2
594,4.83186,1.536,-1,2
595,4.83338,1.519,-1,2
596,4.83489,1.510,-1,2
597,4.83638,1.497,-1,2
598,4.83787,1.484,-1,2
599,4.83936,1.488,-1,2
600,4.84083,1.475,-1,2
601,4.84229,1.458,-1,2
602,4.84374,1.454,-1,2
603,4.84519,1.450,-1,2
604,4.84662,1.428,-1,2
605,4.84803,1.411,-1,2
606,4.84945,1.419,-1,2
607,4.85085,1.394,-1,2
608,4.85225,1.402,-1,2
609,4.85362,1.368,-1,2
610,4.85500,1.359,-1,2
611,4.85636,1.359,-1,2
612,4.85906,1.329,-1,2
613,4.85906,1.342,-1,2
614,4.86170,1.299,-1,2
615,4.86170,1.329,-1,2
616,4.86432,1.294,-1,2
617,4.86561,1.294,-1,2
618,4.86688,1.268,-1,2
619,4.86815,1.273,-1,2
620,4.86941,1.255,-1,2
621,4.87065,1.243,-1,2
622,4.87189,1.234,-1,2
623,4.87312,1.230,-1,2
624,4.87433,1.217,-1,2
625,4.87551,1.182,-1,2
626,4.87672,1.204,-1,2
627,4.87790,1.178,-1,2
628,4.87908,1.182,-1,2
629,4.88024,1.165,-1,2
630,4.88140,1.152,-1,2
631,4.88254,1.148,-1,2
632,4.88366,1.122,-1,2
633,4.88480,1.130,-1,2
634,4.88590,1.100,-1,2
635,4.88701,1.113,-1,2
636,4.88810,1.096,-1,2
637,4.88917,1.066,-1,2
638,4.89023,1.061,-1,2
639,4.89128,1.048,-1,2
640,4.89234,1.061,-1,2
641,4.89337,1.031,-1,2
642,4.89441,1.035,-1,2
643,4.89541,1.005,-1,2
644,4.89643,1.014,-1,2
645,4.89741,0.984,-1,2
646,4.89841,1.001,-1,2
647,4.89938,0.971,-1,2
648,4.90036,0.975,-1,2
649,4.90130,0.945,-1,2
650,4.90225,0.945,-1,2
651,4.90316,0.915,-1,2
652,4.90409,0.932,-1,2
653,4.90500,0.906,-1,2
654,4.90590,0.897,-1,2
655,4.90680,0.906,-1,2
656,4.90767,0.871,-1,2
657,4.90856,0.884,-1,2
658,4.90940,0.841,-1,2
659,4.91025,0.854,-1,2
660,4.91109,0.837,-1,2
661,4.91191,0.824,-1,2
662,4.91275,0.833,-1,2
663,4.91355,0.798,-1,2
664,4.91434,0.798,-1,2
665,4.91591,0.772,-1,2
666,4.91591,0.742,-1,2
667,4.91743,0.781,-1,2
668,4.91817,0.733,-1,2
669,4.91889,0.725,-1,2
670,4.91963,0.742,-1,2
671,4.92034,0.712,-1,2
672,4.92105,0.703,-1,2
673,4.92176,0.708,-1,2
674,4.92242,0.660,-1,2
675,4.92309,0.673,-1,2
676,4.92374,0.656,-1,2
677,4.92441,0.669,-1,2
678,4.92505,0.634,-1,2
679,4.92567,0.626,-1,2
680,4.92629,0.621,-1,2
681,4.92693,0.634,-1,2
682,4.92752,0.591,-1,2
683,4.92812,0.600,-1,2
684,4.92869,0.574,-1,2
685,4.92928,0.582,-1,2
686,4.92986,0.587,-1,2
687,4.93041,0.548,-1,2
688,4.93094,0.531,-1,2
689,4.93148,0.544,-1,2
690,4.93201,0.522,-1,2
691,4.93252,0.518,-1,2
692,4.93302,0.496,-1,2
693,4.93351,0.492,-1,2
694,4.93400,0.488,-1,2
695,4.93447,0.466,-1,2
696,4.93494,0.470,-1,2
697,4.93538,0.449,-1,2
698,4.93582,0.440,-1,2
699,4.93626,0.440,-1,2
700,4.93668,0.418,-1,2
701,4.93710,0.414,-1,2
702,4.93750,0.406,-1,2
703,4.93789,0.388,-1,2
704,4.93828,0.393,-1,2
705,4.93864,0.358,-1,2
706,4.93903,0.388,-1,2
707,4.93940,0.367,-1,2
708,4.93973,0.337,-1,2
709,4.94007,0.332,-1,2
710,4.94039,0.324,-1,2
711,4.94070,0.311,-1,2
712,4.94101,0.306,-1,2
713,4.94130,0.298,-1,2
714,4.94161,0.302,-1,2
715,4.94187,0.267,-1,2
716,4.94214,0.263,-1,2
717,4.94240,0.259,-1,2
718,4.94265,0.250,-1,2
719,4.94312,0.233,-1,2
720,4.94334,0.224,-1,2
721,4.94334,0.216,-1,2
722,4.94356,0.198,-1,2
723,4.94375,0.198,-1,2
724,4.94395,0.198,-1,2
725,4.94413,0.177,-1,2
726,4.94445,0.160,-1,2
727,4.94460,0.147,-1,2
728,4.94475,0.147,-1,2
729,4.94488,0.129,-1,2
730,4.94501,0.129,-1,2
731,4.94512,0.112,-1,2
732,4.94522,0.104,-1,2
733,4.94531,0.086,-1,2
734,4.94540,0.091,-1,2
735,4.94555,0.069,-1,2
736,4.94555,0.056,-1,2
737,4.94561,0.056,-1,2
738,4.94570,0.043,-1,2
739,4.94570,0.030,-1,2
740,4.94575,0.017,-1,2
741,4.94577,0.013,-1,2
742,4.94577,-0.000,-1,2
743,4.94576,-0.004,-1,2
744,4.94574,-0.017,-1,2
745,4.94572,-0.022,-1,2
746,4.94569,-0.030,-1,2
747,4.94565,-0.043,-1,2
748,4.94560,-0.052,-1,2
749,4.94554,-0.056,-1,2
750,4.94546,-0.082,-1,2
751,4.94539,-0.073,-1,2
752,4.94531,-0.078,-1,2
753,4.94522,-0.091,-1,2
754,4.94512,-0.095,-1,2
755,4.94501,-0.108,-1,2
756,4.94489,-0.121,-1,2
757,4.94477,-0.125,-1,2
758,4.94451,-0.138,-1,2
759,4.94436,-0.147,-1,2
760,4.94421,-0.151,-1,2
761,4.94405,-0.160,-1,2
762,4.94388,-0.168,-1,2
763,4.94370,-0.181,-1,2
764,4.94352,-0.181,-1,2
765,4.94333,-0.194,-1,2
766,4.94312,-0.211,-1,2
767,4.94291,-0.203,-1,2
768,4.94270,-0.216,-1,2
769,4.94248,-0.220,-1,2
770,4.94224,-0.233,-1,2
771,4.94200,-0.242,-1,2
772,4.94177,-0.233,-1,2
773,4.94152,-0.250,-1,2
774,4.94125,-0.272,-1,2
775,4.94098,-0.272,-1,2
776,4.94071,-0.267,-1,2
777,4.94043,-0.280,-1,2
778,4.94014,-0.285,-1,2
779,4.93985,-0.293,-1,2
780,4.93956,-0.293,-1,2
781,4.93923,-0.328,-1,2
782,4.93891,-0.319,-1,2
783,4.93857,-0.341,-1,2
784,4.93824,-0.328,-1,2
785,4.93790,-0.341,-1,2
786,4.93755,-0.354,-1,2
787,4.93719,-0.354,-1,2
788,4.93683,-0.367,-1,2
789,4.93646,-0.367,-1,2
790,4.93608,-0.375,-1,2
791,4.93570,-0.388,-1,2
792,4.93530,-0.397,-1,2
793,4.93491,-0.388,-1,2
794,4.93450,-0.406,-1,2
795,4.93409,-0.418,-1,2
796,4.93366,-0.427,-1,2
797,4.93324,-0.418,-1,2
798,4.93281,-0.427,-1,2
799,4.93236,-0.449,-1,2
800,4.93190,-0.466,-1,2
801,4.93145,-0.444,-1,2
802,4.93098,-0.470,-1,2
803,4.93051,-0.475,-1,2
804,4.92955,-0.488,-1,2
805,4.92903,-0.518,-1,2
806,4.92853,-0.505,-1,2
807,4.92802,-0.509,-1,2
808,4.92751,-0.513,-1,2
809,4.92699,-0.513,-1,2
810,4.92644,-0.557,-1,2
811,4.92590,-0.535,-1,2
812,4.92536,-0.544,-1,2
813,4.92481,-0.544,-1,2
814,4.92426,-0.552,-1,2
815,4.92368,-0.578,-1,2
816,4.92311,-0.569,-1,2
817,4.92254,-0.578,-1,2
818,4.92195,-0.582,-1,2
819,4.92134,-0.613,-1,2
820,4.92074,-0.600,-1,2
821,4.92013,-0.613,-1,2
822,4.91952,-0.613,-1,2
823,4.91887,-0.643,-1,2
824,4.91825,-0.626,-1,2
825,4.91762,-0.630,-1,2
826,4.91698,-0.634,-1,2
827,4.91565,-0.664,-1,2
828,4.91498,-0.664,-1,2
829,4.91429,-0.690,-1,2
830,4.91361,-0.682,-1,2
831,4.91292,-0.686,-1,2
832,4.91221,-0.716,-1,2
833,4.91150,-0.703,-1,2
834,4.91079,-0.712,-1,2
835,4.91006,-0.733,-1,2
836,4.90933,-0.725,-1,2
837,4.90861,-0.725,-1,2
838,4.90785,-0.764,-1,2
839,4.90710,-0.751,-1,2
840,4.90635,-0.746,-1,2
841,4.90556,-0.790,-1,2
842,4.90479,-0.768,-1,2
843,4.90401,-0.781,-1,2
844,4.90323,-0.785,-1,2
845,4.90244,-0.781,-1,2
846,4.90163,-0.811,-1,2
847,4.90083,-0.807,-1,2
848,4.90001,-0.820,-1,2
849,4.89917,-0.833,-1,2
850,4.89835,-0.828,-1,2
851,4.89749,-0.859,-1,2
852,4.89665,-0.837,-1,2
853,4.89578,-0.871,-1,2
854,4.89493,-0.846,-1,2
855,4.89405,-0.880,-1,2
856,4.89317,-0.880,-1,2
857,4.89230,-0.876,-1,2
858,4.89138,-0.876,-1,2
859,4.88959,-0.919,-1,2
860,4.88870,-0.889,-1,2
861,4.88870,-0.889,-1,2
862,4.88777,-0.932,-1,2
863,4.88684,-0.923,-1,2
864,4.88589,-0.928,-1,2
865,4.88496,-0.958,-1,2
866,4.88305,-0.949,-1,2
867,4.88209,-0.966,-1,2
