cnt,pos,speed,Dir,Force,
1,3.20988,2.951,-1,3
2,3.21282,2.938,-1,3
3,3.21574,2.916,-1,3
4,3.21867,2.934,-1,3
5,3.22156,2.891,-1,3
6,3.22445,2.895,-1,3
7,3.22734,2.882,-1,3
8,3.23021,2.873,-1,3
9,3.23310,2.895,-1,3
10,3.23598,2.873,-1,3
11,3.23883,2.847,-1,3
12,3.24166,2.839,-1,3
13,3.24450,2.839,-1,3
14,3.24735,2.843,-1,3
15,3.25015,2.804,-1,3
16,3.25295,2.804,-1,3
17,3.25575,2.800,-1,3
18,3.25855,2.796,-1,3
19,3.26134,2.796,-1,3
20,3.26414,2.796,-1,3
21,3.26689,2.748,-1,3
22,3.26964,2.757,-1,3
23,3.27239,2.744,-1,3
24,3.27512,2.735,-1,3
25,3.27788,2.761,-1,3
26,3.28060,2.718,-1,3
27,3.28331,2.705,-1,3
28,3.28602,2.709,-1,3
29,3.28872,2.701,-1,3
30,3.29138,2.666,-1,3
31,3.29407,2.688,-1,3
32,3.29673,2.662,-1,3
33,3.29940,2.671,-1,3
34,3.30207,2.666,-1,3
35,3.30472,2.653,-1,3
36,3.30736,2.640,-1,3
37,3.30999,2.632,-1,3
38,3.31261,2.619,-1,3
39,3.31522,2.610,-1,3
40,3.31783,2.602,-1,3
41,3.32044,2.614,-1,3
42,3.32305,2.610,-1,3
43,3.32563,2.576,-1,3
44,3.32818,2.558,-1,3
45,3.33078,2.593,-1,3
46,3.33332,2.545,-1,3
47,3.33590,2.576,-1,3
48,3.33846,2.563,-1,3
49,3.34098,2.524,-1,3
50,3.34351,2.528,-1,3
51,3.34604,2.528,-1,3
52,3.34859,2.545,-1,3
53,3.35111,2.528,-1,3
54,3.35362,2.507,-1,3
55,3.35613,2.507,-1,3
56,3.35863,2.502,-1,3
57,3.36113,2.502,-1,3
58,3.36362,2.485,-1,3
59,3.36610,2.485,-1,3
60,3.36858,2.481,-1,3
61,3.37106,2.472,-1,3
62,3.37353,2.472,-1,3
63,3.37599,2.459,-1,3
64,3.37845,2.468,-1,3
65,3.38091,2.455,-1,3
66,3.38337,2.459,-1,3
67,3.38582,2.455,-1,3
68,3.38827,2.451,-1,3
69,3.39069,2.416,-1,3
70,3.39311,2.425,-1,3
71,3.39554,2.425,-1,3
72,3.39796,2.425,-1,3
73,3.40039,2.429,-1,3
74,3.40283,2.433,-1,3
75,3.40524,2.412,-1,3
76,3.40764,2.399,-1,3
77,3.41003,2.390,-1,3
78,3.41244,2.416,-1,3
79,3.41484,2.399,-1,3
80,3.41725,2.412,-1,3
81,3.41965,2.394,-1,3
82,3.42203,2.382,-1,3
83,3.42444,2.407,-1,3
84,3.42683,2.390,-1,3
85,3.42922,2.394,-1,3
86,3.43162,2.394,-1,3
87,3.43399,2.377,-1,3
88,3.43637,2.377,-1,3
89,3.43876,2.390,-1,3
90,3.44114,2.382,-1,3
91,3.44352,2.377,-1,3
92,3.44590,2.382,-1,3
93,3.44828,2.382,-1,3
94,3.45065,2.373,-1,3
95,3.45304,2.390,-1,3
96,3.45541,2.364,-1,3
97,3.45779,2.382,-1,3
98,3.46017,2.382,-1,3
99,3.46254,2.369,-1,3
100,3.46493,2.386,-1,3
101,3.46729,2.369,-1,3
102,3.46967,2.377,-1,3
103,3.47205,2.382,-1,3
104,3.47443,2.377,-1,3
105,3.47681,2.382,-1,3
106,3.47918,2.373,-1,3
107,3.48157,2.382,-1,3
108,3.48394,2.377,-1,3
109,3.48633,2.382,-1,3
110,3.48872,2.399,-1,3
111,3.49109,2.364,-1,3
112,3.49347,2.386,-1,3
113,3.49586,2.390,-1,3
114,3.49825,2.386,-1,3
115,3.50064,2.386,-1,3
116,3.50302,2.386,-1,3
117,3.50540,2.377,-1,3
118,3.50779,2.390,-1,3
119,3.51017,2.386,-1,3
120,3.51256,2.386,-1,3
121,3.51496,2.403,-1,3
122,3.51738,2.412,-1,3
123,3.51978,2.403,-1,3
124,3.52216,2.386,-1,3
125,3.52456,2.399,-1,3
126,3.52697,2.403,-1,3
127,3.52936,2.394,-1,3
128,3.53176,2.403,-1,3
129,3.53417,2.407,-1,3
130,3.53658,2.407,-1,3
131,3.53898,2.399,-1,3
132,3.54138,2.407,-1,3
133,3.54380,2.412,-1,3
134,3.54620,2.403,-1,3
135,3.54862,2.425,-1,3
136,3.55103,2.407,-1,3
137,3.55343,2.403,-1,3
138,3.55585,2.416,-1,3
139,3.55828,2.429,-1,3
140,3.56073,2.446,-1,3
141,3.56315,2.425,-1,3
142,3.56556,2.412,-1,3
143,3.56799,2.429,-1,3
144,3.57042,2.425,-1,3
145,3.57287,2.451,-1,3
146,3.57530,2.438,-1,3
147,3.57773,2.425,-1,3
148,3.58017,2.442,-1,3
149,3.58263,2.459,-1,3
150,3.58511,2.481,-1,3
151,3.58759,2.476,-1,3
152,3.59006,2.472,-1,3
153,3.59252,2.463,-1,3
154,3.59502,2.498,-1,3
155,3.59748,2.463,-1,3
156,3.59997,2.489,-1,3
157,3.60246,2.485,-1,3
158,3.60496,2.502,-1,3
159,3.60748,2.524,-1,3
160,3.61000,2.515,-1,3
161,3.61251,2.507,-1,3
162,3.61504,2.533,-1,3
163,3.61760,2.563,-1,3
164,3.62013,2.528,-1,3
165,3.62269,2.558,-1,3
166,3.62522,2.537,-1,3
167,3.62779,2.563,-1,3
168,3.63035,2.558,-1,3
169,3.63293,2.584,-1,3
170,3.63553,2.602,-1,3
171,3.63812,2.584,-1,3
172,3.64070,2.589,-1,3
173,3.64330,2.597,-1,3
174,3.64590,2.597,-1,3
175,3.64851,2.614,-1,3
176,3.65114,2.623,-1,3
177,3.65378,2.640,-1,3
178,3.65641,2.632,-1,3
179,3.65904,2.632,-1,3
180,3.66170,2.658,-1,3
181,3.66435,2.649,-1,3
182,3.66698,2.636,-1,3
183,3.66965,2.671,-1,3
184,3.67232,2.671,-1,3
185,3.67500,2.679,-1,3
186,3.67767,2.692,-1,3
187,3.68037,2.692,-1,3
188,3.68307,2.705,-1,3
189,3.68578,2.705,-1,3
190,3.68848,2.701,-1,3
191,3.69120,2.722,-1,3
192,3.69390,2.727,-1,3
193,3.69937,2.748,-1,3
194,3.70209,2.722,-1,3
195,3.70482,2.722,-1,3
196,3.70758,2.761,-1,3
197,3.71032,2.748,-1,3
198,3.71307,2.748,-1,3
199,3.71583,2.757,-1,3
200,3.71859,2.757,-1,3
201,3.72135,2.765,-1,3
202,3.72412,2.765,-1,3
203,3.72690,2.787,-1,3
204,3.72967,2.765,-1,3
205,3.73246,2.791,-1,3
206,3.73524,2.778,-1,3
207,3.73801,2.765,-1,3
208,3.74080,2.796,-1,3
209,3.74358,2.774,-1,3
210,3.74634,2.770,-1,3
211,3.74915,2.804,-1,3
212,3.75195,2.800,-1,3
213,3.75474,2.791,-1,3
214,3.75755,2.813,-1,3
215,3.76032,2.765,-1,3
216,3.76312,2.804,-1,3
217,3.76592,2.796,-1,3
218,3.76872,2.800,-1,3
219,3.77153,2.813,-1,3
220,3.77431,2.783,-1,3
221,3.77711,2.800,-1,3
222,3.77993,2.817,-1,3
223,3.78273,2.800,-1,3
224,3.78553,2.796,-1,3
225,3.78830,2.774,-1,3
226,3.79113,2.830,-1,3
227,3.79391,2.783,-1,3
228,3.79673,2.813,-1,3
229,3.79956,2.830,-1,3
230,3.80237,2.809,-1,3
231,3.80518,2.813,-1,3
232,3.80798,2.804,-1,3
233,3.81081,2.822,-1,3
234,3.81363,2.822,-1,3
235,3.81643,2.800,-1,3
236,3.81925,2.826,-1,3
237,3.82206,2.809,-1,3
238,3.82490,2.835,-1,3
239,3.82773,2.835,-1,3
240,3.83056,2.826,-1,3
241,3.83339,2.835,-1,3
242,3.83621,2.817,-1,3
243,3.83905,2.839,-1,3
244,3.84187,2.826,-1,3
245,3.84470,2.830,-1,3
246,3.84755,2.847,-1,3
247,3.85038,2.835,-1,3
248,3.85320,2.817,-1,3
249,3.85606,2.856,-1,3
250,3.85889,2.830,-1,3
251,3.86173,2.839,-1,3
252,3.86457,2.847,-1,3
253,3.86743,2.856,-1,3
254,3.87028,2.852,-1,3
255,3.87313,2.847,-1,3
256,3.87598,2.852,-1,3
257,3.87883,2.852,-1,3
258,3.88170,2.869,-1,3
259,3.88455,2.852,-1,3
260,3.88742,2.869,-1,3
261,3.89030,2.873,-1,3
262,3.89316,2.865,-1,3
263,3.89603,2.865,-1,3
264,3.89892,2.891,-1,3
265,3.90179,2.873,-1,3
266,3.90469,2.899,-1,3
267,3.90755,2.865,-1,3
268,3.91045,2.895,-1,3
269,3.91334,2.891,-1,3
270,3.91626,2.925,-1,3
271,3.91917,2.904,-1,3
272,3.92208,2.912,-1,3
273,3.92497,2.912,-1,3
274,3.92788,2.925,-1,3
275,3.93372,2.912,-1,3
276,3.93664,2.921,-1,3
277,3.93958,2.938,-1,3
278,3.94251,2.934,-1,3
279,3.94545,2.934,-1,3
280,3.94838,2.938,-1,3
281,3.95133,2.947,-1,3
282,3.95426,2.929,-1,3
283,3.95720,2.942,-1,3
284,3.96015,2.951,-1,3
285,3.96311,2.955,-1,3
286,3.96608,2.968,-1,3
287,3.96904,2.960,-1,3
288,3.97201,2.973,-1,3
289,3.97495,2.938,-1,3
290,3.97792,2.968,-1,3
291,3.98088,2.964,-1,3
292,3.98387,2.994,-1,3
293,3.98683,2.960,-1,3
294,3.98981,2.973,-1,3
295,3.99280,2.994,-1,3
296,3.99578,2.977,-1,3
297,3.99877,2.990,-1,3
298,4.00175,2.986,-1,3
299,4.00473,2.981,-1,3
300,4.00773,2.994,-1,3
301,4.01072,2.994,-1,3
302,4.01372,2.998,-1,3
303,4.01673,3.007,-1,3
304,4.01973,3.003,-1,3
305,4.02273,2.998,-1,3
306,4.02573,3.003,-1,3
307,4.02873,2.994,-1,3
308,4.03172,2.998,-1,3
309,4.03475,3.024,-1,3
310,4.03774,2.990,-1,3
311,4.04077,3.029,-1,3
312,4.04375,2.986,-1,3
313,4.04678,3.029,-1,3
314,4.04979,3.011,-1,3
315,4.05282,3.024,-1,3
316,4.05580,2.986,-1,3
317,4.05883,3.029,-1,3
318,4.06184,3.007,-1,3
319,4.06488,3.042,-1,3
320,4.06788,3.003,-1,3
321,4.07089,3.003,-1,3
322,4.07392,3.037,-1,3
323,4.07693,3.003,-1,3
324,4.07995,3.024,-1,3
325,4.08297,3.024,-1,3
326,4.08599,3.020,-1,3
327,4.08901,3.020,-1,3
328,4.09204,3.024,-1,3
329,4.09504,3.003,-1,3
330,4.09807,3.033,-1,3
331,4.10108,3.007,-1,3
332,4.10410,3.020,-1,3
333,4.10712,3.020,-1,3
334,4.11014,3.016,-1,3
335,4.11314,3.003,-1,3
336,4.11616,3.024,-1,3
337,4.11916,2.994,-1,3
338,4.12219,3.033,-1,3
339,4.12520,3.007,-1,3
340,4.12823,3.033,-1,3
341,4.13122,2.990,-1,3
342,4.13422,3.003,-1,3
343,4.13726,3.033,-1,3
344,4.14025,2.994,-1,3
345,4.14325,2.994,-1,3
346,4.14626,3.016,-1,3
347,4.14927,3.011,-1,3
348,4.15229,3.016,-1,3
349,4.15532,3.029,-1,3
350,4.15833,3.011,-1,3
351,4.16133,3.003,-1,3
352,4.16435,3.020,-1,3
353,4.16737,3.016,-1,3
354,4.17037,3.007,-1,3
355,4.17341,3.033,-1,3
356,4.17641,3.007,-1,3
357,4.17945,3.033,-1,3
358,4.18245,3.037,-1,3
359,4.18549,3.016,-1,3
360,4.19153,3.020,-1,3
361,4.19456,3.033,-1,3
362,4.19758,3.024,-1,3
363,4.20063,3.050,-1,3
364,4.20367,3.037,-1,3
365,4.20670,3.029,-1,3
366,4.20975,3.046,-1,3
367,4.21276,3.016,-1,3
368,4.21579,3.029,-1,3
369,4.21884,3.046,-1,3
370,4.22190,3.063,-1,3
371,4.22494,3.042,-1,3
372,4.22799,3.050,-1,3
373,4.23101,3.020,-1,3
374,4.23407,3.055,-1,3
375,4.23712,3.050,-1,3
376,4.24017,3.050,-1,3
377,4.24321,3.055,-1,3
378,4.24934,3.080,-1,3
379,4.25240,3.059,-1,3
380,4.25547,3.067,-1,3
381,4.25852,3.050,-1,3
382,4.26159,3.072,-1,3
383,4.26468,3.089,-1,3
384,4.26775,3.067,-1,3
385,4.27082,3.072,-1,3
386,4.27391,3.089,-1,3
387,4.27698,3.076,-1,3
388,4.28007,3.089,-1,3
389,4.28315,3.080,-1,3
390,4.28624,3.089,-1,3
391,4.28934,3.098,-1,3
392,4.29245,3.111,-1,3
393,4.29555,3.093,-1,3
394,4.29865,3.102,-1,3
395,4.30175,3.102,-1,3
396,4.30486,3.106,-1,3
397,4.30794,3.085,-1,3
398,4.31102,3.076,-1,3
399,4.31412,3.102,-1,3
400,4.31725,3.128,-1,3
401,4.32033,3.089,-1,3
402,4.32345,3.115,-1,3
403,4.32653,3.080,-1,3
404,4.32965,3.124,-1,3
405,4.33276,3.102,-1,3
406,4.33586,3.106,-1,3
407,4.33897,3.106,-1,3
408,4.34207,3.102,-1,3
409,4.34519,3.124,-1,3
410,4.34830,3.106,-1,3
411,4.35140,3.102,-1,3
412,4.35452,3.115,-1,3
413,4.35762,3.106,-1,3
414,4.36073,3.102,-1,3
415,4.36387,3.141,-1,3
416,4.36699,3.124,-1,3
417,4.37010,3.106,-1,3
418,4.37322,3.119,-1,3
419,4.37633,3.115,-1,3
420,4.37944,3.111,-1,3
421,4.38258,3.137,-1,3
422,4.38568,3.098,-1,3
423,4.38881,3.137,-1,3
424,4.39194,3.128,-1,3
425,4.39508,3.141,-1,3
426,4.39818,3.102,-1,3
427,4.40132,3.137,-1,3
428,4.40445,3.128,-1,3
429,4.40758,3.137,-1,3
430,4.41074,3.154,-1,3
431,4.41386,3.119,-1,3
432,4.41700,3.141,-1,3
433,4.42014,3.141,-1,3
434,4.42326,3.124,-1,3
435,4.42641,3.149,-1,3
436,4.42954,3.132,-1,3
437,4.43270,3.154,-1,3
438,4.43585,3.149,-1,3
439,4.43898,3.137,-1,3
440,4.44213,3.145,-1,3
441,4.44528,3.154,-1,3
442,4.44844,3.154,-1,3
443,4.45160,3.162,-1,3
444,4.45475,3.154,-1,3
445,4.45792,3.171,-1,3
446,4.46105,3.124,-1,3
447,4.46423,3.180,-1,3
448,4.46739,3.162,-1,3
449,4.47057,3.180,-1,3
450,4.47373,3.167,-1,3
451,4.47689,3.158,-1,3
452,4.48008,3.184,-1,3
453,4.48327,3.188,-1,3
454,4.48644,3.175,-1,3
455,4.48962,3.175,-1,3
456,4.49280,3.188,-1,3
457,4.49597,3.167,-1,3
458,4.50234,3.175,-1,3
459,4.50554,3.197,-1,3
460,4.50873,3.193,-1,3
461,4.51193,3.197,-1,3
462,4.51512,3.197,-1,3
463,4.51831,3.184,-1,3
464,4.52152,3.210,-1,3
465,4.52469,3.175,-1,3
466,4.52790,3.210,-1,3
467,4.53111,3.206,-1,3
468,4.53433,3.218,-1,3
469,4.53754,3.214,-1,3
470,4.54072,3.180,-1,3
471,4.54394,3.210,-1,3
472,4.55038,3.236,-1,3
473,4.55360,3.214,-1,3
474,4.55682,3.223,-1,3
475,4.56006,3.236,-1,3
476,4.56329,3.236,-1,3
477,4.56652,3.231,-1,3
478,4.56976,3.240,-1,3
479,4.57300,3.240,-1,3
480,4.57625,3.249,-1,3
481,4.57952,3.266,-1,3
482,4.58278,3.262,-1,3
483,4.58602,3.244,-1,3
484,4.58930,3.275,-1,3
485,4.59256,3.262,-1,3
486,4.59584,3.283,-1,3
487,4.59911,3.270,-1,3
488,4.60241,3.300,-1,3
489,4.60572,3.305,-1,3
490,4.60899,3.270,-1,3
491,4.61231,3.322,-1,3
492,4.61563,3.318,-1,3
493,4.61893,3.305,-1,3
494,4.62226,3.326,-1,3
495,4.62558,3.318,-1,3
496,4.62893,3.352,-1,3
497,4.63228,3.348,-1,3
498,4.63561,3.335,-1,3
499,4.63897,3.352,-1,3
500,4.64233,3.361,-1,3
501,4.64570,3.374,-1,3
502,4.64910,3.395,-1,3
503,4.65247,3.378,-1,3
504,4.65586,3.382,-1,3
505,4.65926,3.408,-1,3
506,4.66266,3.395,-1,3
507,4.66608,3.421,-1,3
508,4.66947,3.391,-1,3
509,4.67290,3.426,-1,3
510,4.67633,3.434,-1,3
511,4.67977,3.434,-1,3
512,4.68316,3.395,-1,3
513,4.68662,3.456,-1,3
514,4.69009,3.469,-1,3
515,4.69355,3.460,-1,3
516,4.69698,3.434,-1,3
517,4.70046,3.477,-1,3
518,4.70393,3.469,-1,3
519,4.70740,3.473,-1,3
520,4.71085,3.451,-1,3
521,4.71435,3.499,-1,3
522,4.71784,3.495,-1,3
523,4.72136,3.512,-1,3
524,4.72484,3.486,-1,3
525,4.72836,3.520,-1,3
526,4.73187,3.503,-1,3
527,4.73538,3.516,-1,3
528,4.73891,3.525,-1,3
529,4.74241,3.508,-1,3
530,4.74594,3.525,-1,3
531,4.74947,3.533,-1,3
532,4.75302,3.551,-1,3
533,4.75655,3.525,-1,3
534,4.76009,3.538,-1,3
535,4.76362,3.533,-1,3
536,4.76718,3.564,-1,3
537,4.77075,3.568,-1,3
538,4.77427,3.525,-1,3
539,4.77782,3.542,-1,3
540,4.78137,3.551,-1,3
541,4.78494,3.568,-1,3
542,4.78847,3.538,-1,3
543,4.79203,3.555,-1,3
544,4.79559,3.564,-1,3
545,4.79913,3.533,-1,3
546,4.80269,3.564,-1,3
547,4.80625,3.559,-1,3
548,4.80977,3.520,-1,3
549,4.81335,3.581,-1,3
550,4.81692,3.568,-1,3
551,4.82048,3.564,-1,3
552,4.82400,3.520,-1,3
553,4.82754,3.542,-1,3
554,4.83112,3.577,-1,3
555,4.83468,3.559,-1,3
556,4.83823,3.546,-1,3
557,4.84178,3.551,-1,3
558,4.84535,3.568,-1,3
559,4.84888,3.538,-1,3
560,4.85244,3.559,-1,3
561,4.85599,3.546,-1,3
562,4.85955,3.559,-1,3
563,4.86310,3.555,-1,3
564,4.86664,3.542,-1,3
565,4.87020,3.559,-1,3
566,4.87372,3.520,-1,3
567,4.87727,3.542,-1,3
568,4.88082,3.551,-1,3
569,4.88436,3.538,-1,3
570,4.88789,3.533,-1,3
571,4.89140,3.516,-1,3
572,4.89494,3.538,-1,3
573,4.89845,3.508,-1,3
574,4.90196,3.508,-1,3
575,4.90547,3.512,-1,3
576,4.91251,3.508,-1,3
577,4.91601,3.503,-1,3
578,4.91601,3.499,-1,3
579,4.91951,3.499,-1,3
580,4.92300,3.486,-1,3
581,4.92649,3.495,-1,3
582,4.93003,3.482,-1,3
583,4.93700,3.490,-1,3
584,4.94049,3.490,-1,3
585,4.94399,3.499,-1,3
586,4.94745,3.456,-1,3
587,4.95092,3.477,-1,3
588,4.95441,3.482,-1,3
589,4.95789,3.482,-1,3
590,4.96135,3.464,-1,3
591,4.96482,3.464,-1,3
592,4.96826,3.443,-1,3
593,4.97171,3.447,-1,3
594,4.97517,3.464,-1,3
595,4.97863,3.456,-1,3
596,4.98205,3.421,-1,3
597,4.98551,3.460,-1,3
598,4.98893,3.417,-1,3
599,4.99236,3.434,-1,3
600,4.99577,3.408,-1,3
601,4.99922,3.408,-1,3
602,5.00263,3.408,-1,3
603,5.00604,3.417,-1,3
604,5.00945,3.404,-1,3
605,5.01286,3.413,-1,3
606,5.01623,3.374,-1,3
607,5.01965,3.413,-1,3
608,5.02304,3.395,-1,3
609,5.02640,3.361,-1,3
610,5.02980,3.395,-1,3
611,5.03319,3.387,-1,3
612,5.03656,3.369,-1,3
613,5.03991,3.352,-1,3
614,5.04329,3.382,-1,3
615,5.04666,3.365,-1,3
616,5.05002,3.361,-1,3
617,5.05338,3.361,-1,3
618,5.05670,3.322,-1,3
619,5.06005,3.352,-1,3
620,5.06338,3.331,-1,3
621,5.06670,3.322,-1,3
622,5.07004,3.339,-1,3
623,5.07337,3.331,-1,3
624,5.07670,3.322,-1,3
625,5.08001,3.313,-1,3
626,5.08332,3.309,-1,3
627,5.08661,3.296,-1,3
628,5.08990,3.288,-1,3
629,5.09321,3.309,-1,3
630,5.09649,3.279,-1,3
631,5.09979,3.300,-1,3
632,5.10307,3.283,-1,3
633,5.10632,3.249,-1,3
634,5.10960,3.275,-1,3
635,5.11287,3.275,-1,3
636,5.11613,3.262,-1,3
637,5.11938,3.249,-1,3
638,5.12263,3.249,-1,3
639,5.12589,3.262,-1,3
640,5.12912,3.231,-1,3
641,5.13236,3.240,-1,3
642,5.13559,3.223,-1,3
643,5.13881,3.227,-1,3
644,5.14204,3.227,-1,3
645,5.14527,3.231,-1,3
646,5.14849,3.223,-1,3
647,5.15168,3.188,-1,3
648,5.15490,3.214,-1,3
649,5.15808,3.184,-1,3
650,5.16128,3.197,-1,3
651,5.16445,3.171,-1,3
652,5.16765,3.206,-1,3
653,5.17083,3.171,-1,3
654,5.17398,3.158,-1,3
655,5.17716,3.175,-1,3
656,5.18031,3.149,-1,3
657,5.18348,3.171,-1,3
658,5.18659,3.115,-1,3
659,5.18975,3.158,-1,3
660,5.19289,3.137,-1,3
661,5.19603,3.141,-1,3
662,5.19915,3.119,-1,3
663,5.20227,3.119,-1,3
664,5.20537,3.098,-1,3
665,5.20846,3.093,-1,3
666,5.21158,3.119,-1,3
667,5.21469,3.115,-1,3
668,5.21777,3.076,-1,3
669,5.22085,3.076,-1,3
670,5.22392,3.072,-1,3
671,5.22700,3.085,-1,3
672,5.23004,3.042,-1,3
673,5.23310,3.059,-1,3
674,5.23613,3.029,-1,3
675,5.23918,3.046,-1,3
676,5.24220,3.024,-1,3
677,5.24524,3.037,-1,3
678,5.24823,2.994,-1,3
679,5.25125,3.016,-1,3
680,5.25423,2.981,-1,3
681,5.25725,3.016,-1,3
682,5.26023,2.986,-1,3
683,5.26320,2.964,-1,3
684,5.26616,2.960,-1,3
685,5.26911,2.960,-1,3
686,5.27209,2.973,-1,3
687,5.27794,2.916,-1,3
688,5.28088,2.947,-1,3
689,5.28383,2.942,-1,3
690,5.28674,2.912,-1,3
691,5.28965,2.908,-1,3
692,5.29254,2.891,-1,3
693,5.29545,2.916,-1,3
694,5.29834,2.882,-1,3
695,5.30122,2.886,-1,3
696,5.30412,2.895,-1,3
697,5.30697,2.856,-1,3
698,5.30984,2.869,-1,3
699,5.31272,2.873,-1,3
700,5.31557,2.852,-1,3
701,5.31844,2.869,-1,3
702,5.32125,2.817,-1,3
703,5.32411,2.856,-1,3
704,5.32695,2.847,-1,3
705,5.33262,2.822,-1,3
706,5.33544,2.822,-1,3
707,5.33544,2.817,-1,3
708,5.33826,2.796,-1,3
709,5.34105,2.796,-1,3
710,5.34386,2.791,-1,3
711,5.34945,2.800,-1,3
712,5.35222,2.774,-1,3
713,5.35502,2.800,-1,3
714,5.35502,2.791,-1,3
715,5.35781,2.791,-1,3
716,5.36060,2.787,-1,3
717,5.36336,2.761,-1,3
718,5.36612,2.757,-1,3
719,5.36888,2.761,-1,3
720,5.37165,2.770,-1,3
721,5.37438,2.727,-1,3
722,5.37713,2.757,-1,3
723,5.37991,2.774,-1,3
724,5.38263,2.722,-1,3
725,5.38538,2.748,-1,3
726,5.38811,2.735,-1,3
727,5.39082,2.709,-1,3
728,5.39357,2.753,-1,3
729,5.39630,2.722,-1,3
730,5.39902,2.722,-1,3
731,5.40174,2.718,-1,3
732,5.40445,2.718,-1,3
733,5.40716,2.709,-1,3
734,5.40988,2.714,-1,3
735,5.41258,2.701,-1,3
736,5.41528,2.705,-1,3
737,5.41798,2.696,-1,3
738,5.42069,2.705,-1,3
739,5.42338,2.696,-1,3
740,5.42607,2.688,-1,3
741,5.42876,2.692,-1,3
742,5.43143,2.671,-1,3
743,5.43409,2.658,-1,3
744,5.43676,2.671,-1,3
745,5.43941,2.653,-1,3
746,5.44208,2.662,-1,3
747,5.44472,2.645,-1,3
748,5.44736,2.636,-1,3
749,5.45001,2.658,-1,3
750,5.45265,2.636,-1,3
751,5.45527,2.619,-1,3
752,5.45790,2.627,-1,3
753,5.46052,2.619,-1,3
754,5.46311,2.593,-1,3
755,5.46574,2.627,-1,3
756,5.46832,2.580,-1,3
757,5.47091,2.597,-1,3
758,5.47351,2.597,-1,3
759,5.47611,2.602,-1,3
760,5.47868,2.571,-1,3
761,5.48126,2.576,-1,3
762,5.48381,2.554,-1,3
763,5.48638,2.563,-1,3
764,5.48893,2.554,-1,3
765,5.49147,2.541,-1,3
766,5.49402,2.554,-1,3
767,5.49658,2.554,-1,3
768,5.49911,2.528,-1,3
769,5.50164,2.533,-1,3
770,5.50415,2.511,-1,3
771,5.50667,2.524,-1,3
772,5.50920,2.524,-1,3
773,5.51170,2.498,-1,3
774,5.51420,2.507,-1,3
775,5.51668,2.476,-1,3
776,5.52168,2.507,-1,3
777,5.52416,2.481,-1,3
778,5.52664,2.481,-1,3
779,5.52909,2.451,-1,3
780,5.53156,2.476,-1,3
781,5.53402,2.459,-1,3
782,5.53647,2.451,-1,3
783,5.53893,2.455,-1,3
784,5.54138,2.451,-1,3
785,5.54383,2.451,-1,3
786,5.54625,2.425,-1,3
787,5.54868,2.425,-1,3
788,5.55110,2.425,-1,3
789,5.55351,2.412,-1,3
790,5.55593,2.416,-1,3
791,5.55834,2.412,-1,3
792,5.56075,2.407,-1,3
793,5.56315,2.403,-1,3
794,5.56556,2.412,-1,3
795,5.56796,2.394,-1,3
796,5.57034,2.382,-1,3
797,5.57273,2.390,-1,3
798,5.57511,2.382,-1,3
799,5.57749,2.382,-1,3
800,5.57985,2.356,-1,3
801,5.58223,2.382,-1,3
802,5.58461,2.377,-1,3
803,5.58697,2.364,-1,3
804,5.58933,2.360,-1,3
805,5.59167,2.343,-1,3
806,5.59403,2.356,-1,3
807,5.59639,2.356,-1,3
808,5.59874,2.356,-1,3
809,5.60109,2.347,-1,3
810,5.60341,2.325,-1,3
811,5.60574,2.325,-1,3
812,5.60808,2.338,-1,3
813,5.61042,2.347,-1,3
814,5.61277,2.343,-1,3
815,5.61509,2.325,-1,3
816,5.61741,2.317,-1,3
817,5.61973,2.317,-1,3
818,5.62203,2.304,-1,3
819,5.62435,2.317,-1,3
820,5.62666,2.312,-1,3
821,5.62896,2.304,-1,3
822,5.63127,2.308,-1,3
823,5.63358,2.304,-1,3
824,5.63589,2.312,-1,3
825,5.63819,2.304,-1,3
826,5.64049,2.295,-1,3
827,5.64277,2.287,-1,3
828,5.64506,2.291,-1,3
829,5.64735,2.282,-1,3
830,5.64963,2.287,-1,3
831,5.65192,2.287,-1,3
832,5.65420,2.282,-1,3
833,5.65648,2.282,-1,3
834,5.65876,2.274,-1,3
835,5.66104,2.282,-1,3
836,5.66332,2.278,-1,3
837,5.66559,2.274,-1,3
838,5.66786,2.269,-1,3
839,5.67011,2.252,-1,3
840,5.67238,2.265,-1,3
841,5.67465,2.274,-1,3
842,5.67691,2.261,-1,3
843,5.67919,2.274,-1,3
844,5.68145,2.261,-1,3
845,5.68370,2.256,-1,3
846,5.68596,2.256,-1,3
847,5.68823,2.269,-1,3
848,5.69050,2.269,-1,3
849,5.69277,2.274,-1,3
850,5.69504,2.269,-1,3
851,5.69730,2.256,-1,3
852,5.69956,2.261,-1,3
853,5.70183,2.274,-1,3
854,5.70411,2.278,-1,3
855,5.70640,2.291,-1,3
856,5.70867,2.265,-1,3
857,5.71095,2.282,-1,3
858,5.71324,2.287,-1,3
859,5.71551,2.278,-1,3
860,5.71780,2.282,-1,3
861,5.72008,2.287,-1,3
862,5.72236,2.278,-1,3
863,5.72465,2.287,-1,3
864,5.72695,2.287,-1,3
865,5.72924,2.287,-1,3
866,5.73154,2.304,-1,3
867,5.73384,2.304,-1,3
868,5.73844,2.300,-1,3
869,5.74077,2.325,-1,3
870,5.74308,2.308,-1,3
871,5.74539,2.312,-1,3
872,5.74771,2.317,-1,3
873,5.75004,2.334,-1,3
