cnt,pos,speed,Dir,Force,
1,0,1.0028,-1,2
2,0.000999928,1.008,-1,2
3,0.0020299,1.009,-1,2
4,0.00305986,1.0176,-1,2
5,0.00408983,1.0218,-1,2
6,0.00510001,1.0218,-1,2
7,0.00612998,1.026,-1,2
8,0.00716996,1.0268,-1,2
9,0.00820994,1.0286,-1,2
10,0.0092299,1.0278,-1,2
11,0.0102799,1.0346,-1,2
12,0.0113199,1.0372,-1,2
13,0.0123599,1.0398,-1,2
14,0.0134399,1.0466,-1,2
15,0.0144799,1.05,-1,2
16,0.0155399,1.0534,-1,2
17,0.0165999,1.0552,-1,2
18,0.0176899,1.0648,-1,2
19,0.0187399,1.0596,-1,2
20,0.01983,1.0692,-1,2
21,0.02089,1.0702,-1,2
22,0.0219998,1.0804,-1,2
23,0.0230799,1.0778,-1,2
24,0.0241899,1.09,-1,2
25,0.02527,1.089,-1,2
26,0.0263898,1.0984,-1,2
27,0.0274799,1.0968,-1,2
28,0.02859,1.1028,-1,2
29,0.02969,1.101,-1,2
30,0.0308099,1.107,-1,2
31,0.03195,1.1122,-1,2
32,0.0330598,1.1156,-1,2
33,0.03421,1.1242,-1,2
34,0.0353301,1.1286,-1,2
35,0.03649,1.1356,-1,2
36,0.0376198,1.1348,-1,2
37,0.03878,1.1434,-1,2
38,0.0399499,1.14,-1,2
39,0.04108,1.1426,-1,2
40,0.0422499,1.1452,-1,2
41,0.0434,1.1478,-1,2
42,0.04458,1.1522,-1,2
43,0.0457499,1.1608,-1,2
44,0.0469201,1.1676,-1,2
45,0.04813,1.1754,-1,2
46,0.0493,1.1804,-1,2
47,0.0504999,1.1846,-1,2
48,0.0517099,1.1906,-1,2
49,0.0529099,1.1966,-1,2
50,0.0541201,1.1982,-1,2
51,0.05531,1.2026,-1,2
52,0.05653,1.207,-1,2
53,0.05775,1.2088,-1,2
54,0.05897,1.2132,-1,2
55,0.06019,1.215,-1,2
56,0.06142,1.221,-1,2
57,0.06267,1.227,-1,2
58,0.06389,1.2278,-1,2
59,0.06514,1.233,-1,2
60,0.06639,1.239,-1,2
61,0.0676398,1.245,-1,2
62,0.0688999,1.2458,-1,2
63,0.0701599,1.2536,-1,2
64,0.07142,1.257,-1,2
65,0.0727,1.2614,-1,2
66,0.0739598,1.264,-1,2
67,0.0752499,1.271,-1,2
68,0.07653,1.2736,-1,2
69,0.0778298,1.2814,-1,2
70,0.0791099,1.283,-1,2
71,0.08041,1.2882,-1,2
72,0.0817099,1.2908,-1,2
73,0.08302,1.2986,-1,2
74,0.0843101,1.2952,-1,2
75,0.0856199,1.3014,-1,2
76,0.08692,1.3032,-1,2
77,0.0882399,1.3058,-1,2
78,0.08956,1.3082,-1,2
79,0.0908699,1.3134,-1,2
80,0.0922,1.3158,-1,2
81,0.0935099,1.3184,-1,2
82,0.09484,1.321,-1,2
83,0.0961699,1.3228,-1,2
84,0.0974998,1.3262,-1,2
85,0.09885,1.3314,-1,2
86,0.1002,1.3374,-1,2
87,0.10152,1.3364,-1,2
88,0.10289,1.3434,-1,2
89,0.10424,1.3476,-1,2
90,0.10559,1.3468,-1,2
91,0.10695,1.3502,-1,2
92,0.10831,1.3564,-1,2
93,0.10965,1.352,-1,2
94,0.11101,1.353,-1,2
95,0.11238,1.3582,-1,2
96,0.11375,1.36,-1,2
97,0.11651,1.366,-1,2
98,0.11651,1.3764,-1,2
99,0.11791,1.379,-1,2
100,0.11927,1.3782,-1,2
101,0.12067,1.3826,-1,2
102,0.12207,1.3792,-1,2
103,0.12484,1.38,-1,2
104,0.12625,1.3876,-1,2
105,0.12765,1.3944,-1,2
106,0.12906,1.3978,-1,2
107,0.13048,1.409,-1,2
108,0.13189,1.4098,-1,2
109,0.1333,1.4116,-1,2
110,0.13472,1.415,-1,2
111,0.13614,1.4158,-1,2
112,0.13757,1.414,-1,2
113,0.13899,1.421,-1,2
114,0.14187,1.427,-1,2
115,0.1433,1.4288,-1,2
116,0.14474,1.434,-1,2
117,0.14619,1.441,-1,2
118,0.14764,1.4436,-1,2
119,0.14909,1.4446,-1,2
120,0.15054,1.448,-1,2
121,0.152,1.4514,-1,2
122,0.15347,1.4556,-1,2
123,0.15493,1.4574,-1,2
124,0.15637,1.4556,-1,2
125,0.15786,1.4574,-1,2
126,0.16079,1.4608,-1,2
127,0.16079,1.4626,-1,2
128,0.16374,1.4634,-1,2
129,0.16374,1.4702,-1,2
130,0.1667,1.477,-1,2
131,0.16819,1.4806,-1,2
132,0.16967,1.4806,-1,2
133,0.17118,1.4884,-1,2
134,0.17267,1.492,-1,2
135,0.17419,1.4972,-1,2
136,0.17567,1.4962,-1,2
137,0.17718,1.5014,-1,2
138,0.17869,1.5014,-1,2
139,0.18021,1.5074,-1,2
140,0.18171,1.504,-1,2
141,0.18322,1.5102,-1,2
142,0.18476,1.5154,-1,2
143,0.18628,1.5206,-1,2
144,0.18935,1.5224,-1,2
145,0.18935,1.5276,-1,2
146,0.19241,1.5318,-1,2
147,0.19241,1.5334,-1,2
148,0.19549,1.5342,-1,2
149,0.19703,1.5376,-1,2
150,0.19859,1.5436,-1,2
151,0.20013,1.5446,-1,2
152,0.20168,1.5464,-1,2
153,0.20324,1.5516,-1,2
154,0.20481,1.555,-1,2
155,0.20635,1.5524,-1,2
156,0.20791,1.5548,-1,2
157,0.20948,1.56,-1,2
158,0.21103,1.5582,-1,2
159,0.2126,1.5582,-1,2
160,0.21416,1.5616,-1,2
161,0.21575,1.5686,-1,2
162,0.21735,1.5746,-1,2
163,0.21892,1.5772,-1,2
164,0.22051,1.5824,-1,2
165,0.22208,1.585,-1,2
166,0.22367,1.5832,-1,2
167,0.22525,1.5798,-1,2
168,0.22685,1.585,-1,2
169,0.22843,1.5824,-1,2
170,0.23002,1.5868,-1,2
171,0.23161,1.5886,-1,2
172,0.23318,1.5928,-1,2
173,0.2364,1.5962,-1,2
174,0.2364,1.5988,-1,2
175,0.23799,1.5996,-1,2
176,0.23959,1.6004,-1,2
177,0.24119,1.5978,-1,2
178,0.24443,1.5996,-1,2
179,0.24605,1.6048,-1,2
180,0.24765,1.6058,-1,2
181,0.24926,1.6094,-1,2
182,0.25088,1.6138,-1,2
183,0.2525,1.6138,-1,2
184,0.25412,1.6146,-1,2
185,0.25575,1.6206,-1,2
186,0.25737,1.6214,-1,2
187,0.25901,1.6248,-1,2
188,0.26064,1.6282,-1,2
189,0.26228,1.6316,-1,2
190,0.26393,1.635,-1,2
191,0.26554,1.6332,-1,2
192,0.26717,1.6324,-1,2
193,0.26882,1.635,-1,2
194,0.27045,1.6342,-1,2
195,0.2721,1.6342,-1,2
196,0.27375,1.642,-1,2
197,0.27539,1.6446,-1,2
198,0.27705,1.6464,-1,2
199,0.27868,1.6464,-1,2
200,0.28034,1.649,-1,2
201,0.282,1.6498,-1,2
202,0.28364,1.6506,-1,2
203,0.28531,1.6532,-1,2
204,0.287,1.6628,-1,2
205,0.28866,1.6636,-1,2
206,0.29032,1.6654,-1,2
207,0.29198,1.6672,-1,2
208,0.29366,1.6698,-1,2
209,0.29532,1.6646,-1,2
210,0.29701,1.669,-1,2
211,0.29868,1.6724,-1,2
212,0.30037,1.6784,-1,2
213,0.30204,1.6766,-1,2
214,0.30372,1.68,-1,2
215,0.30542,1.6826,-1,2
216,0.30712,1.687,-1,2
217,0.30881,1.6878,-1,2
218,0.31048,1.6878,-1,2
219,0.31218,1.6922,-1,2
220,0.31387,1.6914,-1,2
221,0.31559,1.694,-1,2
222,0.3173,1.6974,-1,2
223,0.319,1.7042,-1,2
224,0.32071,1.7058,-1,2
225,0.32243,1.7108,-1,2
226,0.32413,1.7082,-1,2
227,0.32583,1.7066,-1,2
228,0.32756,1.7102,-1,2
229,0.32928,1.7146,-1,2
230,0.331,1.7146,-1,2
231,0.33272,1.7188,-1,2
232,0.33445,1.7248,-1,2
233,0.33618,1.7256,-1,2
234,0.33791,1.7246,-1,2
235,0.33965,1.7298,-1,2
236,0.34139,1.7324,-1,2
237,0.34312,1.7332,-1,2
238,0.34486,1.7358,-1,2
239,0.34659,1.741,-1,2
240,0.34833,1.742,-1,2
241,0.35009,1.7456,-1,2
242,0.35184,1.7492,-1,2
243,0.35357,1.7474,-1,2
244,0.35533,1.75,-1,2
245,0.35708,1.749,-1,2
246,0.36062,1.7524,-1,2
247,0.36237,1.7514,-1,2
248,0.36415,1.761,-1,2
249,0.36592,1.7628,-1,2
250,0.3677,1.768,-1,2
251,0.36945,1.7654,-1,2
252,0.37123,1.7724,-1,2
253,0.37301,1.7716,-1,2
254,0.37481,1.7768,-1,2
255,0.3766,1.7812,-1,2
256,0.37837,1.7838,-1,2
257,0.38015,1.7838,-1,2
258,0.38196,1.7898,-1,2
259,0.38377,1.7932,-1,2
260,0.38558,1.7958,-1,2
261,0.3892,1.8044,-1,2
262,0.3892,1.8112,-1,2
263,0.39283,1.812,-1,2
264,0.39464,1.8128,-1,2
265,0.39646,1.8154,-1,2
266,0.39828,1.8162,-1,2
267,0.40011,1.818,-1,2
268,0.40194,1.8232,-1,2
269,0.40379,1.8294,-1,2
270,0.40562,1.832,-1,2
271,0.40747,1.8372,-1,2
272,0.40931,1.8406,-1,2
273,0.41117,1.8458,-1,2
274,0.41487,1.8482,-1,2
275,0.41672,1.8516,-1,2
276,0.41859,1.8568,-1,2
277,0.42045,1.8602,-1,2
278,0.42045,1.861,-1,2
279,0.42232,1.8628,-1,2
280,0.42418,1.8644,-1,2
281,0.42608,1.8704,-1,2
282,0.42796,1.8756,-1,2
283,0.42983,1.8756,-1,2
284,0.43171,1.8782,-1,2
285,0.43362,1.8878,-1,2
286,0.43549,1.8818,-1,2
287,0.43738,1.8828,-1,2
288,0.43926,1.8854,-1,2
289,0.44116,1.8888,-1,2
290,0.44304,1.8844,-1,2
291,0.44494,1.8904,-1,2
292,0.44683,1.8912,-1,2
293,0.44874,1.8956,-1,2
294,0.45064,1.8974,-1,2
295,0.45255,1.901,-1,2
296,0.45445,1.901,-1,2
297,0.45827,1.9062,-1,2
298,0.46018,1.907,-1,2
299,0.46207,1.9044,-1,2
300,0.464,1.9096,-1,2
301,0.46591,1.9122,-1,2
302,0.46784,1.913,-1,2
303,0.46976,1.9164,-1,2
304,0.47169,1.9234,-1,2
305,0.4736,1.919,-1,2
306,0.47552,1.9216,-1,2
307,0.47939,1.9242,-1,2
308,0.47939,1.9252,-1,2
309,0.48325,1.9268,-1,2
310,0.48325,1.932,-1,2
311,0.48518,1.9338,-1,2
312,0.48709,1.933,-1,2
313,0.49097,1.9372,-1,2
314,0.49291,1.9364,-1,2
315,0.49484,1.9364,-1,2
316,0.49675,1.933,-1,2
317,0.49871,1.9382,-1,2
318,0.49871,1.94,-1,2
319,0.50067,1.9442,-1,2
320,0.50262,1.9476,-1,2
321,0.50456,1.9526,-1,2
322,0.5065,1.9482,-1,2
323,0.50844,1.9446,-1,2
324,0.51039,1.9446,-1,2
325,0.51233,1.942,-1,2
326,0.51429,1.9456,-1,2
327,0.51622,1.9448,-1,2
328,0.51818,1.9484,-1,2
329,0.52012,1.945,-1,2
330,0.52205,1.945,-1,2
331,0.524,1.9432,-1,2
332,0.52597,1.9492,-1,2
333,0.52793,1.9492,-1,2
334,0.52988,1.9518,-1,2
335,0.53183,1.9562,-1,2
336,0.53378,1.9562,-1,2
337,0.53573,1.9528,-1,2
338,0.53768,1.9502,-1,2
339,0.53964,1.9528,-1,2
340,0.54159,1.951,-1,2
341,0.54354,1.9518,-1,2
342,0.5455,1.9544,-1,2
343,0.54744,1.9534,-1,2
344,0.54939,1.949,-1,2
345,0.55134,1.949,-1,2
346,0.55328,1.9474,-1,2
347,0.55524,1.9474,-1,2
348,0.55718,1.9466,-1,2
349,0.55911,1.9442,-1,2
350,0.56105,1.9434,-1,2
351,0.56301,1.946,-1,2
352,0.56493,1.9382,-1,2
353,0.56689,1.9426,-1,2
354,0.56883,1.946,-1,2
355,0.57077,1.9442,-1,2
356,0.57464,1.9382,-1,2
357,0.57658,1.9416,-1,2
358,0.57851,1.9364,-1,2
359,0.58043,1.9312,-1,2
360,0.58239,1.9364,-1,2
361,0.5843,1.9312,-1,2
362,0.58623,1.9304,-1,2
363,0.58816,1.9304,-1,2
364,0.59009,1.9322,-1,2
365,0.59202,1.9254,-1,2
366,0.59395,1.9306,-1,2
367,0.59585,1.9254,-1,2
368,0.59777,1.9254,-1,2
369,0.59971,1.9262,-1,2
370,0.60164,1.9262,-1,2
371,0.60548,1.9262,-1,2
372,0.60738,1.9236,-1,2
373,0.60928,1.9184,-1,2
374,0.61119,1.9132,-1,2
375,0.61311,1.9114,-1,2
376,0.61503,1.9088,-1,2
377,0.61693,1.9114,-1,2
378,0.61886,1.9158,-1,2
379,0.62076,1.914,-1,2
380,0.62268,1.914,-1,2
381,0.62458,1.9104,-1,2
382,0.62649,1.9122,-1,2
383,0.6284,1.9052,-1,2
384,0.63221,1.9078,-1,2
385,0.63409,1.9008,-1,2
386,0.63601,1.9044,-1,2
387,0.63601,1.9026,-1,2
388,0.63979,1.8992,-1,2
389,0.64172,1.9018,-1,2
390,0.64363,1.908,-1,2
391,0.64554,1.907,-1,2
392,0.64743,1.9036,-1,2
393,0.64934,1.9096,-1,2
394,0.65124,1.9044,-1,2
395,0.65313,1.9,-1,2
396,0.65503,1.8984,-1,2
397,0.65693,1.8992,-1,2
398,0.65881,1.8948,-1,2
399,0.66071,1.8948,-1,2
400,0.66451,1.8974,-1,2
401,0.6664,1.8956,-1,2
402,0.66831,1.8982,-1,2
403,0.67021,1.9008,-1,2
404,0.67211,1.9008,-1,2
405,0.674,1.8974,-1,2
406,0.67588,1.8956,-1,2
407,0.67777,1.8912,-1,2
408,0.67966,1.8912,-1,2
409,0.68156,1.8912,-1,2
410,0.68347,1.8946,-1,2
411,0.68537,1.8972,-1,2
412,0.68726,1.8982,-1,2
413,0.68915,1.8966,-1,2
414,0.69103,1.894,-1,2
415,0.69293,1.8922,-1,2
416,0.69483,1.8932,-1,2
417,0.69674,1.8958,-1,2
418,0.69864,1.8984,-1,2
419,0.70053,1.9002,-1,2
420,0.70243,1.9002,-1,2
421,0.70433,1.8984,-1,2
422,0.70623,1.8992,-1,2
423,0.70813,1.8992,-1,2
424,0.71003,1.9,-1,2
425,0.71194,1.9018,-1,2
426,0.71386,1.9078,-1,2
427,0.71577,1.9078,-1,2
428,0.71767,1.9068,-1,2
429,0.7196,1.9138,-1,2
430,0.7215,1.9112,-1,2
431,0.72342,1.9112,-1,2
432,0.72533,1.912,-1,2
433,0.72724,1.9146,-1,2
434,0.72915,1.9102,-1,2
435,0.73107,1.9136,-1,2
436,0.73299,1.9136,-1,2
437,0.73493,1.9188,-1,2
438,0.73686,1.9232,-1,2
439,0.73879,1.9268,-1,2
440,0.74073,1.9328,-1,2
441,0.74266,1.9338,-1,2
442,0.74459,1.9322,-1,2
443,0.74652,1.933,-1,2
444,0.74848,1.938,-1,2
445,0.75042,1.939,-1,2
446,0.75238,1.944,-1,2
447,0.75433,1.949,-1,2
448,0.75627,1.9498,-1,2
449,0.75823,1.9508,-1,2
450,0.7602,1.9542,-1,2
451,0.76217,1.9568,-1,2
452,0.76612,1.963,-1,2
453,0.76809,1.9682,-1,2
454,0.77005,1.969,-1,2
455,0.77203,1.9708,-1,2
456,0.77203,1.9752,-1,2
457,0.77401,1.976,-1,2
458,0.77599,1.9796,-1,2
459,0.77997,1.9848,-1,2
460,0.78197,1.99,-1,2
461,0.78398,1.9942,-1,2
462,0.78599,1.9994,-1,2
463,0.78798,2.001,-1,2
464,0.78998,2.0028,-1,2
465,0.79198,2.0036,-1,2
466,0.794,2.0046,-1,2
467,0.796,2.0028,-1,2
468,0.79802,2.008,-1,2
469,0.80005,2.013,-1,2
470,0.80208,2.019,-1,2
471,0.8041,2.0198,-1,2
472,0.80611,2.0216,-1,2
473,0.80816,2.0268,-1,2
474,0.8102,2.0304,-1,2
475,0.81223,2.0304,-1,2
476,0.81427,2.0338,-1,2
477,0.81631,2.0398,-1,2
478,0.81835,2.038,-1,2
479,0.82039,2.0388,-1,2
480,0.82245,2.044,-1,2
481,0.82451,2.0492,-1,2
482,0.82658,2.0526,-1,2
483,0.82865,2.0596,-1,2
484,0.83071,2.064,-1,2
485,0.83276,2.0614,-1,2
486,0.83484,2.0658,-1,2
487,0.83691,2.0668,-1,2
488,0.83901,2.072,-1,2
489,0.84108,2.0736,-1,2
490,0.84316,2.0796,-1,2
491,0.84525,2.0822,-1,2
492,0.84733,2.0848,-1,2
493,0.84942,2.0838,-1,2
494,0.85154,2.0924,-1,2
495,0.85364,2.0976,-1,2
496,0.85576,2.1018,-1,2
497,0.85785,2.1042,-1,2
498,0.85998,2.1104,-1,2
499,0.86211,2.113,-1,2
500,0.86422,2.1148,-1,2
501,0.86635,2.1184,-1,2
502,0.86848,2.1254,-1,2
503,0.87062,2.1296,-1,2
504,0.87277,2.1332,-1,2
505,0.87491,2.1384,-1,2
506,0.87706,2.141,-1,2
507,0.8792,2.1436,-1,2
508,0.88135,2.1454,-1,2
509,0.88352,2.1488,-1,2
510,0.88786,2.1574,-1,2
511,0.88786,2.1624,-1,2
512,0.89003,2.1692,-1,2
513,0.89219,2.1708,-1,2
514,0.89436,2.1708,-1,2
515,0.89655,2.1724,-1,2
516,0.90092,2.176,-1,2
517,0.90311,2.1786,-1,2
518,0.90531,2.1864,-1,2
519,0.9075,2.1924,-1,2
520,0.9097,2.1942,-1,2
521,0.9119,2.1958,-1,2
522,0.91412,2.202,-1,2
523,0.91632,2.202,-1,2
524,0.91854,2.2072,-1,2
525,0.92076,2.2124,-1,2
526,0.92299,2.2176,-1,2
527,0.92521,2.2192,-1,2
528,0.92745,2.2262,-1,2
529,0.92969,2.2304,-1,2
530,0.93193,2.233,-1,2
531,0.93416,2.2348,-1,2
532,0.93641,2.2392,-1,2
533,0.93865,2.24,-1,2
534,0.94091,2.2444,-1,2
535,0.94315,2.2452,-1,2
536,0.94541,2.2486,-1,2
537,0.94767,2.2528,-1,2
538,0.94997,2.2632,-1,2
539,0.95452,2.265,-1,2
540,0.9568,2.2728,-1,2
541,0.9568,2.278,-1,2
542,0.95908,2.279,-1,2
543,0.96135,2.2756,-1,2
544,0.96597,2.2832,-1,2
545,0.96827,2.2876,-1,2
546,0.97057,2.2928,-1,2
547,0.97287,2.298,-1,2
548,0.9752,2.3082,-1,2
549,0.97751,2.3082,-1,2
550,0.97984,2.3142,-1,2
551,0.98217,2.3184,-1,2
552,0.98448,2.3208,-1,2
553,0.98683,2.3252,-1,2
554,0.98915,2.3278,-1,2
555,0.99151,2.3338,-1,2
556,0.99387,2.3408,-1,2
557,0.99621,2.347,-1,2
558,0.99855,2.3452,-1,2
559,1.00091,2.3514,-1,2
560,1.00327,2.3514,-1,2
561,1.00562,2.3496,-1,2
562,1.00797,2.3512,-1,2
563,1.01034,2.3574,-1,2
564,1.0127,2.3574,-1,2
565,1.01506,2.3582,-1,2
566,1.01743,2.3626,-1,2
567,1.01981,2.367,-1,2
568,1.02219,2.3704,-1,2
569,1.02458,2.3764,-1,2
570,1.02693,2.3738,-1,2
571,1.02931,2.3756,-1,2
572,1.03168,2.3748,-1,2
573,1.03408,2.3782,-1,2
574,1.03648,2.3808,-1,2
575,1.03884,2.3826,-1,2
576,1.04122,2.3816,-1,2
577,1.04362,2.3876,-1,2
578,1.04601,2.3858,-1,2
579,1.04841,2.3866,-1,2
580,1.05082,2.3952,-1,2
581,1.05321,2.3978,-1,2
582,1.05558,2.3926,-1,2
583,1.05799,2.3962,-1,2
584,1.06039,2.3944,-1,2
585,1.06279,2.3952,-1,2
586,1.06519,2.397,-1,2
587,1.0676,2.4048,-1,2
588,1.07001,2.4038,-1,2
589,1.07242,2.4074,-1,2
590,1.07483,2.4074,-1,2
591,1.07723,2.4082,-1,2
592,1.07965,2.4098,-1,2
593,1.08205,2.4082,-1,2
594,1.08448,2.4108,-1,2
595,1.08687,2.4082,-1,2
596,1.08928,2.409,-1,2
597,1.0917,2.41,-1,2
598,1.09414,2.4178,-1,2
599,1.09656,2.416,-1,2
600,1.09897,2.4204,-1,2
601,1.10137,2.4178,-1,2
602,1.1038,2.4194,-1,2
603,1.10623,2.4176,-1,2
604,1.10865,2.4176,-1,2
605,1.11107,2.4194,-1,2
606,1.11349,2.4238,-1,2
607,1.11591,2.4212,-1,2
608,1.11834,2.422,-1,2
609,1.12077,2.4238,-1,2
610,1.12318,2.4212,-1,2
611,1.12559,2.4212,-1,2
612,1.12801,2.4212,-1,2
613,1.13042,2.416,-1,2
614,1.13286,2.4186,-1,2
615,1.1353,2.4254,-1,2
616,1.1377,2.422,-1,2
617,1.14012,2.4212,-1,2
618,1.14254,2.4248,-1,2
619,1.14496,2.4204,-1,2
620,1.14737,2.4136,-1,2
621,1.14979,2.4178,-1,2
622,1.1522,2.416,-1,2
623,1.15462,2.416,-1,2
624,1.15706,2.4204,-1,2
625,1.15949,2.423,-1,2
626,1.16188,2.417,-1,2
627,1.1643,2.4206,-1,2
628,1.16673,2.4206,-1,2
629,1.16916,2.4196,-1,2
630,1.17157,2.417,-1,2
631,1.17398,2.4204,-1,2
632,1.17639,2.4168,-1,2
633,1.17882,2.4194,-1,2
634,1.18125,2.4178,-1,2
635,1.18366,2.4186,-1,2
636,1.18608,2.4204,-1,2
637,1.1885,2.423,-1,2
638,1.19092,2.4186,-1,2
639,1.19334,2.4186,-1,2
640,1.19575,2.4168,-1,2
641,1.19817,2.4176,-1,2
642,1.2006,2.4194,-1,2
643,1.203,2.416,-1,2
644,1.2054,2.4124,-1,2
645,1.20783,2.4168,-1,2
646,1.21025,2.416,-1,2
647,1.21267,2.4152,-1,2
648,1.21508,2.4178,-1,2
649,1.2175,2.4188,-1,2
650,1.2199,2.4144,-1,2
651,1.22231,2.4126,-1,2
652,1.22475,2.416,-1,2
653,1.22714,2.4116,-1,2
654,1.22954,2.409,-1,2
655,1.23195,2.41,-1,2
656,1.23437,2.411,-1,2
657,1.23678,2.4058,-1,2
658,1.23919,2.4102,-1,2
659,1.24157,2.405,-1,2
660,1.24396,2.4024,-1,2
661,1.24636,2.3988,-1,2
662,1.24878,2.3996,-1,2
663,1.25118,2.3978,-1,2
664,1.25357,2.4004,-1,2
665,1.25596,2.3986,-1,2
666,1.25835,2.3986,-1,2
667,1.26074,2.3918,-1,2
668,1.26314,2.3918,-1,2
669,1.26553,2.3926,-1,2
670,1.26791,2.39,-1,2
671,1.27029,2.3876,-1,2
672,1.27267,2.3858,-1,2
673,1.27504,2.379,-1,2
674,1.27743,2.3798,-1,2
675,1.27982,2.3816,-1,2
676,1.2822,2.3816,-1,2
677,1.28458,2.3816,-1,2
678,1.28931,2.3832,-1,2
679,1.29167,2.3764,-1,2
680,1.29402,2.3704,-1,2
681,1.29402,2.3652,-1,2
682,1.29638,2.3636,-1,2
683,1.30111,2.361,-1,2
684,1.30348,2.3618,-1,2
685,1.30583,2.3618,-1,2
686,1.30817,2.3574,-1,2
687,1.31051,2.3522,-1,2
688,1.31285,2.347,-1,2
689,1.31521,2.3462,-1,2
690,1.31754,2.3418,-1,2
691,1.31989,2.3452,-1,2
692,1.32453,2.3426,-1,2
693,1.32688,2.3444,-1,2
694,1.32922,2.341,-1,2
695,1.33155,2.3402,-1,2
696,1.33386,2.3324,-1,2
697,1.33619,2.3314,-1,2
698,1.3385,2.3244,-1,2
699,1.3408,2.3166,-1,2
700,1.34312,2.313,-1,2
701,1.34542,2.3106,-1,2
702,1.34773,2.308,-1,2
703,1.35005,2.3046,-1,2
704,1.35464,2.3038,-1,2
705,1.35693,2.2988,-1,2
706,1.35923,2.2988,-1,2
707,1.36149,2.2886,-1,2
708,1.36377,2.287,-1,2
709,1.36604,2.2808,-1,2
710,1.36831,2.2764,-1,2
711,1.37058,2.2712,-1,2
712,1.37285,2.2728,-1,2
713,1.37513,2.271,-1,2
714,1.37963,2.2658,-1,2
715,1.38188,2.2624,-1,2
716,1.38411,2.2546,-1,2
717,1.38634,2.247,-1,2
718,1.38859,2.241,-1,2
719,1.39085,2.2436,-1,2
720,1.39308,2.241,-1,2
721,1.39532,2.241,-1,2
722,1.39752,2.2348,-1,2
723,1.39974,2.2296,-1,2
724,1.40195,2.2202,-1,2
725,1.40416,2.2158,-1,2
726,1.40636,2.2088,-1,2
727,1.40857,2.2106,-1,2
728,1.41076,2.2054,-1,2
729,1.41296,2.202,-1,2
730,1.41516,2.1994,-1,2
731,1.41734,2.1968,-1,2
732,1.41955,2.196,-1,2
733,1.42172,2.1908,-1,2
734,1.4239,2.189,-1,2
735,1.42607,2.183,-1,2
736,1.42824,2.1796,-1,2
737,1.43042,2.1734,-1,2
738,1.43258,2.1716,-1,2
739,1.43475,2.169,-1,2
740,1.43692,2.169,-1,2
741,1.43908,2.1664,-1,2
742,1.44124,2.1648,-1,2
743,1.44339,2.164,-1,2
744,1.44554,2.1614,-1,2
745,1.44771,2.1606,-1,2
746,1.44986,2.159,-1,2
747,1.45201,2.1556,-1,2
748,1.45416,2.1548,-1,2
749,1.45628,2.148,-1,2
750,1.46056,2.1436,-1,2
751,1.4627,2.1418,-1,2
752,1.46482,2.1374,-1,2
753,1.46697,2.1356,-1,2
754,1.46911,2.139,-1,2
755,1.47123,2.1356,-1,2
756,1.47337,2.1338,-1,2
757,1.47549,2.1338,-1,2
758,1.4776,2.127,-1,2
759,1.47973,2.1244,-1,2
760,1.48184,2.1218,-1,2
761,1.48397,2.1202,-1,2
762,1.48609,2.1202,-1,2
763,1.48819,2.1176,-1,2
764,1.49033,2.1194,-1,2
765,1.49244,2.1202,-1,2
766,1.49457,2.121,-1,2
767,1.49668,2.1176,-1,2
768,1.49879,2.121,-1,2
769,1.5009,2.1148,-1,2
770,1.50301,2.114,-1,2
771,1.50513,2.1114,-1,2
772,1.50724,2.1114,-1,2
773,1.50933,2.108,-1,2
774,1.51144,2.108,-1,2
775,1.51357,2.1114,-1,2
776,1.51568,2.1114,-1,2
777,1.5178,2.1122,-1,2
778,1.51991,2.1156,-1,2
779,1.52412,2.1156,-1,2
780,1.52622,2.1096,-1,2
781,1.52834,2.1096,-1,2
782,1.53045,2.1096,-1,2
783,1.53258,2.1114,-1,2
784,1.5347,2.1158,-1,2
785,1.5368,2.115,-1,2
786,1.53891,2.115,-1,2
787,1.54104,2.1176,-1,2
788,1.54316,2.1166,-1,2
789,1.54529,2.1158,-1,2
790,1.54741,2.1192,-1,2
791,1.55165,2.1226,-1,2
792,1.55379,2.1244,-1,2
793,1.55592,2.127,-1,2
794,1.55806,2.1312,-1,2
795,1.56019,2.133,-1,2
796,1.56233,2.1348,-1,2
797,1.56448,2.1374,-1,2
798,1.5666,2.1358,-1,2
799,1.56875,2.1368,-1,2
800,1.57089,2.1402,-1,2
801,1.57302,2.1394,-1,2
802,1.57516,2.1368,-1,2
803,1.5773,2.1394,-1,2
804,1.58161,2.141,-1,2
805,1.58161,2.1444,-1,2
806,1.58592,2.1478,-1,2
807,1.58809,2.1538,-1,2
808,1.59025,2.158,-1,2
809,1.59239,2.1554,-1,2
810,1.59455,2.1562,-1,2
811,1.59672,2.1588,-1,2
812,1.59887,2.157,-1,2
813,1.60105,2.1614,-1,2
814,1.60322,2.1658,-1,2
815,1.60538,2.1668,-1,2
816,1.60758,2.1728,-1,2
817,1.60977,2.1798,-1,2
818,1.61195,2.1798,-1,2
819,1.61415,2.1858,-1,2
820,1.61633,2.19,-1,2
821,1.61851,2.1856,-1,2
822,1.62068,2.1812,-1,2
823,1.62288,2.1854,-1,2
824,1.62506,2.1828,-1,2
825,1.62725,2.1838,-1,2
826,1.62946,2.1908,-1,2
827,1.63168,2.2012,-1,2
828,1.6339,2.203,-1,2
829,1.63831,2.2056,-1,2
830,1.63831,2.2116,-1,2
831,1.64053,2.2142,-1,2
832,1.64274,2.2124,-1,2
833,1.64497,2.2168,-1,2
834,1.64718,2.2194,-1,2
835,1.64942,2.222,-1,2
836,1.65163,2.2212,-1,2
837,1.65386,2.223,-1,2
838,1.65609,2.2246,-1,2
839,1.65834,2.2298,-1,2
840,1.66282,2.2332,-1,2
841,1.66282,2.2366,-1,2
842,1.66506,2.2392,-1,2
843,1.6673,2.2392,-1,2
844,1.66957,2.246,-1,2
