cnt,pos,speed,Dir,Force,
1,0,1.0023,1,3
2,0.000980377,1.0014,1,3
3,0.00197029,1.001,1,3
4,0.00296021,1.0001,1,3
5,0.00393009,0.9983,1,3
6,0.0049305,0.9975,1,3
7,0.00588036,0.9923,1,3
8,0.00683022,0.9866,1,3
9,0.0078001,0.9823,1,3
10,0.00872993,0.9749,1,3
11,0.00967026,0.9671,1,3
12,0.0105906,0.9606,1,3
13,0.0115204,0.955,1,3
14,0.0124302,0.9468,1,3
15,0.0133305,0.9395,1,3
16,0.0142298,0.9304,1,3
17,0.0151205,0.924,1,3
18,0.0160103,0.9176,1,3
19,0.01688,0.9085,1,3
20,0.0177402,0.9012,1,3
21,0.01861,0.8939,1,3
22,0.0194502,0.8857,1,3
23,0.0202999,0.8775,1,3
24,0.0211105,0.8676,1,3
25,0.0219297,0.8598,1,3
26,0.0227203,0.8486,1,3
27,0.0235004,0.8374,1,3
28,0.0242701,0.8257,1,3
29,0.0250101,0.8124,1,3
30,0.0257301,0.7986,1,3
31,0.0264702,0.7861,1,3
32,0.0271702,0.7719,1,3
33,0.0278502,0.7555,1,3
34,0.0285301,0.7421,1,3
35,0.0291805,0.7253,1,3
36,0.0298204,0.7098,1,3
37,0.0304403,0.6947,1,3
38,0.0310307,0.6766,1,3
39,0.03162,0.661,1,3
40,0.0321999,0.6472,1,3
41,0.0327501,0.6282,1,3
42,0.0332804,0.6114,1,3
43,0.0338001,0.595,1,3
44,0.0343103,0.5778,1,3
45,0.03479,0.5614,1,3
46,0.0352497,0.5437,1,3
47,0.0357103,0.5268,1,3
48,0.0361605,0.513,1,3
49,0.0365705,0.4958,1,3
50,0.0369701,0.4768,1,3
51,0.0373507,0.4604,1,3
52,0.0377197,0.444,1,3
53,0.0380802,0.4276,1,3
54,0.0384102,0.4099,1,3
55,0.0387106,0.3922,1,3
56,0.03901,0.3762,1,3
57,0.0393,0.3585,1,3
58,0.0395603,0.3395,1,3
59,0.0398102,0.324,1,3
60,0.0400505,0.3085,1,3
61,0.0402699,0.2912,1,3
62,0.0404606,0.2743,1,3
63,0.0406399,0.2562,1,3
64,0.0408001,0.2394,1,3
65,0.0409498,0.2239,1,3
66,0.0410805,0.2066,1,3
67,0.0412006,0.1902,1,3
68,0.0412998,0.1738,1,3
69,0.0413904,0.1574,1,3
70,0.0414505,0.1397,1,3
71,0.0415106,0.1246,1,3
72,0.0415506,0.1087,1,3
73,0.0415802,0.094,1,3
74,0.0415897,0.0793,1,3
75,0.0415897,0.0642,1,3
76,0.0415897,0.0509,1,3
77,0.0415306,0.0363,1,3
78,0.0414906,0.0221,1,3
79,0.0414305,-0,1,3
80,0.0413704,-0,1,3
81,0.0412998,-0.018,1,3
82,0.0412197,-0.0297,1,3
83,0.0411406,-0.0413,1,3
84,0.0410404,-0.0521,1,3
85,0.0409403,-0.062,1,3
86,0.0408401,-0.0724,1,3
87,0.04072,-0.081,1,3
88,0.0405998,-0.0883,1,3
89,0.0404806,-0.0948,1,3
90,0.0403605,-0.1013,1,3
91,0.0402203,-0.1082,1,3
92,0.0400906,-0.1133,1,3
93,0.0399399,-0.1198,1,3
94,0.0398006,-0.1245,1,3
95,0.0396299,-0.1314,1,3
96,0.0394897,-0.1344,1,3
97,0.03934,-0.1375,1,3
98,0.0391903,-0.1414,1,3
99,0.0390301,-0.1448,1,3
100,0.0388699,-0.1487,1,3
101,0.0387201,-0.1496,1,3
102,0.0385599,-0.1527,1,3
103,0.0384007,-0.1536,1,3
104,0.0382404,-0.1554,1,3
105,0.0380802,-0.1546,1,3
106,0.0379105,-0.1576,1,3
107,0.0377502,-0.1593,1,3
108,0.0375805,-0.1606,1,3
109,0.0374298,-0.1606,1,3
110,0.0372601,-0.161,1,3
111,0.0371103,-0.1614,1,3
112,0.0369501,-0.1614,1,3
113,0.0367899,-0.1614,1,3
114,0.0366306,-0.1609,1,3
115,0.0364799,-0.1604,1,3
116,0.0363302,-0.1583,1,3
117,0.0361805,-0.157,1,3
118,0.0360203,-0.1557,1,3
119,0.0358706,-0.1557,1,3
120,0.0357304,-0.1531,1,3
121,0.0355701,-0.1536,1,3
122,0.03543,-0.1523,1,3
123,0.0352898,-0.1497,1,3
124,0.0351505,-0.148,1,3
125,0.0350103,-0.1463,1,3
126,0.0348806,-0.1454,1,3
127,0.0347404,-0.1437,1,3
128,0.0346098,-0.1411,1,3
129,0.0344801,-0.139,1,3
130,0.0343599,-0.1373,1,3
131,0.0342398,-0.1334,1,3
132,0.0341101,-0.1312,1,3
133,0.0339804,-0.1303,1,3
134,0.0338602,-0.1286,1,3
135,0.03374,-0.1269,1,3
136,0.0334997,-0.1247,1,3
137,0.0334997,-0.1225,1,3
138,0.0333805,-0.1204,1,3
139,0.0331697,-0.1174,1,3
140,0.0330601,-0.1161,1,3
141,0.0329504,-0.1156,1,3
142,0.0328503,-0.1135,1,3
143,0.0327406,-0.1114,1,3
144,0.03265,-0.1088,1,3
145,0.0325403,-0.1075,1,3
146,0.0324402,-0.1058,1,3
147,0.03234,-0.1041,1,3
148,0.0322504,-0.1028,1,3
149,0.0321598,-0.101,1,3
150,0.0320606,-0.1001,1,3
151,0.03197,-0.098,1,3
152,0.0318804,-0.0967,1,3
153,0.0317898,-0.0949,1,3
154,0.0316906,-0.0958,1,3
155,0.03162,-0.0923,1,3
156,0.0315399,-0.0902,1,3
157,0.0314598,-0.0885,1,3
158,0.0313702,-0.0876,1,3
159,0.0313101,-0.0859,1,3
160,0.0312405,-0.0829,1,3
161,0.0311003,-0.0803,1,3
162,0.0310402,-0.0772,1,3
163,0.0310402,-0.0751,1,3
164,0.0309801,-0.0712,1,3
165,0.0309305,-0.0691,1,3
166,0.0308599,-0.0678,1,3
167,0.0308104,-0.0647,1,3
168,0.0307598,-0.0613,1,3
169,0.0307102,-0.0591,1,3
170,0.0306606,-0.0574,1,3
171,0.0306206,-0.0548,1,3
172,0.03057,-0.0535,1,3
173,0.0305405,-0.05,1,3
174,0.0305004,-0.0474,1,3
175,0.0304699,-0.0457,1,3
176,0.0304403,-0.0422,1,3
177,0.0304003,-0.041,1,3
178,0.0303802,-0.0384,1,3
179,0.0303497,-0.0363,1,3
180,0.0303307,-0.0337,1,3
181,0.0303106,-0.0311,1,3
182,0.0302906,-0.0286,1,3
183,0.0302706,-0.0273,1,3
184,0.0302505,-0.0251,1,3
185,0.0302401,-0.0233,1,3
186,0.0302305,-0.0212,1,3
187,0.03022,-0.0186,1,3
188,0.0302,-0.0173,1,3
189,0.0302,-0.0147,1,3
190,0.0302,-0.0125,1,3
191,0.0302,-0.0112,1,3
192,0.0302,-0.009,1,3
193,0.0301905,-0,1,3
194,0.0302,-0,1,3
195,0.0302,-0,1,3
196,0.0302,-0,1,3
197,0.0302,-0,1,3
198,0.0302,-0,1,3
199,0.0302,-0,1,3
200,0.0302105,-0,1,3
201,0.0302105,-0,1,3
202,0.0302105,-0,1,3
203,0.0302105,-0,1,3
204,0.03022,-0,1,3
205,0.03022,-0,1,3
206,0.0302105,-0,1,3
207,0.0302105,-0,1,3
208,0.0302105,-0,1,3
209,0.0302,-0,1,3
210,0.0302,-0,1,3
211,0.0302,-0,1,3
212,0.0302,-0,1,3
213,0.0301905,-0,1,3
214,0.03018,-0,1,3
215,0.0301704,-0,1,3
216,0.03016,-0,1,3
217,0.0301504,-0,1,3
218,0.0301304,-0,1,3
219,0.0300999,-0.0087,1,3
220,0.0300903,-0.0096,1,3
221,0.0300703,-0.0109,1,3
222,0.0300503,-0.0127,1,3
223,0.0300398,-0.0131,1,3
224,0.0300303,-0.0135,1,3
225,0.0300102,-0.0135,1,3
226,0.0299997,-0.0139,1,3
227,0.0299902,-0.0143,1,3
228,0.0299702,-0.0152,1,3
229,0.0299501,-0.0148,1,3
230,0.0299406,-0.0152,1,3
231,0.0299301,-0.0148,1,3
232,0.0299206,-0.0139,1,3
233,0.0299006,-0.0139,1,3
234,0.0298901,-0.0135,1,3
235,0.0298805,-0.0139,1,3
236,0.0298605,-0.0139,1,3
237,0.0298605,-0.0135,1,3
238,0.0298405,-0.0126,1,3
239,0.02983,-0.0122,1,3
240,0.0298204,-0.0126,1,3
241,0.0298004,-0.0126,1,3
242,0.0298004,-0.0117,1,3
243,0.0297804,-0.0121,1,3
244,0.0297804,-0.0116,1,3
245,0.0297699,-0.0108,1,3
246,0.0297604,-0.0104,1,3
247,0.0297499,-0.0104,1,3
248,0.0297499,-0.0095,1,3
249,0.0297403,-0.0095,1,3
250,0.0297298,-0.0087,1,3
251,0.0297298,-0,1,3
252,0.0297203,-0,1,3
253,0.0297203,-0,1,3
254,0.0297098,-0,1,3
255,0.0297098,-0,1,3
256,0.0297003,-0,1,3
257,0.0297003,-0,1,3
258,0.0297003,-0,1,3
259,0.0297003,-0,1,3
260,0.0297003,-0,1,3
261,0.0297003,-0,1,3
262,0.0297003,-0,1,3
263,0.0297003,-0,1,3
264,0.0297003,-0,1,3
265,0.0297003,-0,1,3
266,0.0297003,-0,1,3
267,0.0297003,-0,1,3
268,0.0297098,-0,1,3
269,0.0297098,-0,1,3
270,0.0297098,-0,1,3
271,0.0297098,-0,1,3
272,0.0297098,-0,1,3
273,0.0297098,-0,1,3
274,0.0297098,-0,1,3
275,0.0297098,-0,1,3
276,0.0297003,-0,1,3
277,0.0297003,-0,1,3
278,0.0297003,-0,1,3
279,0.0297003,-0,1,3
280,0.0297003,-0,1,3
281,0.0297003,-0,1,3
282,0.0297003,-0,1,3
283,0.0297003,-0,1,3
284,0.0296898,-0,1,3
285,0.0296898,-0,1,3
286,0.0296803,-0,1,3
287,0.0296803,-0,1,3
288,0.0296698,-0,1,3
289,0.0296698,-0,1,3
290,0.0296602,-0,1,3
291,0.0296497,-0,1,3
292,0.0296402,-0,1,3
293,0.0296307,-0,1,3
294,0.0296202,-0,1,3
295,0.0296001,-0.0082,1,3
296,0.0295906,-0.0095,1,3
297,0.0295706,-0.0108,1,3
298,0.0295506,-0.0126,1,3
299,0.0295401,-0.013,1,3
300,0.02952,-0.0138,1,3
301,0.0294905,-0.016,1,3
302,0.0294704,-0.0173,1,3
303,0.0294399,-0.019,1,3
304,0.0294199,-0.0199,1,3
305,0.0293903,-0.0212,1,3
306,0.0293598,-0.0225,1,3
307,0.0293198,-0.0247,1,3
308,0.0292902,-0.026,1,3
309,0.0292501,-0.0286,1,3
310,0.0292206,-0.0304,1,3
311,0.02917,-0.0321,1,3
312,0.02913,-0.0338,1,3
313,0.0290899,-0.0355,1,3
314,0.0290403,-0.038,1,3
315,0.0289898,-0.0401,1,3
316,0.0289402,-0.0423,1,3
317,0.0288801,-0.044,1,3
318,0.0288305,-0.0461,1,3
319,0.0287704,-0.0478,1,3
320,0.0286999,-0.0512,1,3
321,0.0286503,-0.0521,1,3
322,0.0285902,-0.0547,1,3
323,0.0285206,-0.0569,1,3
324,0.02845,-0.0587,1,3
325,0.0283804,-0.0613,1,3
326,0.0282297,-0.0634,1,3
327,0.0281601,-0.0651,1,3
328,0.0281601,-0.069,1,3
329,0.02806,-0.0729,1,3
330,0.0278902,-0.0751,1,3
331,0.0278902,-0.0803,1,3
332,0.0277901,-0.0824,1,3
333,0.0276203,-0.0841,1,3
334,0.0275202,-0.0871,1,3
335,0.02742,-0.0902,1,3
336,0.0273199,-0.0928,1,3
337,0.0272102,-0.0959,1,3
338,0.0271206,-0.0959,1,3
339,0.02701,-0.0972,1,3
340,0.0269003,-0.0993,1,3
341,0.0267801,-0.101,1,3
342,0.02668,-0.1028,1,3
343,0.0265503,-0.1067,1,3
344,0.0264301,-0.1088,1,3
345,0.02631,-0.1109,1,3
346,0.0261898,-0.1131,1,3
347,0.0260506,-0.1161,1,3
348,0.0259199,-0.12,1,3
349,0.0257797,-0.123,1,3
350,0.0256405,-0.126,1,3
351,0.0255003,-0.1277,1,3
352,0.0253601,-0.1311,1,3
353,0.0252304,-0.1324,1,3
354,0.0250797,-0.1355,1,3
355,0.02493,-0.1377,1,3
356,0.0247898,-0.1403,1,3
357,0.0246401,-0.142,1,3
358,0.0244703,-0.1446,1,3
359,0.0243301,-0.1455,1,3
360,0.0241699,-0.1473,1,3
361,0.0240002,-0.1503,1,3
362,0.0238304,-0.1538,1,3
363,0.0236607,-0.1564,1,3
364,0.0235004,-0.1585,1,3
365,0.0233297,-0.1602,1,3
366,0.02316,-0.1628,1,3
367,0.0229902,-0.165,1,3
368,0.02281,-0.1671,1,3
369,0.0226297,-0.1701,1,3
370,0.0224504,-0.1718,1,3
371,0.0222702,-0.1727,1,3
372,0.02209,-0.174,1,3
373,0.0219002,-0.1766,1,3
374,0.0217104,-0.1792,1,3
375,0.0215206,-0.1814,1,3
376,0.0213299,-0.1827,1,3
377,0.0211401,-0.1844,1,3
378,0.0209503,-0.1853,1,3
379,0.0207701,-0.1866,1,3
380,0.0205803,-0.1875,1,3
381,0.0203905,-0.1888,1,3
382,0.0201902,-0.19,1,3
383,0.0200005,-0.19,1,3
384,0.0197906,-0.1913,1,3
385,0.0195999,-0.1925,1,3
386,0.0194101,-0.1929,1,3
387,0.0192204,-0.1929,1,3
388,0.0190201,-0.1933,1,3
389,0.0188198,-0.1946,1,3
390,0.0186405,-0.1958,1,3
391,0.0184402,-0.1966,1,3
392,0.0182505,-0.1949,1,3
393,0.0180702,-0.194,1,3
394,0.0178699,-0.1927,1,3
395,0.0174799,-0.1919,1,3
396,0.0173006,-0.1915,1,3
397,0.0171099,-0.1911,1,3
398,0.0169201,-0.1903,1,3
399,0.0167398,-0.1881,1,3
400,0.0165606,-0.1864,1,3
401,0.0163898,-0.1843,1,3
402,0.0162106,-0.1835,1,3
403,0.0160303,-0.1835,1,3
404,0.0158606,-0.1818,1,3
405,0.0156698,-0.1809,1,3
406,0.0154905,-0.1804,1,3
407,0.0153198,-0.1786,1,3
408,0.0151606,-0.1764,1,3
409,0.0149899,-0.1751,1,3
410,0.0148306,-0.173,1,3
411,0.0146704,-0.1717,1,3
412,0.0145102,-0.1699,1,3
413,0.0143604,-0.1669,1,3
414,0.0142202,-0.1639,1,3
415,0.0140705,-0.1605,1,3
416,0.0139198,-0.1571,1,3
417,0.0137806,-0.1545,1,3
418,0.0136204,-0.1528,1,3
419,0.0134802,-0.1507,1,3
420,0.01334,-0.1476,1,3
421,0.0132103,-0.1441,1,3
422,0.0130901,-0.1415,1,3
423,0.0129604,-0.1389,1,3
424,0.0128403,-0.1367,1,3
425,0.0127201,-0.1336,1,3
426,0.0125999,-0.1305,1,3
427,0.0124903,-0.1271,1,3
428,0.0123806,-0.124,1,3
429,0.01227,-0.1201,1,3
430,0.0121698,-0.1176,1,3
431,0.0120602,-0.1151,1,3
432,0.0119705,-0.1117,1,3
433,0.0118599,-0.1096,1,3
434,0.0117702,-0.1066,1,3
435,0.0116806,-0.1041,1,3
436,0.0116005,-0.1007,1,3
437,0.0115099,-0.0985,1,3
438,0.0114202,-0.096,1,3
439,0.0113401,-0.0934,1,3
440,0.01126,-0.0908,1,3
441,0.0111904,-0.0877,1,3
442,0.0111198,-0.0847,1,3
443,0.0110502,-0.0812,1,3
444,0.0109901,-0.0777,1,3
445,0.0109301,-0.0746,1,3
446,0.0108805,-0.072,1,3
447,0.0108204,-0.0686,1,3
448,0.0107603,-0.0655,1,3
449,0.0107298,-0.0608,1,3
450,0.0106802,-0.0582,1,3
451,0.0106401,-0.0548,1,3
452,0.0106001,-0.0518,1,3
453,0.0105705,-0.0488,1,3
454,0.0105305,-0.0463,1,3
455,0.0105104,-0.0429,1,3
456,0.0104704,-0.0403,1,3
457,0.0104504,-0.0381,1,3
458,0.0104303,-0.0338,1,3
459,0.0104103,-0.0325,1,3
460,0.0103903,-0.029,1,3
461,0.0103798,-0.0264,1,3
462,0.0103598,-0.0242,1,3
463,0.0103502,-0.0212,1,3
464,0.0103502,-0.0181,1,3
465,0.0103397,-0.0164,1,3
466,0.0103502,-0.013,1,3
467,0.0103502,-0.0096,1,3
468,0.0103502,-0,1,3
469,0.0103598,-0,1,3
470,0.0103598,-0,1,3
471,0.0103798,-0,1,3
472,0.0103798,-0,1,3
473,0.0103998,-0,1,3
474,0.0104103,-0,1,3
475,0.0104198,0.0082,1,3
476,0.0104399,0.0091,1,3
477,0.0104504,0.0104,1,3
478,0.0104704,0.0121,1,3
479,0.0104904,0.0129,1,3
480,0.0105104,0.0142,1,3
481,0.01052,0.0142,1,3
482,0.01054,0.015,1,3
483,0.01056,0.0163,1,3
484,0.0105801,0.0167,1,3
485,0.0105906,0.0171,1,3
486,0.0106201,0.0171,1,3
487,0.0106401,0.0176,1,3
488,0.0106602,0.0172,1,3
489,0.0106697,0.0172,1,3
490,0.0106897,0.0168,1,3
491,0.0107002,0.0168,1,3
492,0.0107098,0.0164,1,3
493,0.0107298,0.0151,1,3
494,0.0107403,0.0151,1,3
495,0.0107498,0.0143,1,3
496,0.0107603,0.0139,1,3
497,0.0107698,0.013,1,3
498,0.0107803,0.0126,1,3
499,0.0107899,0.0118,1,3
500,0.0108004,0.0114,1,3
501,0.0108099,0.011,1,3
502,0.0108204,0.011,1,3
503,0.0108204,0.0101,1,3
504,0.0108299,0.0088,1,3
505,0.0108404,0.0088,1,3
506,0.0108404,0.0083,1,3
507,0.0108404,-0,1,3
508,0.01085,-0,1,3
509,0.01085,-0,1,3
510,0.01085,-0,1,3
511,0.0108604,-0,1,3
512,0.0108604,-0,1,3
513,0.0108604,-0,1,3
514,0.0108604,-0,1,3
515,0.0108604,-0,1,3
516,0.0108604,-0,1,3
517,0.0108604,-0,1,3
518,0.0108604,-0,1,3
519,0.01085,-0,1,3
520,0.01085,-0,1,3
521,0.01085,-0,1,3
522,0.01085,-0,1,3
523,0.01085,-0,1,3
524,0.01085,-0,1,3
525,0.01085,-0,1,3
526,0.01085,-0,1,3
527,0.01085,-0,1,3
528,0.01085,-0,1,3
529,0.01085,-0,1,3
530,0.01085,-0,1,3
531,0.01085,-0,1,3
532,0.01085,-0,1,3
533,0.0108604,-0,1,3
534,0.0108604,-0,1,3
535,0.0108604,-0,1,3
536,0.0108604,-0,1,3
537,0.0108604,-0,1,3
538,0.01087,-0,1,3
539,0.01087,-0,1,3
540,0.01087,-0,1,3
541,0.01087,-0,1,3
542,0.01087,-0,1,3
543,0.01087,-0,1,3
544,0.0108805,-0,1,3
545,0.0108805,-0,1,3
546,0.0108805,-0,1,3
547,0.01089,-0,1,3
548,0.01089,-0,1,3
549,0.01089,-0,1,3
550,0.01089,-0,1,3
551,0.01089,-0,1,3
552,0.0109005,-0,1,3
553,0.01091,-0,1,3
554,0.01091,-0,1,3
555,0.0109205,-0,1,3
556,0.0109205,-0,1,3
557,0.0109301,-0,1,3
558,0.0109406,-0,1,3
559,0.0109406,-0,1,3
560,0.0109501,-0,1,3
561,0.0109606,-0,1,3
562,0.0109701,-0,1,3
563,0.0109806,-0,1,3
564,0.0109901,0.0083,1,3
565,0.0110102,0.0096,1,3
566,0.0110102,0.01,1,3
567,0.0110397,0.0109,1,3
568,0.0110397,0.0113,1,3
569,0.0110703,0.0122,1,3
570,0.0110703,0.0126,1,3
571,0.0111103,0.0143,1,3
572,0.0111303,0.0151,1,3
573,0.0111504,0.016,1,3
574,0.0111704,0.0173,1,3
575,0.0111904,0.0178,1,3
576,0.0112104,0.0187,1,3
577,0.01124,0.02,1,3
578,0.0112705,0.0217,1,3
579,0.0113001,0.0234,1,3
580,0.0113306,0.0247,1,3
581,0.0113707,0.0264,1,3
582,0.0114098,0.0282,1,3
583,0.0114803,0.0295,1,3
584,0.0114803,0.032,1,3
585,0.0115299,0.0345,1,3
586,0.01157,0.0366,1,3
587,0.01161,0.0383,1,3
588,0.0116501,0.0392,1,3
589,0.0117006,0.0414,1,3
590,0.0117502,0.0427,1,3
591,0.0117903,0.0436,1,3
592,0.0118399,0.0457,1,3
593,0.0118999,0.0478,1,3
594,0.01196,0.0491,1,3
595,0.0120106,0.0496,1,3
596,0.0120802,0.0518,1,3
597,0.0121403,0.0535,1,3
598,0.0122004,0.0561,1,3
599,0.0122604,0.0565,1,3
600,0.0123301,0.0591,1,3
601,0.0123901,0.0608,1,3
602,0.0124702,0.0625,1,3
603,0.0125399,0.0638,1,3
604,0.0126104,0.0651,1,3
605,0.0126905,0.0677,1,3
606,0.0127707,0.0698,1,3
607,0.0128498,0.0716,1,3
608,0.0129299,0.0733,1,3
609,0.0130301,0.0768,1,3
610,0.0131102,0.0781,1,3
611,0.0132103,0.0811,1,3
612,0.0132999,0.0829,1,3
613,0.0133801,0.0846,1,3
614,0.0134802,0.0872,1,3
615,0.0135899,0.0898,1,3
616,0.0137005,0.0924,1,3
617,0.0138006,0.095,1,3
618,0.0138998,0.0967,1,3
619,0.0139999,0.098,1,3
620,0.0141201,0.101,1,3
621,0.0142202,0.1015,1,3
622,0.0143404,0.104,1,3
623,0.0144501,0.1066,1,3
624,0.0145597,0.1079,1,3
625,0.0146799,0.1091,1,3
626,0.0148001,0.11,1,3
627,0.0149202,0.1117,1,3
628,0.0150499,0.1147,1,3
629,0.0151806,0.1172,1,3
630,0.0152903,0.1176,1,3
631,0.01542,0.1197,1,3
632,0.0155506,0.121,1,3
633,0.0156898,0.1236,1,3
634,0.01583,0.1262,1,3
635,0.0159597,0.1284,1,3
636,0.0160999,0.1301,1,3
637,0.0162401,0.1322,1,3
638,0.0163803,0.1335,1,3
639,0.01651,0.1335,1,3
640,0.0167904,0.1361,1,3
641,0.0169306,0.1383,1,3
642,0.0170698,0.1392,1,3
643,0.0172205,0.1401,1,3
644,0.0173597,0.1405,1,3
645,0.0174999,0.1409,1,3
646,0.0176506,0.1413,1,3
647,0.0178003,0.1426,1,3
648,0.0179701,0.1448,1,3
649,0.0181103,0.1466,1,3
650,0.01826,0.1471,1,3
651,0.0184002,0.1471,1,3
652,0.0185499,0.1475,1,3
653,0.0186901,0.1475,1,3
654,0.0188398,0.1475,1,3
655,0.0189905,0.1488,1,3
656,0.0191298,0.1488,1,3
657,0.01929,0.1475,1,3
658,0.0195799,0.1458,1,3
659,0.0195799,0.1466,1,3
660,0.0197306,0.1474,1,3
661,0.0198803,0.1474,1,3
662,0.0200405,0.1492,1,3
663,0.0201902,0.1492,1,3
664,0.0203304,0.1497,1,3
665,0.0204802,0.1484,1,3
666,0.0206203,0.1484,1,3
667,0.0207605,0.1484,1,3
668,0.0209103,0.1484,1,3
669,0.0210505,0.1467,1,3
670,0.0211802,0.145,1,3
671,0.0213299,0.1445,1,3
672,0.0214605,0.1423,1,3
673,0.0215998,0.1414,1,3
674,0.02174,0.1405,1,3
675,0.0218801,0.1405,1,3
676,0.0220203,0.1405,1,3
677,0.0221605,0.1401,1,3
678,0.0222902,0.1383,1,3
679,0.0224199,0.1374,1,3
680,0.0225506,0.1365,1,3
681,0.0226803,0.1352,1,3
682,0.0228004,0.1335,1,3
683,0.0229301,0.1326,1,3
684,0.0230598,0.1313,1,3
685,0.02318,0.1292,1,3
686,0.0233002,0.1271,1,3
687,0.0234203,0.1254,1,3
688,0.0235405,0.1246,1,3
689,0.0236607,0.1238,1,3
690,0.0237799,0.123,1,3
691,0.0239105,0.123,1,3
692,0.0240297,0.1234,1,3
693,0.0242701,0.1217,1,3
694,0.0242701,0.1213,1,3
695,0.0244999,0.12,1,3
696,0.0244999,0.1195,1,3
697,0.0247402,0.1199,1,3
698,0.0248499,0.1194,1,3
699,0.0249605,0.1181,1,3
700,0.0250797,0.1181,1,3
701,0.0251904,0.1156,1,3
702,0.0253,0.1143,1,3
703,0.0254202,0.1147,1,3
704,0.0255299,0.1138,1,3
705,0.0256405,0.1146,1,3
706,0.0257406,0.1129,1,3
707,0.0258703,0.1133,1,3
708,0.02598,0.1121,1,3
709,0.0261002,0.1134,1,3
710,0.0262003,0.1121,1,3
711,0.02631,0.1125,1,3
712,0.0264206,0.1117,1,3
713,0.0265198,0.1109,1,3
714,0.0266199,0.1096,1,3
715,0.0267305,0.1088,1,3
716,0.0268402,0.1093,1,3
717,0.0269403,0.1068,1,3
718,0.0270405,0.1063,1,3
719,0.0271406,0.1046,1,3
720,0.0272398,0.1037,1,3
721,0.0273399,0.1033,1,3
722,0.0274401,0.1028,1,3
723,0.0275402,0.1019,1,3
724,0.0276403,0.1019,1,3
725,0.0277405,0.1006,1,3
726,0.0278406,0.101,1,3
727,0.0279398,0.1005,1,3
728,0.0280399,0.1005,1,3
729,0.0281506,0.1005,1,3
730,0.0282402,0.0997,1,3
731,0.0283298,0.0988,1,3
732,0.0284204,0.098,1,3
733,0.0285101,0.0972,1,3
734,0.0285997,0.0964,1,3
735,0.0286999,0.0964,1,3
736,0.0287905,0.0951,1,3
737,0.0288801,0.0934,1,3
738,0.0289698,0.0926,1,3
739,0.0290499,0.0908,1,3
740,0.0291405,0.0903,1,3
741,0.0292301,0.0894,1,3
742,0.0293102,0.0885,1,3
743,0.0293903,0.088,1,3
744,0.02948,0.0875,1,3
745,0.0295601,0.0858,1,3
746,0.0296402,0.0849,1,3
747,0.0297203,0.0845,1,3
748,0.02981,0.084,1,3
749,0.0298901,0.084,1,3
750,0.0299702,0.0827,1,3
751,0.0300503,0.0823,1,3
752,0.0301399,0.0827,1,3
753,0.0302105,0.0814,1,3
754,0.0302801,0.0801,1,3
755,0.0303602,0.0796,1,3
756,0.0304203,0.0779,1,3
757,0.0304899,0.077,1,3
758,0.03057,0.0757,1,3
759,0.0306301,0.0736,1,3
760,0.0306997,0.0732,1,3
761,0.0307598,0.071,1,3
762,0.0308304,0.0693,1,3
763,0.0308905,0.068,1,3
764,0.0309601,0.0672,1,3
765,0.0310202,0.0664,1,3
766,0.0310802,0.0651,1,3
767,0.0311403,0.0642,1,3
768,0.0311899,0.0625,1,3
769,0.03125,0.0616,1,3
770,0.0313101,0.0603,1,3
771,0.0313606,0.0599,1,3
772,0.0314102,0.0586,1,3
773,0.0314703,0.0582,1,3
774,0.0315104,0.056,1,3
775,0.0315599,0.0547,1,3
776,0.03162,0.0543,1,3
777,0.0316601,0.053,1,3
778,0.0317001,0.0526,1,3
779,0.0318003,0.0517,1,3
780,0.0318499,0.0508,1,3
781,0.0318899,0.0491,1,3
782,0.03193,0.0474,1,3
783,0.03197,0.0457,1,3
784,0.0320005,0.0453,1,3
785,0.0320606,0.0453,1,3
786,0.0320902,0.044,1,3
787,0.0321198,0.0423,1,3
788,0.0321503,0.0401,1,3
789,0.0321798,0.0384,1,3
790,0.0322104,0.0372,1,3
791,0.03228,0.0368,1,3
792,0.0322905,0.0342,1,3
793,0.0322905,0.0333,1,3
794,0.0323505,0.032,1,3
795,0.0323706,0.0285,1,3
796,0.0323906,0.0272,1,3
797,0.0324202,0.0268,1,3
798,0.0324402,0.0255,1,3
799,0.0324497,0.0242,1,3
800,0.0324697,0.0224,1,3
801,0.0324898,0.0211,1,3
802,0.0325098,0.0215,1,3
803,0.0325098,0.0189,1,3
804,0.0325298,0.018,1,3
805,0.0325403,0.0176,1,3
806,0.0325603,0.0163,1,3
807,0.0325603,0.0141,1,3
808,0.0325699,0.0137,1,3
809,0.0325804,0.0129,1,3
810,0.0325899,0.0121,1,3
811,0.0326004,0.0112,1,3
812,0.0326099,0.0099,1,3
813,0.0326099,0.0099,1,3
814,0.03263,0.0095,1,3
815,0.03263,0.0086,1,3
816,0.03263,-0,1,3
817,0.0326405,-0,1,3
818,0.0326405,-0,1,3
819,0.0326405,-0,1,3
820,0.03265,-0,1,3
821,0.0326405,-0,1,3
822,0.03265,-0,1,3
823,0.03265,-0,1,3
824,0.0326405,-0,1,3
825,0.0326405,-0,1,3
826,0.03265,-0,1,3
827,0.0326405,-0,1,3
