cnt,pos,speed,Dir,Force,
1,0,1.0036,1,4
2,0.00105858,1.0156,1,4
3,0.00215912,1.0294,1,4
4,0.00322914,1.0406,1,4
5,0.00434875,1.0526,1,4
6,0.00548935,1.0682,1,4
7,0.00662994,1.0798,1,4
8,0.00778961,1.094,1,4
9,0.00893974,1.1048,1,4
10,0.0101299,1.1195,1,4
11,0.0113201,1.1311,1,4
12,0.0125294,1.1462,1,4
13,0.0137596,1.16,1,4
14,0.0149689,1.1738,1,4
15,0.0162086,1.1859,1,4
16,0.0174694,1.1984,1,4
17,0.0187397,1.2105,1,4
18,0.0200195,1.223,1,4
19,0.0213184,1.2381,1,4
20,0.0226288,1.2497,1,4
21,0.0239487,1.2635,1,4
22,0.02528,1.2756,1,4
23,0.0266285,1.2872,1,4
24,0.0279999,1.3028,1,4
25,0.0293789,1.3162,1,4
26,0.0307484,1.3278,1,4
27,0.0321693,1.3429,1,4
28,0.0335789,1.3559,1,4
29,0.0349998,1.3675,1,4
30,0.0364494,1.3826,1,4
31,0.037899,1.3952,1,4
32,0.0393696,1.4082,1,4
33,0.0408497,1.4216,1,4
34,0.0423489,1.4345,1,4
35,0.043869,1.4496,1,4
36,0.0453892,1.4634,1,4
37,0.0469284,1.4768,1,4
38,0.0484791,1.4906,1,4
39,0.0500488,1.5053,1,4
40,0.05163,1.5178,1,4
41,0.0532093,1.5354,1,4
42,0.0548401,1.5517,1,4
43,0.0564499,1.5642,1,4
44,0.0580692,1.5771,1,4
45,0.0597286,1.5905,1,4
46,0.0613995,1.6056,1,4
47,0.0630684,1.6181,1,4
48,0.0647602,1.6328,1,4
49,0.0664692,1.647,1,4
50,0.0681992,1.6613,1,4
51,0.0699291,1.6717,1,4
52,0.0716591,1.6821,1,4
53,0.07341,1.6964,1,4
54,0.0751896,1.7116,1,4
55,0.0769787,1.7249,1,4
56,0.0787792,1.7387,1,4
57,0.0805988,1.7534,1,4
58,0.0824299,1.7663,1,4
59,0.084259,1.7789,1,4
60,0.0861092,1.791,1,4
61,0.0879784,1.8048,1,4
62,0.089859,1.8203,1,4
63,0.0917702,1.8354,1,4
64,0.0936699,1.8479,1,4
65,0.0955887,1.8613,1,4
66,0.0975094,1.873,1,4
67,0.0994492,1.885,1,4
68,0.10141,1.8979,1,4
69,0.10339,1.9125,1,4
70,0.10537,1.9258,1,4
71,0.107368,1.9396,1,4
72,0.10939,1.9526,1,4
73,0.11141,1.9642,1,4
74,0.113449,1.9784,1,4
75,0.11549,1.9896,1,4
76,0.117559,2.0051,1,4
77,0.119659,2.0202,1,4
78,0.121729,2.0323,1,4
79,0.123819,2.0435,1,4
80,0.125938,2.0569,1,4
81,0.128078,2.0703,1,4
82,0.130199,2.0815,1,4
83,0.132359,2.0953,1,4
84,0.134529,2.1074,1,4
85,0.1367,2.1212,1,4
86,0.138899,2.1333,1,4
87,0.1411,2.1446,1,4
88,0.14332,2.1593,1,4
89,0.14782,2.1762,1,4
90,0.14782,2.1909,1,4
91,0.152328,2.2017,1,4
92,0.152328,2.2172,1,4
93,0.154619,2.2297,1,4
94,0.15691,2.2431,1,4
95,0.159229,2.2574,1,4
96,0.16157,2.2721,1,4
97,0.163898,2.2837,1,4
98,0.166229,2.2949,1,4
99,0.168589,2.3048,1,4
100,0.17095,2.3151,1,4
101,0.173359,2.3306,1,4
102,0.175739,2.341,1,4
103,0.178179,2.3566,1,4
104,0.18062,2.3708,1,4
105,0.18305,2.3824,1,4
106,0.18552,2.3944,1,4
107,0.187969,2.4074,1,4
108,0.19046,2.4229,1,4
109,0.192959,2.4367,1,4
110,0.195469,2.4514,1,4
111,0.197989,2.4635,1,4
112,0.200539,2.4794,1,4
113,0.20307,2.4893,1,4
114,0.205639,2.5018,1,4
115,0.208199,2.5148,1,4
116,0.210819,2.5304,1,4
117,0.213419,2.545,1,4
118,0.21603,2.5571,1,4
119,0.218679,2.5722,1,4
120,0.221329,2.5864,1,4
121,0.223969,2.598,1,4
122,0.22666,2.6119,1,4
123,0.22934,2.627,1,4
124,0.232029,2.6391,1,4
125,0.234779,2.6529,1,4
126,0.23748,2.6611,1,4
127,0.2402,2.6736,1,4
128,0.242979,2.6904,1,4
129,0.245729,2.702,1,4
130,0.248499,2.7132,1,4
131,0.254089,2.7283,1,4
132,0.254089,2.7416,1,4
133,0.259748,2.7571,1,4
134,0.2626,2.7735,1,4
135,0.26545,2.7877,1,4
136,0.268299,2.8032,1,4
137,0.271179,2.8183,1,4
138,0.274078,2.8309,1,4
139,0.276989,2.8452,1,4
140,0.27989,2.8595,1,4
141,0.282848,2.8764,1,4
142,0.285769,2.8863,1,4
143,0.28875,2.8997,1,4
144,0.29171,2.9109,1,4
145,0.29471,2.926,1,4
146,0.297699,2.9402,1,4
147,0.30072,2.954,1,4
148,0.30373,2.9652,1,4
149,0.30678,2.979,1,4
150,0.30982,2.9924,1,4
151,0.312899,3.0044,1,4
152,0.315948,3.0183,1,4
153,0.31905,3.0299,1,4
154,0.32214,3.0433,1,4
155,0.32526,3.0558,1,4
156,0.3284,3.0692,1,4
157,0.33153,3.0813,1,4
158,0.334709,3.0977,1,4
159,0.33787,3.1093,1,4
160,0.34103,3.1213,1,4
161,0.344229,3.133,1,4
162,0.347429,3.1472,1,4
163,0.350658,3.158,1,4
164,0.353859,3.1683,1,4
165,0.357109,3.1808,1,4
166,0.36035,3.1916,1,4
167,0.363628,3.2063,1,4
168,0.370169,3.2149,1,4
169,0.370169,3.23,1,4
170,0.37682,3.2473,1,4
171,0.380129,3.2589,1,4
172,0.383459,3.2718,1,4
173,0.38682,3.2882,1,4
174,0.39019,3.3042,1,4
175,0.393559,3.3167,1,4
176,0.39695,3.3318,1,4
177,0.400349,3.3439,1,4
178,0.403759,3.359,1,4
179,0.4072,3.3716,1,4
180,0.41066,3.3837,1,4
181,0.41411,3.3971,1,4
182,0.41758,3.4122,1,4
183,0.42108,3.4256,1,4
184,0.42458,3.4394,1,4
185,0.428089,3.4537,1,4
186,0.43162,3.4675,1,4
187,0.43515,3.4804,1,4
188,0.43873,3.4964,1,4
189,0.442289,3.5084,1,4
190,0.44586,3.5205,1,4
191,0.44944,3.5339,1,4
192,0.453049,3.5473,1,4
193,0.456669,3.5594,1,4
194,0.460289,3.5715,1,4
195,0.46394,3.5853,1,4
196,0.467569,3.5948,1,4
197,0.471239,3.609,1,4
198,0.47493,3.6206,1,4
199,0.4786,3.6314,1,4
200,0.4823,3.6443,1,4
201,0.486019,3.6572,1,4
202,0.489769,3.6714,1,4
203,0.49349,3.6817,1,4
204,0.49725,3.6955,1,4
205,0.501019,3.7076,1,4
206,0.504808,3.7244,1,4
207,0.5086,3.7361,1,4
208,0.512419,3.7486,1,4
209,0.516249,3.765,1,4
210,0.52009,3.7788,1,4
211,0.523949,3.7935,1,4
212,0.527819,3.8052,1,4
213,0.531689,3.8199,1,4
214,0.535599,3.8345,1,4
215,0.539509,3.8487,1,4
216,0.54344,3.8625,1,4
217,0.547379,3.8776,1,4
218,0.55131,3.8888,1,4
219,0.55526,3.9013,1,4
220,0.55925,3.9151,1,4
221,0.56324,3.9289,1,4
222,0.567249,3.9423,1,4
223,0.571239,3.9544,1,4
224,0.57527,3.967,1,4
225,0.579309,3.9804,1,4
226,0.58334,3.9899,1,4
227,0.587399,4.0024,1,4
228,0.59148,4.0171,1,4
229,0.59556,4.0301,1,4
230,0.599649,4.04,1,4
231,0.60376,4.0517,1,4
232,0.607889,4.0642,1,4
233,0.61204,4.0801,1,4
234,0.616179,4.0917,1,4
235,0.62035,4.1042,1,4
236,0.624519,4.118,1,4
237,0.62871,4.131,1,4
238,0.63291,4.1435,1,4
239,0.637119,4.1551,1,4
240,0.64135,4.1702,1,4
241,0.645578,4.1827,1,4
242,0.649818,4.193,1,4
243,0.654079,4.2038,1,4
244,0.65835,4.2172,1,4
245,0.66263,4.228,1,4
246,0.66691,4.2392,1,4
247,0.671219,4.2508,1,4
248,0.675539,4.2625,1,4
249,0.67988,4.2768,1,4
250,0.684238,4.2876,1,4
251,0.68858,4.3009,1,4
252,0.692949,4.3169,1,4
253,0.69734,4.3303,1,4
254,0.701719,4.3428,1,4
255,0.706129,4.3553,1,4
256,0.710548,4.3726,1,4
257,0.719439,4.386,1,4
258,0.719439,4.3998,1,4
259,0.7239,4.411,1,4
260,0.73283,4.4231,1,4
261,0.73283,4.4352,1,4
262,0.73732,4.4451,1,4
263,0.741829,4.4567,1,4
264,0.746359,4.4692,1,4
265,0.750879,4.4808,1,4
266,0.75543,4.4903,1,4
267,0.759989,4.5019,1,4
268,0.764559,4.5131,1,4
269,0.769129,4.5251,1,4
270,0.773729,4.5389,1,4
271,0.778349,4.5514,1,4
272,0.782969,4.5644,1,4
273,0.787609,4.5774,1,4
274,0.792269,4.5908,1,4
275,0.79694,4.6059,1,4
276,0.80163,4.6206,1,4
277,0.806309,4.6323,1,4
278,0.811029,4.6474,1,4
279,0.815779,4.6643,1,4
280,0.820499,4.6768,1,4
281,0.82526,4.6915,1,4
282,0.83,4.7031,1,4
283,0.834789,4.7182,1,4
284,0.844379,4.7328,1,4
285,0.84918,4.7462,1,4
286,0.853989,4.7582,1,4
287,0.858839,4.775,1,4
288,0.86368,4.7875,1,4
289,0.86854,4.7987,1,4
290,0.873409,4.813,1,4
291,0.87829,4.8255,1,4
292,0.88319,4.841,1,4
293,0.8881,4.8531,1,4
294,0.89303,4.8652,1,4
295,0.89798,4.8799,1,4
296,0.902929,4.8933,1,4
297,0.907888,4.9049,1,4
298,0.91284,4.9161,1,4
299,0.91782,4.9277,1,4
300,0.922819,4.941,1,4
301,0.927799,4.9505,1,4
302,0.932838,4.9648,1,4
303,0.93784,4.9743,1,4
304,0.9429,4.9873,1,4
305,0.947908,4.9933,1,4
306,0.953009,5.0084,1,4
307,0.958078,5.0188,1,4
308,0.96316,5.0313,1,4
309,0.968279,5.046,1,4
310,0.9734,5.0577,1,4
311,0.978498,5.0694,1,4
312,0.98365,5.081,1,4
313,0.988829,5.0986,1,4
314,0.993999,5.1094,1,4
315,0.99918,5.1267,1,4
316,1.00439,5.1384,1,4
317,1.0096,5.1526,1,4
318,1.01481,5.1647,1,4
319,1.02003,5.1755,1,4
320,1.02528,5.1889,1,4
321,1.03053,5.2035,1,4
322,1.03579,5.2143,1,4
323,1.04109,5.2264,1,4
324,1.04637,5.2384,1,4
325,1.05166,5.2531,1,4
326,1.05699,5.2621,1,4
327,1.06766,5.2781,1,4
328,1.07302,5.2941,1,4
329,1.07839,5.3075,1,4
330,1.08379,5.323,1,4
331,1.08919,5.3381,1,4
332,1.0946,5.3536,1,4
333,1.10004,5.3674,1,4
334,1.1055,5.3838,1,4
335,1.11098,5.3989,1,4
336,1.11642,5.4123,1,4
337,1.1219,5.4235,1,4
338,1.1274,5.4381,1,4
339,1.13292,5.4536,1,4
340,1.13842,5.4622,1,4
341,1.14396,5.4769,1,4
342,1.1495,5.4899,1,4
343,1.15508,5.5037,1,4
344,1.16065,5.5149,1,4
345,1.16623,5.5252,1,4
346,1.17184,5.5425,1,4
347,1.17746,5.5563,1,4
348,1.1831,5.5693,1,4
349,1.18872,5.5797,1,4
350,1.19437,5.5957,1,4
351,1.2,5.6043,1,4
352,1.20566,5.6159,1,4
353,1.21136,5.6276,1,4
354,1.21702,5.6376,1,4
355,1.22274,5.6505,1,4
356,1.22845,5.6604,1,4
357,1.23416,5.6703,1,4
358,1.23989,5.6789,1,4
359,1.24564,5.6922,1,4
360,1.2514,5.7025,1,4
361,1.25716,5.7155,1,4
362,1.26296,5.7293,1,4
363,1.26874,5.7384,1,4
364,1.27456,5.7535,1,4
365,1.28622,5.7656,1,4
366,1.29207,5.7803,1,4
367,1.29792,5.7937,1,4
368,1.30381,5.8097,1,4
369,1.30969,5.8222,1,4
370,1.31557,5.8352,1,4
371,1.32146,5.8481,1,4
372,1.32738,5.8598,1,4
373,1.33331,5.8749,1,4
374,1.33924,5.8861,1,4
375,1.34519,5.8973,1,4
376,1.35117,5.9093,1,4
377,1.35715,5.9227,1,4
378,1.36316,5.9352,1,4
379,1.36915,5.9465,1,4
380,1.3752,5.9624,1,4
381,1.38126,5.9797,1,4
382,1.38731,5.9931,1,4
383,1.3934,6.009,1,4
384,1.39945,6.0206,1,4
385,1.40554,6.0349,1,4
386,1.41164,6.0479,1,4
387,1.41774,6.0591,1,4
388,1.42388,6.0716,1,4
389,1.42998,6.0823,1,4
390,1.43614,6.0948,1,4
391,1.44231,6.1051,1,4
392,1.44847,6.1159,1,4
393,1.45466,6.1254,1,4
394,1.46084,6.1392,1,4
395,1.46705,6.1513,1,4
396,1.47328,6.1634,1,4
397,1.47951,6.1772,1,4
398,1.48573,6.1854,1,4
399,1.49198,6.2001,1,4
400,1.49824,6.2092,1,4
401,1.50451,6.2196,1,4
402,1.51081,6.2342,1,4
403,1.51707,6.2415,1,4
404,1.52339,6.2553,1,4
405,1.52971,6.2656,1,4
406,1.53606,6.2776,1,4
407,1.54241,6.2893,1,4
408,1.54876,6.3027,1,4
409,1.55515,6.317,1,4
410,1.56156,6.3321,1,4
411,1.56796,6.3454,1,4
412,1.57438,6.3571,1,4
413,1.5808,6.3727,1,4
414,1.58724,6.3844,1,4
415,1.59368,6.3974,1,4
416,1.60015,6.4095,1,4
417,1.60664,6.4237,1,4
418,1.61312,6.4366,1,4
419,1.61962,6.4469,1,4
420,1.62612,6.4564,1,4
421,1.63267,6.469,1,4
422,1.6392,6.4828,1,4
423,1.65233,6.4983,1,4
424,1.65893,6.5143,1,4
425,1.66555,6.5315,1,4
426,1.67216,6.5458,1,4
427,1.6788,6.5609,1,4
428,1.68544,6.5764,1,4
429,1.6921,6.5932,1,4
430,1.69877,6.6096,1,4
431,1.70542,6.6225,1,4
432,1.71213,6.6371,1,4
433,1.71883,6.6496,1,4
434,1.72555,6.6621,1,4
435,1.73227,6.6725,1,4
436,1.73903,6.6871,1,4
437,1.74581,6.7005,1,4
438,1.75256,6.7122,1,4
439,1.75936,6.726,1,4
440,1.76616,6.7389,1,4
441,1.77295,6.7523,1,4
442,1.77975,6.7623,1,4
443,1.78657,6.774,1,4
444,1.7934,6.7848,1,4
445,1.80022,6.7951,1,4
446,1.80707,6.8046,1,4
447,1.81393,6.8128,1,4
448,1.82079,6.8236,1,4
449,1.82766,6.8305,1,4
450,1.83456,6.8409,1,4
451,1.84148,6.8538,1,4
452,1.84838,6.8633,1,4
453,1.85534,6.8775,1,4
454,1.86226,6.8865,1,4
455,1.86923,6.9008,1,4
456,1.87618,6.9107,1,4
457,1.88315,6.9219,1,4
458,1.89016,6.9374,1,4
459,1.90419,6.9521,1,4
460,1.91119,6.9616,1,4
461,1.91826,6.9767,1,4
462,1.92531,6.9918,1,4
463,1.93241,7.006,1,4
464,1.93948,7.0211,1,4
465,1.94659,7.0353,1,4
466,1.95372,7.0526,1,4
467,1.96084,7.0677,1,4
468,1.96798,7.0802,1,4
469,1.97514,7.0949,1,4
470,1.9823,7.1113,1,4
471,1.98947,7.1212,1,4
472,1.99662,7.1311,1,4
473,2.00385,7.1436,1,4
474,2.01106,7.1574,1,4
475,2.01827,7.1673,1,4
476,2.02551,7.1794,1,4
477,2.03277,7.1932,1,4
478,2.04001,7.2031,1,4
479,2.0473,7.2152,1,4
480,2.05453,7.2229,1,4
481,2.06183,7.2355,1,4
482,2.06912,7.2497,1,4
483,2.07645,7.2601,1,4
484,2.08375,7.2692,1,4
485,2.09108,7.2813,1,4
486,2.09844,7.2929,1,4
487,2.10579,7.3015,1,4
488,2.11318,7.3166,1,4
489,2.12058,7.3286,1,4
490,2.128,7.3463,1,4
491,2.13542,7.3592,1,4
492,2.14284,7.3722,1,4
493,2.15027,7.3821,1,4
494,2.15772,7.3968,1,4
495,2.16517,7.4089,1,4
496,2.17265,7.421,1,4
497,2.18014,7.4353,1,4
498,2.19513,7.4466,1,4
499,2.20266,7.4591,1,4
500,2.2102,7.4716,1,4
501,2.21775,7.4845,1,4
502,2.22533,7.4996,1,4
503,2.23293,7.5169,1,4
504,2.24053,7.5328,1,4
505,2.24813,7.5475,1,4
506,2.25578,7.5643,1,4
507,2.2634,7.5776,1,4
508,2.27105,7.5918,1,4
509,2.2787,7.6044,1,4
510,2.2864,7.6204,1,4
511,2.29408,7.6329,1,4
512,2.30177,7.6445,1,4
513,2.30952,7.6592,1,4
514,2.31726,7.6722,1,4
515,2.325,7.6873,1,4
516,2.33275,7.6968,1,4
517,2.34051,7.7106,1,4
518,2.34826,7.721,1,4
519,2.35605,7.7348,1,4
520,2.36381,7.7408,1,4
521,2.3716,7.7521,1,4
522,2.37942,7.7651,1,4
523,2.38722,7.7702,1,4
524,2.39499,7.7736,1,4
525,2.40283,7.7826,1,4
526,2.41069,7.7947,1,4
527,2.41855,7.8042,1,4
528,2.42642,7.8167,1,4
529,2.43431,7.8257,1,4
530,2.44219,7.8378,1,4
531,2.45009,7.8486,1,4
532,2.45801,7.8593,1,4
533,2.46594,7.8718,1,4
534,2.47388,7.8891,1,4
535,2.48185,7.9025,1,4
536,2.48982,7.912,1,4
537,2.49785,7.9302,1,4
538,2.50584,7.9418,1,4
539,2.51388,7.9578,1,4
540,2.52195,7.9759,1,4
541,2.52998,7.9888,1,4
542,2.53804,8.0031,1,4
543,2.54612,8.0178,1,4
544,2.55418,8.0303,1,4
545,2.56223,8.0376,1,4
546,2.57033,8.0514,1,4
547,2.57844,8.0587,1,4
548,2.58657,8.0725,1,4
549,2.59471,8.0828,1,4
550,2.60286,8.091,1,4
551,2.61102,8.1039,1,4
552,2.61916,8.1116,1,4
553,2.62734,8.122,1,4
554,2.63552,8.1336,1,4
555,2.64371,8.1474,1,4
556,2.65192,8.1595,1,4
557,2.66014,8.1694,1,4
558,2.67662,8.1815,1,4
559,2.68491,8.1953,1,4
560,2.69321,8.2104,1,4
561,2.70149,8.2234,1,4
562,2.7098,8.2394,1,4
563,2.71812,8.2536,1,4
564,2.72644,8.2674,1,4
565,2.73477,8.2821,1,4
566,2.7431,8.2937,1,4
567,2.75147,8.3092,1,4
568,2.75983,8.3204,1,4
569,2.7682,8.3295,1,4
570,2.7766,8.3399,1,4
571,2.78501,8.352,1,4
572,2.79344,8.3641,1,4
573,2.8019,8.3788,1,4
574,2.81037,8.3935,1,4
575,2.81885,8.4077,1,4
576,2.82734,8.4237,1,4
577,2.83582,8.4354,1,4
578,2.84433,8.4501,1,4
579,2.85286,8.4656,1,4
580,2.8614,8.4794,1,4
581,2.86995,8.4936,1,4
582,2.87853,8.5091,1,4
583,2.8871,8.5194,1,4
584,2.89571,8.5332,1,4
585,2.90429,8.5444,1,4
586,2.91286,8.5522,1,4
587,2.92149,8.5664,1,4
588,2.93008,8.575,1,4
589,2.9387,8.5841,1,4
590,2.94734,8.5945,1,4
591,2.95596,8.6014,1,4
592,2.96461,8.6079,1,4
593,2.97328,8.6183,1,4
594,2.98195,8.6243,1,4
595,2.99066,8.6364,1,4
596,2.99934,8.6506,1,4
597,3.01676,8.6588,1,4
598,3.02552,8.6752,1,4
599,3.03426,8.6877,1,4
600,3.04303,8.6997,1,4
601,3.05181,8.7157,1,4
602,3.06063,8.7329,1,4
603,3.06944,8.7467,1,4
604,3.07826,8.7627,1,4
605,3.08714,8.7796,1,4
606,3.09599,8.7934,1,4
607,3.10484,8.8081,1,4
608,3.11371,8.8193,1,4
609,3.12261,8.834,1,4
610,3.1315,8.847,1,4
611,3.1404,8.8595,1,4
612,3.1493,8.8673,1,4
613,3.15822,8.8781,1,4
614,3.16719,8.8923,1,4
615,3.17613,8.8992,1,4
616,3.18507,8.9078,1,4
617,3.19403,8.9186,1,4
618,3.203,8.929,1,4
619,3.21196,8.9359,1,4
620,3.22095,8.9454,1,4
621,3.23,8.96,1,4
622,3.239,8.9708,1,4
623,3.24805,8.9833,1,4
624,3.25711,8.9928,1,4
625,3.26619,9.0066,1,4
626,3.27527,9.02,1,4
627,3.28435,9.0325,1,4
628,3.29345,9.045,1,4
629,3.30257,9.0609,1,4
630,3.31168,9.0734,1,4
631,3.32081,9.0812,1,4
632,3.32997,9.0967,1,4
633,3.33911,9.1066,1,4
634,3.34831,9.1196,1,4
635,3.35749,9.1299,1,4
636,3.3667,9.1428,1,4
637,3.37595,9.1592,1,4
638,3.38518,9.1726,1,4
639,3.39444,9.1865,1,4
640,3.4037,9.2012,1,4
641,3.41296,9.2146,1,4
642,3.42227,9.2297,1,4
643,3.43155,9.2439,1,4
644,3.44091,9.2607,1,4
645,3.45023,9.2732,1,4
646,3.46892,9.2858,1,4
647,3.47826,9.2949,1,4
648,3.48764,9.31,1,4
649,3.49698,9.3177,1,4
650,3.50635,9.3289,1,4
651,3.51574,9.3414,1,4
652,3.52512,9.3488,1,4
653,3.53452,9.3601,1,4
654,3.54395,9.3666,1,4
655,3.5534,9.3804,1,4
656,3.56282,9.3898,1,4
657,3.57228,9.4023,1,4
658,3.58173,9.4087,1,4
659,3.59123,9.4251,1,4
660,3.60071,9.4359,1,4
661,3.61021,9.4471,1,4
662,3.61973,9.4604,1,4
663,3.6293,9.4776,1,4
664,3.63883,9.4884,1,4
665,3.64842,9.5022,1,4
666,3.65802,9.5199,1,4
667,3.66761,9.5324,1,4
668,3.67721,9.5475,1,4
669,3.6868,9.5566,1,4
670,3.69641,9.5704,1,4
671,3.70605,9.5838,1,4
672,3.71566,9.5933,1,4
673,3.72534,9.6041,1,4
674,3.73497,9.614,1,4
675,3.74465,9.6235,1,4
676,3.7543,9.6287,1,4
677,3.76398,9.6369,1,4
678,3.77368,9.6473,1,4
679,3.78336,9.6594,1,4
680,3.79308,9.6689,1,4
681,3.80281,9.6784,1,4
682,3.81256,9.6927,1,4
683,3.82234,9.7035,1,4
684,3.83212,9.7173,1,4
685,3.85169,9.729,1,4
686,3.86151,9.7458,1,4
687,3.87135,9.7622,1,4
688,3.88118,9.7751,1,4
689,3.89101,9.7867,1,4
690,3.90088,9.8026,1,4
691,3.91076,9.8177,1,4
692,3.92065,9.8315,1,4
693,3.93055,9.8431,1,4
694,3.94049,9.8599,1,4
695,3.95043,9.8737,1,4
696,3.96043,9.8914,1,4
697,3.97031,9.8957,1,4
698,3.98029,9.9108,1,4
699,3.99027,9.9263,1,4
700,4.00031,9.9427,1,4
701,4.01033,9.9573,1,4
702,4.02037,9.9719,1,4
703,4.0304,9.9844,1,4
704,4.04046,9.9961,1,4
705,4.05049,10.006,1,4
706,4.06054,10.0116,1,4
707,4.0706,10.0288,1,4
708,4.08068,10.0388,1,4
709,4.09074,10.047,1,4
710,4.10083,10.0526,1,4
711,4.11092,10.0587,1,4
712,4.12105,10.0682,1,4
713,4.13118,10.0777,1,4
714,4.14133,10.0872,1,4
715,4.15149,10.1002,1,4
716,4.16164,10.1102,1,4
717,4.17182,10.1227,1,4
718,4.18199,10.1313,1,4
719,4.19222,10.1477,1,4
720,4.20244,10.1607,1,4
721,4.21269,10.1771,1,4
722,4.22295,10.1901,1,4
723,4.23323,10.2057,1,4
724,4.24353,10.2203,1,4
725,4.25381,10.2319,1,4
726,4.26409,10.2444,1,4
727,4.27438,10.2561,1,4
728,4.28471,10.272,1,4
729,4.29503,10.2807,1,4
730,4.30536,10.2923,1,4
731,4.31569,10.2996,1,4
732,4.32603,10.3073,1,4
733,4.3364,10.3168,1,4
734,4.34675,10.3224,1,4
735,4.35713,10.3345,1,4
736,4.37795,10.3487,1,4
737,4.38841,10.3647,1,4
738,4.39885,10.3764,1,4
739,4.40929,10.3893,1,4
740,4.41975,10.4005,1,4
741,4.4302,10.4135,1,4
742,4.44067,10.4269,1,4
743,4.45116,10.4385,1,4
744,4.46168,10.4554,1,4
745,4.47219,10.4657,1,4
746,4.4827,10.4752,1,4
747,4.49322,10.4816,1,4
748,4.50377,10.492,1,4
749,4.51425,10.4954,1,4
750,4.52479,10.5045,1,4
751,4.53529,10.5096,1,4
752,4.5458,10.5131,1,4
753,4.55631,10.5148,1,4
754,4.56681,10.5126,1,4
755,4.57732,10.5126,1,4
756,4.5878,10.5096,1,4
757,4.59825,10.5027,1,4
758,4.6087,10.4927,1,4
759,4.61915,10.4902,1,4
760,4.62955,10.476,1,4
761,4.63999,10.4696,1,4
762,4.65039,10.4588,1,4
763,4.6608,10.4493,1,4
764,4.67123,10.4415,1,4
765,4.68163,10.4312,1,4
766,4.69204,10.4238,1,4
767,4.70244,10.4191,1,4
768,4.71282,10.4127,1,4
769,4.72323,10.4079,1,4
770,4.73362,10.4074,1,4
771,4.74402,10.4031,1,4
772,4.75443,10.4039,1,4
773,4.76484,10.4035,1,4
774,4.77525,10.4027,1,4
775,4.78569,10.4061,1,4
776,4.7961,10.4057,1,4
777,4.80653,10.4091,1,4
778,4.81693,10.4104,1,4
779,4.82736,10.4126,1,4
780,4.83778,10.4156,1,4
781,4.8482,10.4181,1,4
782,4.85866,10.4229,1,4
783,4.8691,10.4264,1,4
784,4.88999,10.4303,1,4
785,4.90046,10.4338,1,4
786,4.91093,10.4399,1,4
787,4.92141,10.4451,1,4
788,4.93192,10.4563,1,4
789,4.94244,10.4653,1,4
790,4.95302,10.4804,1,4
791,4.96357,10.4934,1,4
792,4.97413,10.5033,1,4
793,4.98467,10.5136,1,4
794,4.99524,10.5256,1,4
795,5.00583,10.5368,1,4
796,5.01645,10.5527,1,4
797,5.02707,10.5652,1,4
798,5.0377,10.5777,1,4
799,5.04835,10.5911,1,4
800,5.05903,10.6015,1,4
801,5.06974,10.6166,1,4
802,5.08039,10.6265,1,4
803,5.09114,10.6468,1,4
804,5.10185,10.6606,1,4
805,5.1126,10.6774,1,4
806,5.12336,10.6908,1,4
807,5.13413,10.7068,1,4
808,5.14494,10.724,1,4
809,5.15575,10.7391,1,4
810,5.16655,10.7516,1,4
811,5.17733,10.7589,1,4
812,5.18815,10.7762,1,4
813,5.19896,10.7818,1,4
814,5.20979,10.7935,1,4
815,5.2206,10.7991,1,4
816,5.23144,10.8082,1,4
817,5.24226,10.8129,1,4
818,5.25317,10.8224,1,4
819,5.26403,10.8289,1,4
820,5.27492,10.8375,1,4
821,5.28582,10.8518,1,4
822,5.30767,10.8617,1,4
823,5.31863,10.8772,1,4
824,5.32961,10.8927,1,4
825,5.34062,10.913,1,4
826,5.35165,10.9311,1,4
827,5.36266,10.9493,1,4
828,5.37368,10.9614,1,4
829,5.3847,10.9765,1,4
830,5.39575,10.9925,1,4
831,5.40678,11.0041,1,4
832,5.41784,11.0171,1,4
833,5.4289,11.0271,1,4
834,5.43998,11.037,1,4
835,5.45105,11.0426,1,4
836,5.46212,11.0465,1,4
837,5.47321,11.0551,1,4
838,5.48431,11.0633,1,4
839,5.49543,11.0732,1,4
840,5.50657,11.0818,1,4
841,5.51775,11.0965,1,4
842,5.52893,11.1085,1,4
843,5.54009,11.1188,1,4
844,5.55127,11.1283,1,4
845,5.56245,11.1404,1,4
846,5.57364,11.1516,1,4
847,5.58484,11.1632,1,4
848,5.59608,11.1766,1,4
849,5.60736,11.1926,1,4
850,5.6186,11.203,1,4
851,5.62987,11.2125,1,4
852,5.64118,11.2255,1,4
853,5.6525,11.241,1,4
854,5.66381,11.2544,1,4
855,5.67514,11.2691,1,4
856,5.68651,11.2876,1,4
857,5.6979,11.3057,1,4
858,5.7093,11.3221,1,4
859,5.72072,11.3363,1,4
860,5.73211,11.3514,1,4
861,5.7435,11.363,1,4
862,5.75491,11.3725,1,4
