cnt,pos,speed,Dir,Force,
1,0,1.1868,-1,4
2,0.00112009,1.1713,-1,4
3,0.00220013,1.1571,-1,4
4,0.00327992,1.1416,-1,4
5,0.00432992,1.126,-1,4
6,0.00537992,1.1131,-1,4
7,0.00640011,1.0963,-1,4
8,0.00740004,1.0812,-1,4
9,0.00837994,1.0622,-1,4
10,0.00936007,1.0467,-1,4
11,0.0103099,1.0303,-1,4
12,0.01125,1.0135,-1,4
13,0.0121701,0.9971,-1,4
14,0.0130901,0.9811,-1,4
15,0.0139701,0.9643,-1,4
16,0.0148301,0.9453,-1,4
17,0.0157001,0.9302,-1,4
18,0.01653,0.9134,-1,4
19,0.01737,0.8992,-1,4
20,0.0181701,0.8806,-1,4
21,0.01896,0.8655,-1,4
22,0.0197601,0.8504,-1,4
23,0.0204899,0.8323,-1,4
24,0.02123,0.8142,-1,4
25,0.02196,0.7995,-1,4
26,0.02268,0.7848,-1,4
27,0.02337,0.7671,-1,4
28,0.02404,0.7507,-1,4
29,0.0246999,0.7334,-1,4
30,0.0253501,0.7183,-1,4
31,0.02598,0.7019,-1,4
32,0.0265901,0.6838,-1,4
33,0.0272,0.6704,-1,4
34,0.0277801,0.6548,-1,4
35,0.0283501,0.6389,-1,4
36,0.0288901,0.6212,-1,4
37,0.0294201,0.6053,-1,4
38,0.0299499,0.5906,-1,4
39,0.0304301,0.5725,-1,4
40,0.03093,0.5578,-1,4
41,0.03139,0.5405,-1,4
42,0.0318401,0.5245,-1,4
43,0.03228,0.5077,-1,4
44,0.0327001,0.4922,-1,4
45,0.0331099,0.4758,-1,4
46,0.03351,0.4612,-1,4
47,0.03388,0.4452,-1,4
48,0.03423,0.4284,-1,4
49,0.03457,0.4138,-1,4
50,0.0348899,0.3966,-1,4
51,0.0352101,0.382,-1,4
52,0.0355201,0.3682,-1,4
53,0.03581,0.3535,-1,4
54,0.0360701,0.3371,-1,4
55,0.03632,0.3211,-1,4
56,0.0365601,0.3051,-1,4
57,0.0367801,0.2909,-1,4
58,0.0369899,0.2762,-1,4
59,0.03719,0.2619,-1,4
60,0.03737,0.2472,-1,4
61,0.0375299,0.2321,-1,4
62,0.0376701,0.2153,-1,4
63,0.0378201,0.2011,-1,4
64,0.03794,0.1873,-1,4
65,0.0380499,0.1727,-1,4
66,0.0381401,0.1585,-1,4
67,0.0382099,0.1425,-1,4
68,0.03827,0.1278,-1,4
69,0.0383201,0.1136,-1,4
70,0.0383601,0.0994,-1,4
71,0.0383799,0.0851,-1,4
72,0.0383799,0.0708,-1,4
73,0.0383799,0.0561,-1,4
74,0.0383601,0.0414,-1,4
75,0.0383301,0.028,-1,4
76,0.03829,0.015,-1,4
77,0.0382299,0,-1,4
78,0.0381701,-0.0099,-1,4
79,0.03809,-0.0229,-1,4
80,0.0380101,-0.0354,-1,4
81,0.03791,-0.0466,-1,4
82,0.0378001,-0.0578,-1,4
83,0.0376701,-0.0712,-1,4
84,0.03756,-0.0802,-1,4
85,0.03741,-0.0914,-1,4
86,0.0372801,-0.1013,-1,4
87,0.0371401,-0.1091,-1,4
88,0.0369799,-0.1191,-1,4
89,0.0368099,-0.1281,-1,4
90,0.0366499,-0.1359,-1,4
91,0.0364599,-0.145,-1,4
92,0.0362699,-0.1536,-1,4
93,0.0360801,-0.1592,-1,4
94,0.0358601,-0.1696,-1,4
95,0.03565,-0.1765,-1,4
96,0.0353999,-0.1882,-1,4
97,0.0351601,-0.1981,-1,4
98,0.03492,-0.2063,-1,4
99,0.0346701,-0.2141,-1,4
100,0.03441,-0.2236,-1,4
101,0.0341401,-0.2317,-1,4
102,0.03386,-0.2403,-1,4
103,0.0335901,-0.2489,-1,4
104,0.0332999,-0.2558,-1,4
105,0.03299,-0.2658,-1,4
106,0.03269,-0.2701,-1,4
107,0.0323801,-0.2783,-1,4
108,0.0320599,-0.286,-1,4
109,0.03175,-0.2916,-1,4
110,0.03143,-0.2981,-1,4
111,0.03111,-0.3038,-1,4
112,0.0307901,-0.3073,-1,4
113,0.0304501,-0.3142,-1,4
114,0.0301299,-0.3172,-1,4
115,0.02981,-0.3185,-1,4
116,0.02947,-0.3228,-1,4
117,0.02915,-0.3228,-1,4
118,0.0288401,-0.3215,-1,4
119,0.0285301,-0.3224,-1,4
120,0.0282199,-0.3215,-1,4
121,0.0279,-0.3206,-1,4
122,0.02759,-0.3202,-1,4
123,0.0272901,-0.3155,-1,4
124,0.027,-0.3138,-1,4
125,0.02669,-0.312,-1,4
126,0.0264001,-0.3068,-1,4
127,0.0261099,-0.3034,-1,4
128,0.0258501,-0.2991,-1,4
129,0.0255799,-0.2952,-1,4
130,0.02531,-0.2909,-1,4
131,0.0250499,-0.2853,-1,4
132,0.0248001,-0.2788,-1,4
133,0.02457,-0.2727,-1,4
134,0.0243299,-0.2666,-1,4
135,0.0241001,-0.2593,-1,4
136,0.02389,-0.2511,-1,4
137,0.02369,-0.2429,-1,4
138,0.02349,-0.236,-1,4
139,0.0232999,-0.2278,-1,4
140,0.0231299,-0.2183,-1,4
141,0.02297,-0.2084,-1,4
142,0.02281,-0.1998,-1,4
143,0.02266,-0.1903,-1,4
144,0.0225301,-0.18,-1,4
145,0.0223999,-0.1692,-1,4
146,0.0223,-0.1593,-1,4
147,0.0221901,-0.1498,-1,4
148,0.02211,-0.1382,-1,4
149,0.0220401,-0.1265,-1,4
150,0.02197,-0.1153,-1,4
151,0.02192,-0.1049,-1,4
152,0.0218799,-0.0928,-1,4
153,0.0218601,-0.0808,-1,4
154,0.0218401,-0.0691,-1,4
155,0.0218401,-0.057,-1,4
156,0.0218501,-0.0449,-1,4
157,0.0218701,-0.0319,-1,4
158,0.0218999,-0.0215,-1,4
159,0.02194,-0.0095,-1,4
160,0.0219901,0,-1,4
161,0.0220499,0.0129,-1,4
162,0.02211,0.0233,-1,4
163,0.0221901,0.0333,-1,4
164,0.02227,0.0432,-1,4
165,0.0223701,0.0531,-1,4
166,0.02246,0.0617,-1,4
167,0.0225799,0.0707,-1,4
168,0.0227001,0.0806,-1,4
169,0.02283,0.0884,-1,4
170,0.0229599,0.0975,-1,4
171,0.0231099,0.1062,-1,4
172,0.0232601,0.1148,-1,4
173,0.0234301,0.1238,-1,4
174,0.0236001,0.1324,-1,4
175,0.0237701,0.1406,-1,4
176,0.0239601,0.1497,-1,4
177,0.0241699,0.1592,-1,4
178,0.02438,0.1674,-1,4
179,0.02459,0.1765,-1,4
180,0.0248201,0.186,-1,4
181,0.0250499,0.1946,-1,4
182,0.0253,0.2037,-1,4
183,0.0255599,0.2136,-1,4
184,0.02582,0.2227,-1,4
185,0.0260899,0.2322,-1,4
186,0.02637,0.2412,-1,4
187,0.02666,0.249,-1,4
188,0.0269799,0.2602,-1,4
189,0.0272801,0.2688,-1,4
190,0.02759,0.2774,-1,4
191,0.02793,0.2878,-1,4
192,0.02827,0.2977,-1,4
193,0.02861,0.3051,-1,4
194,0.02896,0.3137,-1,4
195,0.02931,0.3219,-1,4
196,0.0297,0.3323,-1,4
197,0.0300701,0.3413,-1,4
198,0.0304601,0.3482,-1,4
199,0.03087,0.359,-1,4
200,0.03127,0.3676,-1,4
201,0.0316801,0.3753,-1,4
202,0.0321,0.383,-1,4
203,0.0325501,0.3933,-1,4
204,0.03299,0.4032,-1,4
205,0.0334599,0.4144,-1,4
206,0.03392,0.4226,-1,4
207,0.0344,0.4326,-1,4
208,0.0348699,0.4413,-1,4
209,0.0353601,0.4495,-1,4
210,0.0359001,0.4625,-1,4
211,0.0364101,0.4729,-1,4
212,0.0369301,0.4829,-1,4
213,0.0374601,0.4911,-1,4
214,0.0380101,0.5019,-1,4
215,0.0385599,0.5101,-1,4
216,0.03913,0.5204,-1,4
217,0.03969,0.5294,-1,4
218,0.0402901,0.5414,-1,4
219,0.04088,0.5517,-1,4
220,0.0414701,0.5577,-1,4
221,0.0420899,0.5672,-1,4
222,0.0427201,0.5788,-1,4
223,0.04336,0.5901,-1,4
224,0.0439999,0.5988,-1,4
225,0.0446801,0.6117,-1,4
226,0.04533,0.6204,-1,4
227,0.046,0.6308,-1,4
228,0.04671,0.6421,-1,4
229,0.04739,0.6508,-1,4
230,0.0481,0.6633,-1,4
231,0.04884,0.6753,-1,4
232,0.0495601,0.6844,-1,4
233,0.0502901,0.693,-1,4
234,0.0510499,0.7055,-1,4
235,0.0518,0.7124,-1,4
236,0.0525701,0.7245,-1,4
237,0.05334,0.734,-1,4
238,0.0541101,0.74,-1,4
239,0.05492,0.7533,-1,4
240,0.0557301,0.7624,-1,4
241,0.05656,0.7719,-1,4
242,0.05739,0.7822,-1,4
243,0.0582399,0.7947,-1,4
244,0.0590901,0.8037,-1,4
245,0.0599401,0.8145,-1,4
246,0.0608301,0.8252,-1,4
247,0.0617201,0.8377,-1,4
248,0.0626199,0.8511,-1,4
249,0.06352,0.8593,-1,4
250,0.06446,0.8731,-1,4
251,0.0653701,0.8813,-1,4
252,0.0663199,0.8934,-1,4
253,0.06725,0.9016,-1,4
254,0.0682299,0.9141,-1,4
255,0.06919,0.9249,-1,4
256,0.07019,0.9362,-1,4
257,0.0711801,0.9465,-1,4
258,0.0722001,0.9581,-1,4
259,0.07321,0.9694,-1,4
260,0.07425,0.9793,-1,4
261,0.07531,0.9936,-1,4
262,0.07636,1.004,-1,4
263,0.07744,1.0187,-1,4
264,0.07851,1.0278,-1,4
265,0.0796101,1.0416,-1,4
266,0.0806999,1.0515,-1,4
267,0.08183,1.0645,-1,4
268,0.0829301,1.0731,-1,4
269,0.08408,1.0873,-1,4
270,0.0852101,1.0959,-1,4
271,0.08638,1.1075,-1,4
272,0.0875399,1.1183,-1,4
273,0.0887301,1.1295,-1,4
274,0.0899301,1.142,-1,4
275,0.09112,1.1515,-1,4
276,0.09235,1.1649,-1,4
277,0.09357,1.1744,-1,4
278,0.09482,1.1895,-1,4
279,0.0960701,1.199,-1,4
280,0.0973401,1.2124,-1,4
281,0.0986099,1.2232,-1,4
282,0.09991,1.2365,-1,4
283,0.10122,1.249,-1,4
284,0.10253,1.2602,-1,4
285,0.10386,1.2736,-1,4
286,0.10521,1.2852,-1,4
287,0.10653,1.2955,-1,4
288,0.10789,1.3068,-1,4
289,0.10924,1.3167,-1,4
290,0.11063,1.3297,-1,4
291,0.11203,1.3414,-1,4
292,0.1134,1.3496,-1,4
293,0.11481,1.3591,-1,4
294,0.11622,1.369,-1,4
295,0.11762,1.3763,-1,4
296,0.11905,1.3849,-1,4
297,0.1205,1.397,-1,4
298,0.12194,1.4043,-1,4
299,0.1234,1.4164,-1,4
300,0.12488,1.425,-1,4
301,0.12637,1.434,-1,4
302,0.12784,1.4439,-1,4
303,0.12934,1.4521,-1,4
304,0.13085,1.4625,-1,4
305,0.13234,1.472,-1,4
306,0.13384,1.4785,-1,4
307,0.13535,1.4854,-1,4
308,0.13688,1.4945,-1,4
309,0.13842,1.5018,-1,4
310,0.13997,1.5087,-1,4
311,0.14152,1.5152,-1,4
312,0.14308,1.5239,-1,4
313,0.14465,1.5316,-1,4
314,0.14622,1.5376,-1,4
315,0.1478,1.5458,-1,4
316,0.14937,1.5531,-1,4
317,0.15097,1.5617,-1,4
318,0.15257,1.569,-1,4
319,0.15418,1.5759,-1,4
320,0.15741,1.5824,-1,4
321,0.15905,1.591,-1,4
322,0.16068,1.5979,-1,4
323,0.16232,1.6048,-1,4
324,0.16397,1.6126,-1,4
325,0.16564,1.6217,-1,4
326,0.16729,1.6304,-1,4
327,0.16896,1.6373,-1,4
328,0.17065,1.6459,-1,4
329,0.17233,1.6528,-1,4
330,0.17403,1.6618,-1,4
331,0.17572,1.6674,-1,4
332,0.17744,1.6756,-1,4
333,0.17913,1.6813,-1,4
334,0.18084,1.6878,-1,4
335,0.18257,1.6934,-1,4
336,0.1843,1.7007,-1,4
337,0.18603,1.7068,-1,4
338,0.18777,1.712,-1,4
339,0.18952,1.7198,-1,4
340,0.19128,1.7254,-1,4
341,0.19305,1.7332,-1,4
342,0.19483,1.7397,-1,4
343,0.19662,1.7491,-1,4
344,0.19841,1.7564,-1,4
345,0.2002,1.7628,-1,4
346,0.20198,1.7684,-1,4
347,0.20378,1.7757,-1,4
348,0.2056,1.7835,-1,4
349,0.20742,1.79,-1,4
350,0.20926,1.7978,-1,4
351,0.2111,1.8047,-1,4
352,0.21296,1.8124,-1,4
353,0.21479,1.8172,-1,4
354,0.21666,1.825,-1,4
355,0.21853,1.8332,-1,4
356,0.22041,1.8427,-1,4
357,0.2223,1.8522,-1,4
358,0.22419,1.8591,-1,4
359,0.22609,1.8668,-1,4
360,0.22798,1.8715,-1,4
361,0.22989,1.8788,-1,4
362,0.2318,1.8849,-1,4
363,0.23374,1.8944,-1,4
364,0.23566,1.9004,-1,4
365,0.2376,1.9069,-1,4
366,0.23955,1.9138,-1,4
367,0.2415,1.9198,-1,4
368,0.24348,1.9288,-1,4
369,0.24544,1.9344,-1,4
370,0.24742,1.9439,-1,4
371,0.24939,1.9495,-1,4
372,0.25137,1.9559,-1,4
373,0.25335,1.9615,-1,4
374,0.25534,1.9676,-1,4
375,0.25733,1.9728,-1,4
376,0.25934,1.9788,-1,4
377,0.26134,1.984,-1,4
378,0.26336,1.987,-1,4
379,0.26537,1.9935,-1,4
380,0.2674,1.9983,-1,4
381,0.26943,2.0048,-1,4
382,0.27146,2.0091,-1,4
383,0.2735,2.0147,-1,4
384,0.27554,2.0198,-1,4
385,0.27758,2.0254,-1,4
386,0.27964,2.0298,-1,4
387,0.28171,2.0363,-1,4
388,0.28586,2.0424,-1,4
389,0.28794,2.0485,-1,4
390,0.29002,2.0537,-1,4
391,0.29208,2.0567,-1,4
392,0.29418,2.0636,-1,4
393,0.29628,2.0696,-1,4
394,0.29838,2.0757,-1,4
395,0.30048,2.0813,-1,4
396,0.30259,2.0869,-1,4
397,0.30467,2.0882,-1,4
398,0.30679,2.0925,-1,4
399,0.30893,2.0989,-1,4
400,0.31108,2.1058,-1,4
401,0.31321,2.1123,-1,4
402,0.31535,2.1171,-1,4
403,0.31748,2.1202,-1,4
404,0.31964,2.1266,-1,4
405,0.3218,2.1318,-1,4
406,0.32397,2.1378,-1,4
407,0.32614,2.1464,-1,4
408,0.3283,2.1511,-1,4
409,0.33048,2.1546,-1,4
410,0.33267,2.1593,-1,4
411,0.33486,2.1658,-1,4
412,0.33927,2.174,-1,4
413,0.34147,2.1809,-1,4
414,0.34368,2.1857,-1,4
415,0.3459,2.1922,-1,4
416,0.34812,2.1974,-1,4
417,0.35034,2.2017,-1,4
418,0.35257,2.2091,-1,4
419,0.35481,2.2151,-1,4
420,0.35705,2.2194,-1,4
421,0.3593,2.225,-1,4
422,0.36154,2.2271,-1,4
423,0.36381,2.2331,-1,4
424,0.36605,2.237,-1,4
425,0.36833,2.2426,-1,4
426,0.37058,2.2456,-1,4
427,0.37284,2.2508,-1,4
428,0.37512,2.2551,-1,4
429,0.37741,2.2599,-1,4
430,0.37967,2.2625,-1,4
431,0.38426,2.2677,-1,4
432,0.38657,2.2738,-1,4
433,0.38888,2.2781,-1,4
434,0.39118,2.2833,-1,4
435,0.39348,2.2867,-1,4
436,0.3958,2.2932,-1,4
437,0.39813,2.2992,-1,4
438,0.40046,2.3044,-1,4
439,0.40277,2.3074,-1,4
440,0.40513,2.3169,-1,4
441,0.40748,2.3216,-1,4
442,0.40984,2.3272,-1,4
443,0.41219,2.3311,-1,4
444,0.41455,2.338,-1,4
445,0.41693,2.3449,-1,4
446,0.41929,2.3492,-1,4
447,0.42166,2.354,-1,4
448,0.42407,2.3613,-1,4
449,0.42648,2.3708,-1,4
450,0.42889,2.3755,-1,4
451,0.43129,2.3807,-1,4
452,0.43371,2.3872,-1,4
453,0.43614,2.3958,-1,4
454,0.43858,2.4022,-1,4
455,0.44103,2.4096,-1,4
456,0.44592,2.4195,-1,4
457,0.44838,2.4285,-1,4
458,0.45087,2.4371,-1,4
459,0.45335,2.4431,-1,4
460,0.45582,2.45,-1,4
461,0.4583,2.4577,-1,4
462,0.46079,2.4646,-1,4
463,0.46329,2.4711,-1,4
464,0.46578,2.4767,-1,4
465,0.46828,2.4814,-1,4
466,0.47078,2.4857,-1,4
467,0.47332,2.4931,-1,4
468,0.47582,2.4949,-1,4
469,0.47835,2.5005,-1,4
470,0.4809,2.5074,-1,4
471,0.48344,2.5139,-1,4
472,0.48595,2.516,-1,4
473,0.4885,2.5207,-1,4
474,0.49106,2.5276,-1,4
475,0.49361,2.5328,-1,4
476,0.49616,2.5384,-1,4
477,0.49873,2.541,-1,4
478,0.50129,2.5461,-1,4
479,0.50644,2.5504,-1,4
480,0.50903,2.5548,-1,4
481,0.5116,2.5583,-1,4
482,0.51418,2.5648,-1,4
483,0.51678,2.57,-1,4
484,0.51936,2.5726,-1,4
485,0.52197,2.5786,-1,4
486,0.5246,2.5855,-1,4
487,0.52722,2.5911,-1,4
488,0.52984,2.5972,-1,4
489,0.53247,2.6028,-1,4
490,0.53508,2.6053,-1,4
491,0.53771,2.6109,-1,4
492,0.54034,2.6161,-1,4
493,0.543,2.6222,-1,4
494,0.54562,2.6261,-1,4
495,0.54828,2.6304,-1,4
496,0.55095,2.6352,-1,4
497,0.55361,2.6386,-1,4
498,0.55628,2.6438,-1,4
499,0.55895,2.6482,-1,4
500,0.5616,2.6521,-1,4
501,0.56429,2.6577,-1,4
502,0.56698,2.6633,-1,4
503,0.57236,2.668,-1,4
504,0.57504,2.6736,-1,4
505,0.57774,2.6779,-1,4
506,0.58043,2.6792,-1,4
507,0.58313,2.6844,-1,4
508,0.58583,2.6874,-1,4
509,0.58853,2.6899,-1,4
510,0.59125,2.6964,-1,4
511,0.59398,2.7007,-1,4
512,0.59669,2.7028,-1,4
513,0.59941,2.7041,-1,4
514,0.60213,2.7084,-1,4
515,0.60484,2.7102,-1,4
516,0.60756,2.7136,-1,4
517,0.6103,2.7162,-1,4
518,0.61303,2.7192,-1,4
519,0.61577,2.7244,-1,4
520,0.61851,2.7266,-1,4
521,0.62124,2.7257,-1,4
522,0.624,2.7309,-1,4
523,0.62951,2.7348,-1,4
524,0.63224,2.7361,-1,4
525,0.635,2.74,-1,4
526,0.63776,2.7448,-1,4
527,0.64053,2.7482,-1,4
528,0.64331,2.7534,-1,4
529,0.64608,2.7556,-1,4
530,0.64883,2.7564,-1,4
531,0.65162,2.7633,-1,4
532,0.65439,2.7637,-1,4
533,0.65718,2.7667,-1,4
534,0.65993,2.7689,-1,4
535,0.66272,2.7723,-1,4
536,0.66551,2.7744,-1,4
537,0.66833,2.7796,-1,4
538,0.67111,2.7796,-1,4
539,0.67391,2.7822,-1,4
540,0.6767,2.7865,-1,4
541,0.67949,2.787,-1,4
542,0.6823,2.7909,-1,4
543,0.68509,2.7913,-1,4
544,0.68791,2.7956,-1,4
545,0.69354,2.7991,-1,4
546,0.69636,2.8022,-1,4
547,0.69915,2.7996,-1,4
548,0.70197,2.8035,-1,4
549,0.70477,2.8043,-1,4
550,0.70763,2.8104,-1,4
551,0.71044,2.8121,-1,4
552,0.71326,2.8139,-1,4
553,0.71609,2.8178,-1,4
554,0.71892,2.8208,-1,4
555,0.72178,2.8246,-1,4
556,0.72461,2.8254,-1,4
557,0.72743,2.8285,-1,4
558,0.73028,2.8306,-1,4
559,0.73314,2.8362,-1,4
560,0.73598,2.8357,-1,4
561,0.73885,2.8409,-1,4
562,0.74171,2.8443,-1,4
563,0.75028,2.8486,-1,4
564,0.756,2.8534,-1,4
565,0.75886,2.8539,-1,4
566,0.76173,2.8578,-1,4
567,0.76462,2.8642,-1,4
568,0.76748,2.8659,-1,4
569,0.77037,2.869,-1,4
570,0.77324,2.8716,-1,4
571,0.77614,2.8746,-1,4
572,0.77902,2.8776,-1,4
573,0.78191,2.8785,-1,4
574,0.7848,2.8802,-1,4
575,0.78773,2.8862,-1,4
576,0.7906,2.8871,-1,4
577,0.79349,2.8871,-1,4
578,0.7964,2.8923,-1,4
579,0.7993,2.8927,-1,4
580,0.80219,2.8949,-1,4
581,0.8051,2.8966,-1,4
582,0.80803,2.9009,-1,4
583,0.81094,2.9035,-1,4
584,0.81385,2.9044,-1,4
585,0.81676,2.9031,-1,4
586,0.81968,2.9078,-1,4
587,0.82258,2.9091,-1,4
588,0.82549,2.9091,-1,4
589,0.82841,2.9108,-1,4
590,0.83131,2.9121,-1,4
591,0.83425,2.9143,-1,4
592,0.83715,2.9118,-1,4
593,0.84007,2.9131,-1,4
594,0.84296,2.9118,-1,4
595,0.84589,2.9135,-1,4
596,0.84878,2.9101,-1,4
597,0.85172,2.914,-1,4
598,0.85464,2.9144,-1,4
599,0.86046,2.9136,-1,4
600,0.86338,2.9149,-1,4
601,0.86631,2.914,-1,4
602,0.86922,2.9152,-1,4
603,0.87214,2.9143,-1,4
604,0.87507,2.9181,-1,4
605,0.87801,2.9199,-1,4
606,0.88095,2.9242,-1,4
607,0.88388,2.9238,-1,4
608,0.88682,2.9264,-1,4
609,0.88976,2.9298,-1,4
610,0.89272,2.9337,-1,4
611,0.89566,2.9354,-1,4
612,0.89863,2.9402,-1,4
613,0.90157,2.9437,-1,4
614,0.90453,2.9481,-1,4
615,0.91048,2.9515,-1,4
616,0.91345,2.9549,-1,4
617,0.91642,2.9588,-1,4
618,0.9194,2.9619,-1,4
619,0.9224,2.9688,-1,4
620,0.9254,2.9722,-1,4
621,0.92841,2.9791,-1,4
622,0.93138,2.9804,-1,4
623,0.9344,2.9877,-1,4
624,0.93739,2.9894,-1,4
625,0.9404,2.992,-1,4
626,0.94342,2.9972,-1,4
627,0.94643,3.001,-1,4
628,0.94946,3.0061,-1,4
629,0.95551,3.0083,-1,4
630,0.95854,3.0118,-1,4
631,0.96156,3.0127,-1,4
632,0.96461,3.0196,-1,4
633,0.96763,3.02,-1,4
634,0.97068,3.026,-1,4
635,0.97373,3.0299,-1,4
636,0.97679,3.0342,-1,4
637,0.97984,3.0377,-1,4
638,0.98289,3.0403,-1,4
639,0.98594,3.0424,-1,4
640,0.989,3.0458,-1,4
641,0.99209,3.0523,-1,4
642,0.99515,3.0536,-1,4
643,0.99823,3.0597,-1,4
644,1.00131,3.0623,-1,4
645,1.00748,3.0657,-1,4
646,1.01057,3.0679,-1,4
647,1.01367,3.0735,-1,4
648,1.01677,3.0791,-1,4
649,1.01987,3.0839,-1,4
650,1.02298,3.0882,-1,4
651,1.02609,3.0912,-1,4
652,1.02919,3.0951,-1,4
653,1.03231,3.0985,-1,4
654,1.03539,3.0994,-1,4
655,1.03851,3.1033,-1,4
656,1.04476,3.1072,-1,4
657,1.04787,3.1081,-1,4
658,1.05098,3.1081,-1,4
659,1.0541,3.1102,-1,4
660,1.0572,3.1098,-1,4
661,1.06033,3.1115,-1,4
662,1.06341,3.1097,-1,4
663,1.06654,3.111,-1,4
664,1.06966,3.114,-1,4
665,1.07277,3.1136,-1,4
666,1.07588,3.1123,-1,4
667,1.07899,3.1123,-1,4
668,1.08518,3.1106,-1,4
669,1.08831,3.1111,-1,4
670,1.09142,3.1128,-1,4
671,1.09452,3.1094,-1,4
672,1.09763,3.112,-1,4
673,1.10382,3.1081,-1,4
674,1.10691,3.1059,-1,4
675,1.10691,3.1024,-1,4
676,1.11309,3.1006,-1,4
677,1.11309,3.0997,-1,4
678,1.11619,3.101,-1,4
679,1.11928,3.0975,-1,4
680,1.12237,3.0945,-1,4
681,1.12542,3.0902,-1,4
682,1.13157,3.0863,-1,4
683,1.13467,3.0863,-1,4
684,1.14078,3.082,-1,4
685,1.14383,3.0782,-1,4
686,1.1469,3.0765,-1,4
687,1.14994,3.0705,-1,4
688,1.15299,3.0645,-1,4
689,1.15603,3.0602,-1,4
690,1.15909,3.0572,-1,4
691,1.16212,3.055,-1,4
692,1.16514,3.0499,-1,4
693,1.16818,3.0443,-1,4
694,1.1742,3.0396,-1,4
695,1.17721,3.037,-1,4
696,1.18024,3.0323,-1,4
697,1.18324,3.0275,-1,4
698,1.18624,3.0236,-1,4
699,1.18924,3.0188,-1,4
700,1.19223,3.0123,-1,4
701,1.19525,3.0106,-1,4
702,1.1982,3.0045,-1,4
703,1.2012,3.0002,-1,4
704,1.20417,2.9972,-1,4
705,1.20716,2.9946,-1,4
706,1.21012,2.989,-1,4
707,1.21605,2.9847,-1,4
708,1.21901,2.9808,-1,4
709,1.22195,2.9744,-1,4
710,1.22488,2.9688,-1,4
711,1.22781,2.9601,-1,4
712,1.23076,2.9593,-1,4
713,1.23371,2.955,-1,4
714,1.23665,2.9515,-1,4
715,1.23956,2.9437,-1,4
716,1.24247,2.9376,-1,4
717,1.2454,2.9354,-1,4
718,1.24829,2.9276,-1,4
719,1.25408,2.9241,-1,4
720,1.25697,2.9198,-1,4
721,1.25988,2.9173,-1,4
722,1.26275,2.9104,-1,4
723,1.26562,2.9013,-1,4
724,1.26847,2.8927,-1,4
725,1.27134,2.8888,-1,4
726,1.27421,2.8845,-1,4
727,1.27707,2.8776,-1,4
728,1.27991,2.8729,-1,4
729,1.28276,2.8686,-1,4
730,1.2856,2.8626,-1,4
731,1.28843,2.8552,-1,4
732,1.29126,2.8509,-1,4
733,1.2969,2.8458,-1,4
734,1.29971,2.8419,-1,4
735,1.30252,2.8359,-1,4
736,1.30534,2.8303,-1,4
737,1.30814,2.8243,-1,4
738,1.31092,2.8187,-1,4
739,1.31372,2.8131,-1,4
740,1.31649,2.8066,-1,4
741,1.31926,2.8001,-1,4
742,1.32204,2.7949,-1,4
743,1.32479,2.7893,-1,4
744,1.32757,2.7863,-1,4
745,1.33031,2.7785,-1,4
746,1.33305,2.7712,-1,4
747,1.33853,2.7652,-1,4
748,1.34128,2.7617,-1,4
749,1.344,2.7539,-1,4
750,1.34671,2.7478,-1,4
751,1.34943,2.7435,-1,4
752,1.35215,2.7374,-1,4
753,1.35487,2.7335,-1,4
754,1.35757,2.7261,-1,4
755,1.36025,2.7205,-1,4
756,1.36295,2.7157,-1,4
757,1.36563,2.7101,-1,4
758,1.3683,2.7028,-1,4
759,1.371,2.6998,-1,4
760,1.37368,2.6977,-1,4
761,1.37635,2.6921,-1,4
762,1.38167,2.6857,-1,4
763,1.38431,2.6779,-1,4
764,1.38696,2.6719,-1,4
765,1.38961,2.6689,-1,4
766,1.39224,2.6624,-1,4
767,1.39486,2.6563,-1,4
768,1.3975,2.6524,-1,4
769,1.40011,2.6451,-1,4
770,1.40273,2.6377,-1,4
771,1.40535,2.633,-1,4
772,1.40794,2.6261,-1,4
773,1.41053,2.6222,-1,4
774,1.41314,2.6179,-1,4
775,1.41573,2.6119,-1,4
776,1.41831,2.6094,-1,4
777,1.42347,2.6025,-1,4
778,1.42604,2.596,-1,4
779,1.4286,2.5904,-1,4
780,1.43118,2.5866,-1,4
781,1.43373,2.5801,-1,4
782,1.43627,2.5753,-1,4
783,1.43881,2.5693,-1,4
784,1.44137,2.5645,-1,4
785,1.44392,2.5606,-1,4
786,1.44645,2.5537,-1,4
787,1.44897,2.5503,-1,4
788,1.45151,2.5477,-1,4
789,1.45404,2.5434,-1,4
790,1.45656,2.5369,-1,4
791,1.46159,2.5335,-1,4
792,1.46411,2.5309,-1,4
793,1.46662,2.5283,-1,4
794,1.46912,2.5223,-1,4
795,1.47162,2.5175,-1,4
796,1.47414,2.5162,-1,4
797,1.47664,2.514,-1,4
798,1.47913,2.5084,-1,4
799,1.48161,2.5045,-1,4
800,1.4841,2.5023,-1,4
801,1.48659,2.5001,-1,4
802,1.48909,2.498,-1,4
803,1.49158,2.4963,-1,4
804,1.49653,2.4928,-1,4
805,1.49901,2.4907,-1,4
806,1.50147,2.4846,-1,4
807,1.50394,2.4816,-1,4
808,1.50641,2.4795,-1,4
809,1.50887,2.4777,-1,4
810,1.51133,2.4751,-1,4
811,1.5138,2.4721,-1,4
812,1.51626,2.4686,-1,4
813,1.51871,2.4647,-1,4
814,1.52117,2.4639,-1,4
815,1.52361,2.46,-1,4
816,1.52604,2.4574,-1,4
817,1.5285,2.4561,-1,4
818,1.53094,2.4531,-1,4
819,1.53337,2.4497,-1,4
820,1.53581,2.448,-1,4
821,1.54071,2.445,-1,4
822,1.54315,2.4429,-1,4
823,1.5456,2.4429,-1,4
824,1.54803,2.4403,-1,4
825,1.55046,2.439,-1,4
826,1.5529,2.4399,-1,4
