cnt,pos,speed,Dir,Force,
1,3.22703,4.918,-1,4
2,3.23192,4.892,-1,4
3,3.24168,4.875,-1,4
4,3.24657,4.888,-1,4
5,3.25143,4.862,-1,4
6,3.25628,4.849,-1,4
7,3.26115,4.867,-1,4
8,3.26598,4.828,-1,4
9,3.27082,4.836,-1,4
10,3.28046,4.806,-1,4
11,3.28527,4.806,-1,4
12,3.29008,4.815,-1,4
13,3.29486,4.789,-1,4
14,3.29964,4.789,-1,4
15,3.30441,4.767,-1,4
16,3.30917,4.763,-1,4
17,3.31392,4.750,-1,4
18,3.31867,4.750,-1,4
19,3.32340,4.728,-1,4
20,3.32812,4.720,-1,4
21,3.33284,4.720,-1,4
22,3.34224,4.711,-1,4
23,3.34694,4.694,-1,4
24,3.35161,4.677,-1,4
25,3.35626,4.647,-1,4
26,3.36096,4.694,-1,4
27,3.36561,4.655,-1,4
28,3.37025,4.642,-1,4
29,3.37488,4.629,-1,4
30,3.37949,4.612,-1,4
31,3.38408,4.590,-1,4
32,3.38870,4.616,-1,4
33,3.39327,4.573,-1,4
34,3.39783,4.552,-1,4
35,3.40240,4.573,-1,4
36,3.40695,4.552,-1,4
37,3.41146,4.513,-1,4
38,3.41598,4.521,-1,4
39,3.42048,4.496,-1,4
40,3.42495,4.470,-1,4
41,3.42945,4.504,-1,4
42,3.43389,4.439,-1,4
43,3.43835,4.452,-1,4
44,3.44278,4.435,-1,4
45,3.44719,4.414,-1,4
46,3.45162,4.422,-1,4
47,3.45600,4.383,-1,4
48,3.46040,4.396,-1,4
49,3.46478,4.379,-1,4
50,3.46912,4.345,-1,4
51,3.47348,4.357,-1,4
52,3.47781,4.336,-1,4
53,3.48216,4.345,-1,4
54,3.49073,4.280,-1,4
55,3.49501,4.280,-1,4
56,3.49927,4.258,-1,4
57,3.50353,4.263,-1,4
58,3.50777,4.241,-1,4
59,3.51198,4.206,-1,4
60,3.51619,4.211,-1,4
61,3.52036,4.176,-1,4
62,3.52872,4.176,-1,4
63,3.53289,4.163,-1,4
64,3.53700,4.116,-1,4
65,3.54114,4.142,-1,4
66,3.54525,4.112,-1,4
67,3.54934,4.090,-1,4
68,3.55344,4.099,-1,4
69,3.55751,4.064,-1,4
70,3.56156,4.051,-1,4
71,3.56560,4.043,-1,4
72,3.56965,4.047,-1,4
73,3.57366,4.008,-1,4
74,3.57766,4.004,-1,4
75,3.58165,3.991,-1,4
76,3.58562,3.969,-1,4
77,3.58955,3.930,-1,4
78,3.59741,3.917,-1,4
79,3.60131,3.900,-1,4
80,3.60518,3.866,-1,4
81,3.60905,3.866,-1,4
82,3.61290,3.857,-1,4
83,3.61673,3.822,-1,4
84,3.62056,3.831,-1,4
85,3.62437,3.818,-1,4
86,3.62818,3.801,-1,4
87,3.63192,3.749,-1,4
88,3.63567,3.749,-1,4
89,3.63942,3.745,-1,4
90,3.64317,3.749,-1,4
91,3.64687,3.702,-1,4
92,3.65056,3.693,-1,4
93,3.65424,3.680,-1,4
94,3.65790,3.654,-1,4
95,3.66156,3.659,-1,4
96,3.66516,3.607,-1,4
97,3.66877,3.611,-1,4
98,3.67239,3.615,-1,4
99,3.67597,3.577,-1,4
100,3.67953,3.568,-1,4
101,3.68308,3.551,-1,4
102,3.68660,3.516,-1,4
103,3.69013,3.529,-1,4
104,3.69363,3.503,-1,4
105,3.69710,3.464,-1,4
106,3.70056,3.464,-1,4
107,3.70401,3.447,-1,4
108,3.70743,3.421,-1,4
109,3.71084,3.413,-1,4
110,3.71425,3.408,-1,4
111,3.71764,3.387,-1,4
112,3.72099,3.357,-1,4
113,3.72763,3.283,-1,4
114,3.73096,3.331,-1,4
115,3.73426,3.292,-1,4
116,3.73753,3.270,-1,4
117,3.74080,3.270,-1,4
118,3.74405,3.249,-1,4
119,3.74726,3.218,-1,4
120,3.75047,3.210,-1,4
121,3.75366,3.184,-1,4
122,3.76003,3.188,-1,4
123,3.76316,3.132,-1,4
124,3.76630,3.137,-1,4
125,3.76940,3.102,-1,4
126,3.77250,3.102,-1,4
127,3.77558,3.076,-1,4
128,3.77863,3.050,-1,4
129,3.78167,3.046,-1,4
130,3.78472,3.042,-1,4
131,3.78772,3.003,-1,4
132,3.79370,2.977,-1,4
133,3.79666,2.960,-1,4
134,3.79960,2.934,-1,4
135,3.80253,2.934,-1,4
136,3.80543,2.899,-1,4
137,3.80834,2.908,-1,4
138,3.81121,2.878,-1,4
139,3.81409,2.878,-1,4
140,3.81692,2.826,-1,4
141,3.81973,2.813,-1,4
142,3.82254,2.813,-1,4
143,3.82533,2.787,-1,4
144,3.82814,2.804,-1,4
145,3.83088,2.740,-1,4
146,3.83362,2.744,-1,4
147,3.83635,2.727,-1,4
148,3.83904,2.696,-1,4
149,3.84173,2.692,-1,4
150,3.84441,2.679,-1,4
151,3.84706,2.649,-1,4
152,3.84971,2.645,-1,4
153,3.85234,2.632,-1,4
154,3.85496,2.619,-1,4
155,3.85756,2.597,-1,4
156,3.86012,2.563,-1,4
157,3.86268,2.563,-1,4
158,3.86521,2.533,-1,4
159,3.86774,2.524,-1,4
160,3.87025,2.511,-1,4
161,3.87274,2.494,-1,4
162,3.87521,2.468,-1,4
163,3.87766,2.446,-1,4
164,3.88011,2.455,-1,4
165,3.88255,2.442,-1,4
166,3.88493,2.382,-1,4
167,3.88731,2.377,-1,4
168,3.88969,2.377,-1,4
169,3.89205,2.364,-1,4
170,3.89440,2.347,-1,4
171,3.89673,2.330,-1,4
172,3.89902,2.287,-1,4
173,3.90131,2.295,-1,4
174,3.90358,2.269,-1,4
175,3.90586,2.282,-1,4
176,3.90811,2.243,-1,4
177,3.91034,2.235,-1,4
178,3.91255,2.205,-1,4
179,3.91473,2.183,-1,4
180,3.91689,2.161,-1,4
181,3.91904,2.149,-1,4
182,3.92117,2.136,-1,4
183,3.92332,2.144,-1,4
184,3.92544,2.118,-1,4
185,3.92753,2.097,-1,4
186,3.92960,2.067,-1,4
187,3.93165,2.054,-1,4
188,3.93369,2.041,-1,4
189,3.93573,2.036,-1,4
190,3.93773,1.998,-1,4
191,3.93971,1.985,-1,4
192,3.94167,1.959,-1,4
193,3.94363,1.963,-1,4
194,3.94556,1.929,-1,4
195,3.94747,1.911,-1,4
196,3.94939,1.911,-1,4
197,3.95127,1.877,-1,4
198,3.95499,1.847,-1,4
199,3.95499,1.834,-1,4
200,3.95864,1.812,-1,4
201,3.96044,1.799,-1,4
202,3.96220,1.765,-1,4
203,3.96398,1.743,-1,4
204,3.96745,1.721,-1,4
205,3.96916,1.717,-1,4
206,3.97087,1.704,-1,4
207,3.97255,1.687,-1,4
208,3.97420,1.648,-1,4
209,3.97584,1.639,-1,4
210,3.97746,1.618,-1,4
211,3.98066,1.592,-1,4
212,3.98066,1.592,-1,4
213,3.98225,1.592,-1,4
214,3.98378,1.532,-1,4
215,3.98534,1.553,-1,4
216,3.98686,1.527,-1,4
217,3.98836,1.493,-1,4
218,3.98985,1.488,-1,4
219,3.99131,1.467,-1,4
220,3.99279,1.475,-1,4
221,3.99424,1.454,-1,4
222,3.99567,1.432,-1,4
223,3.99709,1.415,-1,4
224,3.99847,1.385,-1,4
225,3.99986,1.385,-1,4
226,4.00121,1.350,-1,4
227,4.00256,1.346,-1,4
228,4.00388,1.324,-1,4
229,4.00650,1.299,-1,4
230,4.00778,1.281,-1,4
231,4.00905,1.273,-1,4
232,4.01029,1.238,-1,4
233,4.01153,1.243,-1,4
234,4.01274,1.208,-1,4
235,4.01396,1.217,-1,4
236,4.01516,1.204,-1,4
237,4.01632,1.156,-1,4
238,4.01748,1.161,-1,4
239,4.01860,1.117,-1,4
240,4.01973,1.130,-1,4
241,4.02081,1.087,-1,4
242,4.02191,1.096,-1,4
243,4.02300,1.087,-1,4
244,4.02405,1.057,-1,4
245,4.02510,1.048,-1,4
246,4.02612,1.018,-1,4
247,4.02713,1.014,-1,4
248,4.02812,0.984,-1,4
249,4.02910,0.984,-1,4
250,4.03006,0.958,-1,4
251,4.03101,0.953,-1,4
252,4.03193,0.915,-1,4
253,4.03285,0.919,-1,4
254,4.03372,0.871,-1,4
255,4.03461,0.889,-1,4
256,4.03546,0.854,-1,4
257,4.03630,0.841,-1,4
258,4.03713,0.833,-1,4
259,4.03794,0.802,-1,4
260,4.03874,0.802,-1,4
261,4.03951,0.772,-1,4
262,4.04027,0.759,-1,4
263,4.04102,0.751,-1,4
264,4.04175,0.725,-1,4
265,4.04247,0.720,-1,4
266,4.04315,0.682,-1,4
267,4.04383,0.686,-1,4
268,4.04450,0.664,-1,4
269,4.04514,0.643,-1,4
270,4.04577,0.630,-1,4
271,4.04638,0.613,-1,4
272,4.04698,0.595,-1,4
273,4.04755,0.574,-1,4
274,4.04811,0.557,-1,4
275,4.04865,0.544,-1,4
276,4.04918,0.522,-1,4
277,4.04967,0.496,-1,4
278,4.05018,0.505,-1,4
279,4.05066,0.479,-1,4
280,4.05112,0.462,-1,4
281,4.05155,0.436,-1,4
282,4.05198,0.423,-1,4
283,4.05238,0.406,-1,4
284,4.05277,0.384,-1,4
285,4.05315,0.384,-1,4
286,4.05350,0.349,-1,4
287,4.05384,0.345,-1,4
288,4.05417,0.328,-1,4
289,4.05447,0.302,-1,4
290,4.05505,0.276,-1,4
291,4.05530,0.255,-1,4
292,4.05555,0.246,-1,4
293,4.05577,0.220,-1,4
294,4.05598,0.211,-1,4
295,4.05634,0.168,-1,4
296,4.05651,0.168,-1,4
297,4.05664,0.134,-1,4
298,4.05677,0.134,-1,4
299,4.05689,0.116,-1,4
300,4.05698,0.095,-1,4
301,4.05706,0.073,-1,4
302,4.05711,0.056,-1,4
303,4.05716,0.047,-1,4
304,4.05719,0.030,-1,4
305,4.05720,0.009,-1,4
306,4.05720,0.000,-1,4
307,4.05718,-0.022,-1,4
308,4.05714,-0.035,-1,4
309,4.05709,-0.056,-1,4
310,4.05702,-0.065,-1,4
311,4.05684,-0.091,-1,4
312,4.05684,-0.112,-1,4
313,4.05673,-0.142,-1,4
314,4.05659,-0.142,-1,4
315,4.05629,-0.160,-1,4
316,4.05612,-0.168,-1,4
317,4.05593,-0.186,-1,4
318,4.05573,-0.203,-1,4
319,4.05551,-0.216,-1,4
320,4.05528,-0.233,-1,4
321,4.05502,-0.259,-1,4
322,4.05476,-0.259,-1,4
323,4.05448,-0.280,-1,4
324,4.05419,-0.289,-1,4
325,4.05389,-0.306,-1,4
326,4.05356,-0.328,-1,4
327,4.05323,-0.332,-1,4
328,4.05288,-0.345,-1,4
329,4.05252,-0.367,-1,4
330,4.05213,-0.384,-1,4
331,4.05173,-0.397,-1,4
332,4.05133,-0.406,-1,4
333,4.05091,-0.423,-1,4
334,4.05046,-0.444,-1,4
335,4.05000,-0.457,-1,4
336,4.04953,-0.475,-1,4
337,4.04906,-0.475,-1,4
338,4.04857,-0.483,-1,4
339,4.04804,-0.531,-1,4
340,4.04752,-0.518,-1,4
341,4.04699,-0.535,-1,4
342,4.04642,-0.565,-1,4
343,4.04585,-0.574,-1,4
344,4.04528,-0.574,-1,4
345,4.04468,-0.600,-1,4
346,4.04406,-0.617,-1,4
347,4.04342,-0.634,-1,4
348,4.04279,-0.639,-1,4
349,4.04213,-0.660,-1,4
350,4.04077,-0.677,-1,4
351,4.04007,-0.703,-1,4
352,4.03935,-0.716,-1,4
353,4.03863,-0.720,-1,4
354,4.03788,-0.751,-1,4
355,4.03713,-0.751,-1,4
356,4.03636,-0.772,-1,4
357,4.03557,-0.790,-1,4
358,4.03477,-0.815,-1,4
359,4.03314,-0.815,-1,4
360,4.03231,-0.837,-1,4
361,4.03147,-0.837,-1,4
362,4.03060,-0.867,-1,4
363,4.02971,-0.889,-1,4
364,4.02883,-0.889,-1,4
365,4.02790,-0.923,-1,4
366,4.02699,-0.910,-1,4
367,4.02604,-0.949,-1,4
368,4.02510,-0.941,-1,4
369,4.02413,-0.971,-1,4
370,4.02316,-1.001,-1,4
371,4.02216,-0.992,-1,4
372,4.02116,-1.018,-1,4
373,4.01914,-1.005,-1,4
374,4.01809,-1.053,-1,4
375,4.01705,-1.040,-1,4
376,4.01597,-1.074,-1,4
377,4.01488,-1.096,-1,4
378,4.01379,-1.092,-1,4
379,4.01266,-1.122,-1,4
380,4.01155,-1.109,-1,4
381,4.01041,-1.143,-1,4
382,4.00928,-1.135,-1,4
383,4.00811,-1.165,-1,4
384,4.00695,-1.165,-1,4
385,4.00575,-1.199,-1,4
386,4.00456,-1.186,-1,4
387,4.00334,-1.217,-1,4
388,4.00212,-1.225,-1,4
389,4.00087,-1.251,-1,4
390,3.99963,-1.238,-1,4
391,3.99837,-1.264,-1,4
392,3.99711,-1.255,-1,4
393,3.99580,-1.307,-1,4
394,3.99451,-1.290,-1,4
395,3.99318,-1.337,-1,4
396,3.99185,-1.324,-1,4
397,3.99049,-1.359,-1,4
398,3.98915,-1.342,-1,4
399,3.98777,-1.376,-1,4
400,3.98640,-1.376,-1,4
401,3.98501,-1.389,-1,4
402,3.98359,-1.415,-1,4
403,3.98219,-1.406,-1,4
404,3.98074,-1.450,-1,4
405,3.97928,-1.458,-1,4
406,3.97783,-1.493,-1,4
407,3.97485,-1.488,-1,4
408,3.97336,-1.493,-1,4
409,3.97185,-1.506,-1,4
410,3.97031,-1.549,-1,4
411,3.96876,-1.549,-1,4
412,3.96719,-1.566,-1,4
413,3.96562,-1.566,-1,4
414,3.96243,-1.614,-1,4
415,3.96082,-1.609,-1,4
416,3.95918,-1.635,-1,4
417,3.95754,-1.639,-1,4
418,3.95589,-1.652,-1,4
419,3.95423,-1.665,-1,4
420,3.95253,-1.696,-1,4
421,3.95083,-1.704,-1,4
422,3.94911,-1.717,-1,4
423,3.94737,-1.743,-1,4
424,3.94563,-1.734,-1,4
425,3.94390,-1.730,-1,4
426,3.94212,-1.795,-1,4
427,3.93853,-1.795,-1,4
428,3.93672,-1.816,-1,4
429,3.93489,-1.834,-1,4
430,3.93305,-1.834,-1,4
431,3.93120,-1.851,-1,4
432,3.92933,-1.868,-1,4
433,3.92746,-1.877,-1,4
434,3.92556,-1.898,-1,4
435,3.92363,-1.929,-1,4
436,3.92169,-1.937,-1,4
437,3.91978,-1.911,-1,4
438,3.91784,-1.937,-1,4
439,3.91587,-1.972,-1,4
440,3.91390,-1.967,-1,4
441,3.91191,-1.993,-1,4
442,3.90991,-1.998,-1,4
443,3.90790,-2.015,-1,4
444,3.90588,-2.015,-1,4
445,3.90384,-2.045,-1,4
446,3.90178,-2.058,-1,4
447,3.89970,-2.080,-1,4
448,3.89764,-2.067,-1,4
449,3.89553,-2.110,-1,4
450,3.89342,-2.105,-1,4
451,3.89130,-2.118,-1,4
452,3.88917,-2.127,-1,4
453,3.88703,-2.149,-1,4
454,3.88272,-2.174,-1,4
455,3.88055,-2.170,-1,4
456,3.87834,-2.205,-1,4
457,3.87391,-2.226,-1,4
458,3.87166,-2.243,-1,4
459,3.86943,-2.235,-1,4
460,3.86717,-2.256,-1,4
461,3.86489,-2.278,-1,4
462,3.86261,-2.282,-1,4
463,3.86030,-2.308,-1,4
464,3.85800,-2.308,-1,4
465,3.85566,-2.338,-1,4
466,3.85331,-2.343,-1,4
467,3.84859,-2.369,-1,4
468,3.84859,-2.382,-1,4
469,3.84620,-2.399,-1,4
470,3.84140,-2.407,-1,4
471,3.83898,-2.420,-1,4
472,3.83655,-2.425,-1,4
473,3.83411,-2.446,-1,4
474,3.83164,-2.463,-1,4
475,3.82917,-2.476,-1,4
476,3.82669,-2.476,-1,4
477,3.82418,-2.515,-1,4
478,3.82166,-2.511,-1,4
479,3.81913,-2.537,-1,4
480,3.81661,-2.520,-1,4
481,3.81406,-2.550,-1,4
482,3.81147,-2.589,-1,4
483,3.80889,-2.576,-1,4
484,3.80631,-2.589,-1,4
485,3.80369,-2.619,-1,4
486,3.80108,-2.606,-1,4
487,3.79846,-2.623,-1,4
488,3.79582,-2.640,-1,4
489,3.79314,-2.675,-1,4
490,3.79048,-2.666,-1,4
491,3.78779,-2.684,-1,4
492,3.78510,-2.696,-1,4
493,3.78238,-2.718,-1,4
494,3.77966,-2.718,-1,4
495,3.77692,-2.735,-1,4
496,3.77418,-2.748,-1,4
497,3.77143,-2.748,-1,4
498,3.76586,-2.778,-1,4
499,3.76306,-2.800,-1,4
500,3.76025,-2.813,-1,4
501,3.75742,-2.835,-1,4
502,3.75457,-2.843,-1,4
503,3.75172,-2.852,-1,4
504,3.74888,-2.843,-1,4
505,3.74600,-2.899,-1,4
506,3.74019,-2.912,-1,4
507,3.73728,-2.908,-1,4
508,3.73438,-2.904,-1,4
509,3.73142,-2.960,-1,4
510,3.72848,-2.942,-1,4
511,3.72549,-2.986,-1,4
512,3.72251,-2.977,-1,4
513,3.71952,-2.990,-1,4
514,3.71651,-3.016,-1,4
515,3.71349,-3.020,-1,4
516,3.71045,-3.042,-1,4
517,3.70740,-3.050,-1,4
518,3.70434,-3.050,-1,4
519,3.70126,-3.085,-1,4
520,3.69818,-3.080,-1,4
521,3.69197,-3.115,-1,4
522,3.68885,-3.115,-1,4
523,3.68569,-3.158,-1,4
524,3.68254,-3.158,-1,4
525,3.67937,-3.167,-1,4
526,3.67619,-3.184,-1,4
527,3.67298,-3.201,-1,4
528,3.66977,-3.210,-1,4
529,3.66653,-3.240,-1,4
530,3.66331,-3.223,-1,4
531,3.66007,-3.244,-1,4
532,3.65680,-3.266,-1,4
533,3.65352,-3.279,-1,4
534,3.65022,-3.300,-1,4
535,3.64693,-3.296,-1,4
536,3.64361,-3.318,-1,4
537,3.64027,-3.335,-1,4
538,3.63694,-3.335,-1,4
539,3.63357,-3.365,-1,4
540,3.63023,-3.344,-1,4
541,3.62684,-3.391,-1,4
542,3.62346,-3.378,-1,4
543,3.62003,-3.426,-1,4
544,3.61661,-3.426,-1,4
545,3.61321,-3.395,-1,4
546,3.60975,-3.464,-1,4
547,3.60628,-3.464,-1,4
548,3.60281,-3.473,-1,4
549,3.59935,-3.460,-1,4
550,3.59584,-3.508,-1,4
551,3.59231,-3.529,-1,4
552,3.58879,-3.529,-1,4
553,3.58173,-3.551,-1,4
554,3.57817,-3.564,-1,4
555,3.57457,-3.594,-1,4
556,3.57099,-3.581,-1,4
557,3.56739,-3.607,-1,4
558,3.56378,-3.611,-1,4
559,3.56016,-3.611,-1,4
560,3.55288,-3.633,-1,4
561,3.54921,-3.667,-1,4
562,3.54555,-3.659,-1,4
563,3.54185,-3.697,-1,4
564,3.53815,-3.702,-1,4
565,3.53445,-3.702,-1,4
566,3.53074,-3.715,-1,4
567,3.52700,-3.732,-1,4
568,3.52326,-3.749,-1,4
569,3.51952,-3.741,-1,4
570,3.51573,-3.784,-1,4
571,3.50816,-3.779,-1,4
572,3.50434,-3.822,-1,4
573,3.50051,-3.835,-1,4
574,3.49668,-3.827,-1,4
575,3.49282,-3.857,-1,4
576,3.48895,-3.870,-1,4
577,3.48508,-3.870,-1,4
578,3.48120,-3.887,-1,4
579,3.47727,-3.922,-1,4
580,3.47335,-3.922,-1,4
581,3.46941,-3.943,-1,4
582,3.46548,-3.926,-1,4
583,3.46151,-3.969,-1,4
584,3.45753,-3.982,-1,4
585,3.45357,-3.965,-1,4
586,3.44957,-3.995,-1,4
587,3.44558,-3.995,-1,4
588,3.44155,-4.025,-1,4
589,3.43752,-4.034,-1,4
590,3.43345,-4.064,-1,4
591,3.42944,-4.017,-1,4
592,3.42533,-4.103,-1,4
593,3.42130,-4.034,-1,4
594,3.41721,-4.090,-1,4
595,3.41309,-4.120,-1,4
596,3.40897,-4.116,-1,4
597,3.40485,-4.124,-1,4
598,3.40069,-4.155,-1,4
599,3.39652,-4.172,-1,4
600,3.39235,-4.172,-1,4
601,3.38816,-4.194,-1,4
602,3.38394,-4.215,-1,4
603,3.37548,-4.254,-1,4
604,3.37124,-4.245,-1,4
605,3.36697,-4.267,-1,4
606,3.36272,-4.245,-1,4
607,3.35840,-4.323,-1,4
608,3.35413,-4.267,-1,4
609,3.34983,-4.306,-1,4
610,3.34551,-4.323,-1,4
611,3.34117,-4.357,-1,4
612,3.33246,-4.353,-1,4
613,3.32808,-4.379,-1,4
614,3.32368,-4.396,-1,4
615,3.31930,-4.388,-1,4
616,3.31488,-4.418,-1,4
617,3.31043,-4.452,-1,4
618,3.30598,-4.444,-1,4
619,3.30153,-4.448,-1,4
620,3.29707,-4.461,-1,4
621,3.29259,-4.478,-1,4
622,3.28358,-4.500,-1,4
623,3.27906,-4.517,-1,4
624,3.27455,-4.513,-1,4
625,3.26999,-4.560,-1,4
626,3.26544,-4.552,-1,4
627,3.26089,-4.547,-1,4
628,3.25630,-4.590,-1,4
629,3.25170,-4.595,-1,4
630,3.24712,-4.582,-1,4
631,3.24249,-4.629,-1,4
632,3.23786,-4.634,-1,4
633,3.23324,-4.616,-1,4
634,3.22859,-4.651,-1,4
635,3.22394,-4.655,-1,4
