cnt,pos,speed,Dir,Force,
1,3.21574,3.999,-1,4
2,3.21976,4.012,-1,4
3,3.22377,4.012,-1,4
4,3.22777,4.004,-1,4
5,3.23178,4.008,-1,4
6,3.23577,3.991,-1,4
7,3.23978,4.012,-1,4
8,3.24380,4.017,-1,4
9,3.24782,4.021,-1,4
10,3.25182,3.999,-1,4
11,3.25583,4.012,-1,4
12,3.25986,4.025,-1,4
13,3.26387,4.012,-1,4
14,3.26787,4.004,-1,4
15,3.27190,4.030,-1,4
16,3.27595,4.043,-1,4
17,3.27997,4.025,-1,4
18,3.28398,4.008,-1,4
19,3.28800,4.025,-1,4
20,3.29206,4.055,-1,4
21,3.29610,4.043,-1,4
22,3.30011,4.012,-1,4
23,3.30816,4.030,-1,4
24,3.31219,4.025,-1,4
25,3.31623,4.043,-1,4
26,3.32025,4.017,-1,4
27,3.32429,4.043,-1,4
28,3.32831,4.025,-1,4
29,3.33236,4.043,-1,4
30,3.33638,4.025,-1,4
31,3.34043,4.047,-1,4
32,3.34446,4.034,-1,4
33,3.34850,4.038,-1,4
34,3.35254,4.038,-1,4
35,3.35655,4.017,-1,4
36,3.36064,4.081,-1,4
37,3.36467,4.030,-1,4
38,3.36874,4.073,-1,4
39,3.37279,4.047,-1,4
40,3.37682,4.038,-1,4
41,3.38086,4.038,-1,4
42,3.38491,4.047,-1,4
43,3.38896,4.055,-1,4
44,3.39299,4.025,-1,4
45,3.39703,4.043,-1,4
46,3.40108,4.051,-1,4
47,3.40513,4.047,-1,4
48,3.40916,4.034,-1,4
49,3.41321,4.043,-1,4
50,3.41725,4.043,-1,4
51,3.42126,4.012,-1,4
52,3.42525,3.991,-1,4
53,3.42934,4.086,-1,4
54,3.43334,4.004,-1,4
55,3.43737,4.030,-1,4
56,3.44140,4.030,-1,4
57,3.44542,4.017,-1,4
58,3.44941,3.995,-1,4
59,3.45344,4.025,-1,4
60,3.45743,3.991,-1,4
61,3.46148,4.051,-1,4
62,3.46550,4.025,-1,4
63,3.46949,3.986,-1,4
64,3.47348,3.991,-1,4
65,3.47751,4.030,-1,4
66,3.48153,4.017,-1,4
67,3.48552,3.991,-1,4
68,3.48948,3.965,-1,4
69,3.49347,3.991,-1,4
70,3.49746,3.991,-1,4
71,3.50146,3.995,-1,4
72,3.50543,3.973,-1,4
73,3.50941,3.978,-1,4
74,3.51338,3.973,-1,4
75,3.51735,3.965,-1,4
76,3.52128,3.935,-1,4
77,3.52527,3.982,-1,4
78,3.52926,3.991,-1,4
79,3.53321,3.956,-1,4
80,3.53715,3.939,-1,4
81,3.54111,3.961,-1,4
82,3.54509,3.973,-1,4
83,3.54902,3.935,-1,4
84,3.55293,3.909,-1,4
85,3.55688,3.948,-1,4
86,3.56083,3.952,-1,4
87,3.56477,3.939,-1,4
88,3.56869,3.917,-1,4
89,3.57263,3.948,-1,4
90,3.57656,3.930,-1,4
91,3.58048,3.917,-1,4
92,3.58436,3.883,-1,4
93,3.58828,3.913,-1,4
94,3.59219,3.909,-1,4
95,3.59609,3.909,-1,4
96,3.59999,3.857,-1,4
97,3.60773,3.883,-1,4
98,3.61158,3.853,-1,4
99,3.61544,3.861,-1,4
100,3.61928,3.835,-1,4
101,3.62310,3.827,-1,4
102,3.62694,3.835,-1,4
103,3.63076,3.827,-1,4
104,3.63460,3.831,-1,4
105,3.64220,3.822,-1,4
106,3.64602,3.818,-1,4
107,3.64979,3.779,-1,4
108,3.65359,3.792,-1,4
109,3.65737,3.788,-1,4
110,3.66114,3.766,-1,4
111,3.66489,3.745,-1,4
112,3.66864,3.758,-1,4
113,3.67241,3.766,-1,4
114,3.67616,3.745,-1,4
115,3.67989,3.732,-1,4
116,3.68363,3.741,-1,4
117,3.68734,3.715,-1,4
118,3.69106,3.715,-1,4
119,3.69475,3.689,-1,4
120,3.69844,3.693,-1,4
121,3.70213,3.689,-1,4
122,3.70579,3.659,-1,4
123,3.70946,3.676,-1,4
124,3.71312,3.654,-1,4
125,3.71676,3.646,-1,4
126,3.72041,3.646,-1,4
127,3.72404,3.633,-1,4
128,3.72763,3.628,-1,4
129,3.73486,3.602,-1,4
130,3.73845,3.581,-1,4
131,3.74203,3.590,-1,4
132,3.74562,3.581,-1,4
133,3.74919,3.577,-1,4
134,3.75273,3.533,-1,4
135,3.75628,3.555,-1,4
136,3.75984,3.559,-1,4
137,3.76337,3.533,-1,4
138,3.76688,3.508,-1,4
139,3.77040,3.516,-1,4
140,3.77389,3.490,-1,4
141,3.77738,3.495,-1,4
142,3.78085,3.464,-1,4
143,3.78433,3.482,-1,4
144,3.78779,3.464,-1,4
145,3.79125,3.460,-1,4
146,3.79468,3.426,-1,4
147,3.79811,3.430,-1,4
148,3.80150,3.391,-1,4
149,3.80491,3.413,-1,4
150,3.80832,3.408,-1,4
151,3.81170,3.382,-1,4
152,3.81508,3.382,-1,4
153,3.81842,3.339,-1,4
154,3.82178,3.352,-1,4
155,3.82511,3.335,-1,4
156,3.82846,3.348,-1,4
157,3.83176,3.305,-1,4
158,3.83506,3.300,-1,4
159,3.83838,3.318,-1,4
160,3.84165,3.270,-1,4
161,3.84494,3.288,-1,4
162,3.84818,3.244,-1,4
163,3.85144,3.253,-1,4
164,3.85469,3.253,-1,4
165,3.85793,3.244,-1,4
166,3.86115,3.218,-1,4
167,3.86435,3.197,-1,4
168,3.86754,3.193,-1,4
169,3.87072,3.180,-1,4
170,3.87388,3.158,-1,4
171,3.87705,3.171,-1,4
172,3.88019,3.141,-1,4
173,3.88333,3.141,-1,4
174,3.88646,3.124,-1,4
175,3.88955,3.098,-1,4
176,3.89267,3.119,-1,4
177,3.89574,3.067,-1,4
178,3.89882,3.076,-1,4
179,3.90188,3.067,-1,4
180,3.90494,3.059,-1,4
181,3.90797,3.029,-1,4
182,3.91102,3.046,-1,4
183,3.91402,3.003,-1,4
184,3.91702,3.003,-1,4
185,3.92001,2.990,-1,4
186,3.92298,2.968,-1,4
187,3.92597,2.990,-1,4
188,3.92893,2.955,-1,4
189,3.93185,2.925,-1,4
190,3.93479,2.934,-1,4
191,3.94058,2.891,-1,4
192,3.94346,2.882,-1,4
193,3.94634,2.878,-1,4
194,3.94918,2.843,-1,4
195,3.95203,2.835,-1,4
196,3.95766,2.800,-1,4
197,3.96047,2.809,-1,4
198,3.96323,2.761,-1,4
199,3.96603,2.791,-1,4
200,3.96877,2.744,-1,4
201,3.97150,2.735,-1,4
202,3.97425,2.744,-1,4
203,3.97695,2.696,-1,4
204,3.97963,2.688,-1,4
205,3.98233,2.701,-1,4
206,3.98498,2.649,-1,4
207,3.98763,2.645,-1,4
208,3.99025,2.619,-1,4
209,3.99288,2.632,-1,4
210,3.99550,2.619,-1,4
211,3.99810,2.571,-1,4
212,4.00324,2.571,-1,4
213,4.00577,2.533,-1,4
214,4.00831,2.533,-1,4
215,4.01083,2.524,-1,4
216,4.01335,2.520,-1,4
217,4.01584,2.494,-1,4
218,4.01831,2.463,-1,4
219,4.02075,2.446,-1,4
220,4.02323,2.476,-1,4
221,4.02567,2.438,-1,4
222,4.02808,2.412,-1,4
223,4.03048,2.403,-1,4
224,4.03288,2.403,-1,4
225,4.03524,2.356,-1,4
226,4.03759,2.347,-1,4
227,4.03993,2.347,-1,4
228,4.04229,2.351,-1,4
229,4.04461,2.321,-1,4
230,4.04692,2.312,-1,4
231,4.04919,2.269,-1,4
232,4.05146,2.269,-1,4
233,4.05369,2.235,-1,4
234,4.05593,2.239,-1,4
235,4.05815,2.222,-1,4
236,4.06035,2.192,-1,4
237,4.06254,2.196,-1,4
238,4.06470,2.161,-1,4
239,4.06686,2.157,-1,4
240,4.06900,2.136,-1,4
241,4.07112,2.127,-1,4
242,4.07323,2.105,-1,4
243,4.07531,2.084,-1,4
244,4.07737,2.062,-1,4
245,4.08149,2.045,-1,4
246,4.08351,2.023,-1,4
247,4.08552,2.010,-1,4
248,4.08750,1.985,-1,4
249,4.08949,1.985,-1,4
250,4.09146,1.972,-1,4
251,4.09341,1.954,-1,4
252,4.09535,1.929,-1,4
253,4.09917,1.890,-1,4
254,4.10105,1.885,-1,4
255,4.10291,1.859,-1,4
256,4.10477,1.855,-1,4
257,4.10661,1.842,-1,4
258,4.10844,1.829,-1,4
259,4.11024,1.808,-1,4
260,4.11204,1.790,-1,4
261,4.11380,1.769,-1,4
262,4.11557,1.765,-1,4
263,4.11733,1.760,-1,4
264,4.11906,1.734,-1,4
265,4.12078,1.717,-1,4
266,4.12248,1.700,-1,4
267,4.12584,1.683,-1,4
268,4.12750,1.657,-1,4
269,4.12913,1.635,-1,4
270,4.13076,1.622,-1,4
271,4.13237,1.614,-1,4
272,4.13397,1.596,-1,4
273,4.13556,1.592,-1,4
274,4.13713,1.575,-1,4
275,4.13866,1.532,-1,4
276,4.14020,1.540,-1,4
277,4.14171,1.506,-1,4
278,4.14321,1.501,-1,4
279,4.14470,1.493,-1,4
280,4.14615,1.450,-1,4
281,4.14761,1.458,-1,4
282,4.14904,1.432,-1,4
283,4.15046,1.415,-1,4
284,4.15186,1.398,-1,4
285,4.15324,1.381,-1,4
286,4.15459,1.355,-1,4
287,4.15595,1.359,-1,4
288,4.15729,1.342,-1,4
289,4.15860,1.312,-1,4
290,4.15991,1.307,-1,4
291,4.16121,1.299,-1,4
292,4.16247,1.264,-1,4
293,4.16373,1.255,-1,4
294,4.16497,1.243,-1,4
295,4.16619,1.217,-1,4
296,4.16739,1.204,-1,4
297,4.16856,1.169,-1,4
298,4.16972,1.161,-1,4
299,4.17089,1.169,-1,4
300,4.17202,1.130,-1,4
301,4.17423,1.083,-1,4
302,4.17532,1.092,-1,4
303,4.17640,1.074,-1,4
304,4.17745,1.057,-1,4
305,4.17851,1.053,-1,4
306,4.17952,1.005,-1,4
307,4.18053,0.966,-1,4
308,4.18248,0.984,-1,4
309,4.18342,0.941,-1,4
310,4.18436,0.941,-1,4
311,4.18528,0.923,-1,4
312,4.18618,0.897,-1,4
313,4.18707,0.897,-1,4
314,4.18794,0.863,-1,4
315,4.18880,0.859,-1,4
316,4.18963,0.833,-1,4
317,4.19044,0.807,-1,4
318,4.19125,0.815,-1,4
319,4.19204,0.785,-1,4
320,4.19282,0.785,-1,4
321,4.19357,0.746,-1,4
322,4.19430,0.729,-1,4
323,4.19503,0.738,-1,4
324,4.19572,0.690,-1,4
325,4.19640,0.677,-1,4
326,4.19773,0.669,-1,4
327,4.19836,0.630,-1,4
328,4.19899,0.621,-1,4
329,4.19960,0.617,-1,4
330,4.20020,0.595,-1,4
331,4.20077,0.569,-1,4
332,4.20131,0.544,-1,4
333,4.20184,0.531,-1,4
334,4.20239,0.552,-1,4
335,4.20290,0.500,-1,4
336,4.20338,0.488,-1,4
337,4.20385,0.470,-1,4
338,4.20431,0.453,-1,4
339,4.20477,0.462,-1,4
340,4.20520,0.431,-1,4
341,4.20560,0.406,-1,4
342,4.20601,0.401,-1,4
343,4.20637,0.367,-1,4
344,4.20674,0.367,-1,4
345,4.20710,0.362,-1,4
346,4.20743,0.332,-1,4
347,4.20775,0.319,-1,4
348,4.20806,0.311,-1,4
349,4.20835,0.285,-1,4
350,4.20862,0.267,-1,4
351,4.20887,0.259,-1,4
352,4.20911,0.233,-1,4
353,4.20933,0.220,-1,4
354,4.20953,0.207,-1,4
355,4.20972,0.181,-1,4
356,4.20990,0.181,-1,4
357,4.21006,0.160,-1,4
358,4.21020,0.142,-1,4
359,4.21033,0.129,-1,4
360,4.21044,0.095,-1,4
361,4.21062,0.082,-1,4
362,4.21068,0.060,-1,4
363,4.21073,0.043,-1,4
364,4.21076,0.039,-1,4
365,4.21078,0.013,-1,4
366,4.21078,0.004,-1,4
367,4.21077,-0.009,-1,4
368,4.21074,-0.030,-1,4
369,4.21063,-0.056,-1,4
370,4.21048,-0.082,-1,4
371,4.21037,-0.112,-1,4
372,4.21025,-0.121,-1,4
373,4.21011,-0.134,-1,4
374,4.20997,-0.147,-1,4
375,4.20979,-0.173,-1,4
376,4.20963,-0.168,-1,4
377,4.20944,-0.186,-1,4
378,4.20924,-0.203,-1,4
379,4.20902,-0.220,-1,4
380,4.20879,-0.224,-1,4
381,4.20855,-0.246,-1,4
382,4.20827,-0.272,-1,4
383,4.20800,-0.276,-1,4
384,4.20771,-0.293,-1,4
385,4.20708,-0.328,-1,4
386,4.20674,-0.337,-1,4
387,4.20640,-0.341,-1,4
388,4.20604,-0.358,-1,4
389,4.20567,-0.371,-1,4
390,4.20529,-0.384,-1,4
391,4.20489,-0.397,-1,4
392,4.20447,-0.423,-1,4
393,4.20404,-0.427,-1,4
394,4.20361,-0.436,-1,4
395,4.20316,-0.449,-1,4
396,4.20269,-0.470,-1,4
397,4.20221,-0.479,-1,4
398,4.20170,-0.509,-1,4
399,4.20120,-0.500,-1,4
400,4.20068,-0.518,-1,4
401,4.20015,-0.531,-1,4
402,4.19960,-0.552,-1,4
403,4.19902,-0.582,-1,4
404,4.19843,-0.587,-1,4
405,4.19784,-0.587,-1,4
406,4.19724,-0.604,-1,4
407,4.19660,-0.634,-1,4
408,4.19598,-0.626,-1,4
409,4.19534,-0.643,-1,4
410,4.19465,-0.682,-1,4
411,4.19399,-0.664,-1,4
412,4.19330,-0.690,-1,4
413,4.19258,-0.716,-1,4
414,4.19187,-0.716,-1,4
415,4.19113,-0.742,-1,4
416,4.19037,-0.759,-1,4
417,4.18962,-0.751,-1,4
418,4.18885,-0.768,-1,4
419,4.18804,-0.807,-1,4
420,4.18724,-0.798,-1,4
421,4.18643,-0.811,-1,4
422,4.18558,-0.850,-1,4
423,4.18474,-0.841,-1,4
424,4.18387,-0.871,-1,4
425,4.18300,-0.871,-1,4
426,4.18210,-0.902,-1,4
427,4.18121,-0.889,-1,4
428,4.18029,-0.915,-1,4
429,4.17936,-0.928,-1,4
430,4.17841,-0.953,-1,4
431,4.17745,-0.962,-1,4
432,4.17647,-0.975,-1,4
433,4.17547,-1.001,-1,4
434,4.17448,-0.997,-1,4
435,4.17347,-1.010,-1,4
436,4.17243,-1.040,-1,4
437,4.17138,-1.048,-1,4
438,4.17030,-1.074,-1,4
439,4.16925,-1.057,-1,4
440,4.16817,-1.079,-1,4
441,4.16709,-1.083,-1,4
442,4.16596,-1.122,-1,4
443,4.16483,-1.135,-1,4
444,4.16369,-1.143,-1,4
445,4.16253,-1.161,-1,4
446,4.16136,-1.165,-1,4
447,4.16017,-1.191,-1,4
448,4.15897,-1.199,-1,4
449,4.15775,-1.217,-1,4
450,4.15652,-1.230,-1,4
451,4.15529,-1.234,-1,4
452,4.15403,-1.264,-1,4
453,4.15278,-1.251,-1,4
454,4.15150,-1.273,-1,4
455,4.15020,-1.307,-1,4
456,4.14890,-1.299,-1,4
457,4.14757,-1.324,-1,4
458,4.14623,-1.337,-1,4
459,4.14489,-1.342,-1,4
460,4.14352,-1.372,-1,4
461,4.14215,-1.368,-1,4
462,4.14076,-1.398,-1,4
463,4.13935,-1.411,-1,4
464,4.13651,-1.428,-1,4
465,4.13508,-1.437,-1,4
466,4.13361,-1.467,-1,4
467,4.13214,-1.475,-1,4
468,4.13066,-1.480,-1,4
469,4.12916,-1.493,-1,4
470,4.12765,-1.510,-1,4
471,4.12460,-1.536,-1,4
472,4.12306,-1.540,-1,4
473,4.12150,-1.566,-1,4
474,4.11992,-1.575,-1,4
475,4.11835,-1.570,-1,4
476,4.11676,-1.596,-1,4
477,4.11514,-1.614,-1,4
478,4.11352,-1.622,-1,4
479,4.11188,-1.635,-1,4
480,4.11025,-1.631,-1,4
481,4.10860,-1.652,-1,4
482,4.10692,-1.683,-1,4
483,4.10523,-1.691,-1,4
484,4.10352,-1.704,-1,4
485,4.10182,-1.700,-1,4
486,4.10010,-1.726,-1,4
487,4.09838,-1.713,-1,4
488,4.09664,-1.743,-1,4
489,4.09488,-1.765,-1,4
490,4.09310,-1.778,-1,4
491,4.09131,-1.790,-1,4
492,4.08951,-1.803,-1,4
493,4.08768,-1.825,-1,4
494,4.08586,-1.829,-1,4
495,4.08218,-1.855,-1,4
496,4.08032,-1.859,-1,4
497,4.07844,-1.872,-1,4
498,4.07654,-1.903,-1,4
499,4.07464,-1.903,-1,4
500,4.07273,-1.911,-1,4
501,4.07079,-1.941,-1,4
502,4.06884,-1.941,-1,4
503,4.06688,-1.963,-1,4
504,4.06490,-1.985,-1,4
505,4.06291,-1.989,-1,4
506,4.06091,-1.993,-1,4
507,4.05889,-2.023,-1,4
508,4.05686,-2.036,-1,4
509,4.05481,-2.041,-1,4
510,4.05278,-2.032,-1,4
511,4.05072,-2.062,-1,4
512,4.04863,-2.092,-1,4
513,4.04653,-2.097,-1,4
514,4.04441,-2.118,-1,4
515,4.04228,-2.131,-1,4
516,4.04014,-2.140,-1,4
517,4.03798,-2.157,-1,4
518,4.03581,-2.170,-1,4
519,4.03364,-2.170,-1,4
520,4.03148,-2.166,-1,4
521,4.02927,-2.205,-1,4
522,4.02706,-2.218,-1,4
523,4.02483,-2.226,-1,4
524,4.02257,-2.261,-1,4
525,4.02033,-2.243,-1,4
526,4.01808,-2.248,-1,4
527,4.01580,-2.274,-1,4
528,4.01351,-2.291,-1,4
529,4.01121,-2.304,-1,4
530,4.00891,-2.300,-1,4
531,4.00658,-2.330,-1,4
532,4.00424,-2.343,-1,4
533,4.00188,-2.360,-1,4
534,3.99952,-2.356,-1,4
535,3.99716,-2.360,-1,4
536,3.99477,-2.394,-1,4
537,3.99236,-2.407,-1,4
538,3.98993,-2.433,-1,4
539,3.98751,-2.429,-1,4
540,3.98264,-2.446,-1,4
541,3.98016,-2.472,-1,4
542,3.97769,-2.472,-1,4
543,3.97270,-2.472,-1,4
544,3.97018,-2.528,-1,4
545,3.96510,-2.554,-1,4
546,3.96254,-2.563,-1,4
547,3.96254,-2.550,-1,4
548,3.95999,-2.550,-1,4
549,3.95739,-2.602,-1,4
550,3.95480,-2.593,-1,4
551,3.95219,-2.606,-1,4
552,3.94691,-2.632,-1,4
553,3.94427,-2.640,-1,4
554,3.94158,-2.692,-1,4
555,3.93891,-2.675,-1,4
556,3.93622,-2.688,-1,4
557,3.93349,-2.727,-1,4
558,3.93077,-2.731,-1,4
559,3.92804,-2.757,-1,4
560,3.92252,-2.770,-1,4
561,3.92252,-2.778,-1,4
562,3.91974,-2.778,-1,4
563,3.91698,-2.761,-1,4
564,3.91416,-2.817,-1,4
565,3.91136,-2.800,-1,4
566,3.90853,-2.826,-1,4
567,3.90570,-2.830,-1,4
568,3.90283,-2.869,-1,4
569,3.89998,-2.852,-1,4
570,3.89712,-2.865,-1,4
571,3.89424,-2.882,-1,4
572,3.89131,-2.921,-1,4
573,3.88841,-2.908,-1,4
574,3.88548,-2.929,-1,4
575,3.88256,-2.916,-1,4
576,3.87960,-2.964,-1,4
577,3.87664,-2.955,-1,4
578,3.87365,-2.990,-1,4
579,3.87068,-2.973,-1,4
580,3.86768,-3.003,-1,4
581,3.86466,-3.016,-1,4
582,3.86165,-3.007,-1,4
583,3.85859,-3.059,-1,4
584,3.85247,-3.063,-1,4
585,3.84939,-3.080,-1,4
586,3.84629,-3.102,-1,4
587,3.84320,-3.089,-1,4
588,3.84009,-3.115,-1,4
589,3.83695,-3.137,-1,4
590,3.83381,-3.154,-1,4
591,3.82750,-3.154,-1,4
592,3.82431,-3.188,-1,4
593,3.82111,-3.206,-1,4
594,3.81792,-3.184,-1,4
595,3.81472,-3.206,-1,4
596,3.81147,-3.244,-1,4
597,3.80825,-3.227,-1,4
598,3.80499,-3.262,-1,4
599,3.80173,-3.253,-1,4
600,3.79845,-3.279,-1,4
601,3.79516,-3.292,-1,4
602,3.78855,-3.318,-1,4
603,3.78522,-3.331,-1,4
604,3.78187,-3.344,-1,4
605,3.77853,-3.344,-1,4
606,3.77518,-3.348,-1,4
607,3.77180,-3.382,-1,4
608,3.76842,-3.382,-1,4
609,3.76501,-3.408,-1,4
610,3.76160,-3.408,-1,4
611,3.75817,-3.426,-1,4
612,3.75473,-3.443,-1,4
613,3.75127,-3.460,-1,4
614,3.74784,-3.434,-1,4
615,3.74436,-3.482,-1,4
616,3.74086,-3.495,-1,4
617,3.73737,-3.495,-1,4
618,3.73387,-3.495,-1,4
619,3.73035,-3.520,-1,4
620,3.72680,-3.551,-1,4
621,3.72325,-3.551,-1,4
622,3.71970,-3.546,-1,4
623,3.71613,-3.577,-1,4
624,3.71256,-3.568,-1,4
625,3.70896,-3.602,-1,4
626,3.70533,-3.624,-1,4
627,3.70172,-3.611,-1,4
628,3.69809,-3.633,-1,4
629,3.69443,-3.654,-1,4
630,3.69081,-3.624,-1,4
631,3.68714,-3.676,-1,4
632,3.68345,-3.680,-1,4
633,3.67973,-3.710,-1,4
634,3.67602,-3.723,-1,4
635,3.67230,-3.745,-1,4
636,3.66481,-3.741,-1,4
637,3.66107,-3.741,-1,4
638,3.65730,-3.775,-1,4
639,3.65350,-3.797,-1,4
640,3.64590,-3.792,-1,4
641,3.64208,-3.822,-1,4
642,3.63821,-3.866,-1,4
643,3.63441,-3.805,-1,4
644,3.63054,-3.866,-1,4
645,3.62667,-3.870,-1,4
646,3.62280,-3.874,-1,4
647,3.61892,-3.874,-1,4
648,3.61502,-3.900,-1,4
649,3.61111,-3.913,-1,4
650,3.60718,-3.930,-1,4
651,3.60323,-3.948,-1,4
652,3.59930,-3.935,-1,4
653,3.59533,-3.965,-1,4
654,3.59135,-3.978,-1,4
655,3.58736,-3.991,-1,4
656,3.58337,-3.995,-1,4
657,3.57936,-4.004,-1,4
658,3.57533,-4.030,-1,4
659,3.57131,-4.021,-1,4
660,3.56726,-4.051,-1,4
661,3.56320,-4.060,-1,4
662,3.55916,-4.038,-1,4
663,3.55509,-4.073,-1,4
664,3.55100,-4.094,-1,4
665,3.54282,-4.107,-1,4
666,3.53870,-4.116,-1,4
667,3.53458,-4.124,-1,4
668,3.53043,-4.142,-1,4
669,3.52629,-4.142,-1,4
670,3.52213,-4.163,-1,4
671,3.51798,-4.150,-1,4
672,3.51379,-4.185,-1,4
673,3.50961,-4.185,-1,4
674,3.50542,-4.185,-1,4
675,3.50121,-4.215,-1,4
676,3.49698,-4.228,-1,4
677,3.49275,-4.228,-1,4
678,3.48850,-4.250,-1,4
679,3.48424,-4.263,-1,4
680,3.47997,-4.271,-1,4
681,3.47569,-4.284,-1,4
682,3.47140,-4.284,-1,4
683,3.46712,-4.280,-1,4
684,3.46279,-4.327,-1,4
685,3.45847,-4.323,-1,4
686,3.45419,-4.284,-1,4
687,3.44985,-4.336,-1,4
688,3.44552,-4.332,-1,4
689,3.44117,-4.353,-1,4
690,3.43680,-4.366,-1,4
691,3.43246,-4.345,-1,4
692,3.42807,-4.388,-1,4
693,3.42371,-4.357,-1,4
694,3.41933,-4.383,-1,4
695,3.41494,-4.388,-1,4
696,3.41054,-4.401,-1,4
697,3.40616,-4.379,-1,4
698,3.40174,-4.418,-1,4
699,3.39731,-4.435,-1,4
700,3.39290,-4.409,-1,4
701,3.38847,-4.431,-1,4
702,3.38400,-4.465,-1,4
703,3.37956,-4.444,-1,4
704,3.37510,-4.461,-1,4
705,3.37062,-4.474,-1,4
706,3.36614,-4.483,-1,4
707,3.36165,-4.491,-1,4
708,3.35714,-4.508,-1,4
709,3.35265,-4.496,-1,4
710,3.34812,-4.521,-1,4
711,3.34362,-4.504,-1,4
712,3.33455,-4.530,-1,4
713,3.33001,-4.534,-1,4
714,3.32546,-4.552,-1,4
715,3.32090,-4.560,-1,4
716,3.31634,-4.565,-1,4
717,3.31178,-4.582,-1,4
718,3.30719,-4.582,-1,4
719,3.30261,-4.595,-1,4
720,3.29342,-4.595,-1,4
721,3.28880,-4.625,-1,4
722,3.28418,-4.616,-1,4
723,3.27957,-4.612,-1,4
724,3.27495,-4.625,-1,4
725,3.27030,-4.642,-1,4
726,3.26566,-4.647,-1,4
727,3.26104,-4.621,-1,4
728,3.25640,-4.634,-1,4
729,3.25173,-4.672,-1,4
730,3.24709,-4.638,-1,4
731,3.24241,-4.677,-1,4
732,3.23775,-4.664,-1,4
733,3.23308,-4.668,-1,4
734,3.22841,-4.672,-1,4
735,3.22373,-4.685,-1,4
736,3.21903,-4.694,-1,4
