cnt,pos,speed,Dir,Force,
1,3.23350,3.982,-1,4
2,3.23748,3.973,-1,4
3,3.24147,3.991,-1,4
4,3.24546,3.995,-1,4
5,3.24946,4.004,-1,4
6,3.25343,3.961,-1,4
7,3.25741,3.982,-1,4
8,3.26141,3.999,-1,4
9,3.26538,3.973,-1,4
10,3.26938,3.995,-1,4
11,3.27337,3.995,-1,4
12,3.27737,3.995,-1,4
13,3.28133,3.969,-1,4
14,3.28533,3.991,-1,4
15,3.28932,3.999,-1,4
16,3.29731,3.982,-1,4
17,3.30130,3.991,-1,4
18,3.30527,3.973,-1,4
19,3.31324,3.982,-1,4
20,3.31724,3.999,-1,4
21,3.32120,3.965,-1,4
22,3.32519,3.986,-1,4
23,3.32916,3.973,-1,4
24,3.33314,3.973,-1,4
25,3.33711,3.973,-1,4
26,3.34110,3.991,-1,4
27,3.34904,3.961,-1,4
28,3.35300,3.956,-1,4
29,3.35697,3.973,-1,4
30,3.36096,3.991,-1,4
31,3.36492,3.961,-1,4
32,3.36891,3.982,-1,4
33,3.37287,3.961,-1,4
34,3.37684,3.973,-1,4
35,3.38077,3.930,-1,4
36,3.38472,3.952,-1,4
37,3.38870,3.973,-1,4
38,3.39263,3.935,-1,4
39,3.39657,3.935,-1,4
40,3.40052,3.956,-1,4
41,3.40447,3.948,-1,4
42,3.40840,3.930,-1,4
43,3.41232,3.922,-1,4
44,3.41624,3.922,-1,4
45,3.42016,3.917,-1,4
46,3.42406,3.900,-1,4
47,3.42797,3.909,-1,4
48,3.43190,3.930,-1,4
49,3.43578,3.883,-1,4
50,3.43969,3.909,-1,4
51,3.44357,3.879,-1,4
52,3.44744,3.870,-1,4
53,3.45134,3.900,-1,4
54,3.45520,3.857,-1,4
55,3.46296,3.874,-1,4
56,3.46683,3.874,-1,4
57,3.47066,3.827,-1,4
58,3.47839,3.861,-1,4
59,3.48225,3.861,-1,4
60,3.48609,3.835,-1,4
61,3.48991,3.822,-1,4
62,3.49372,3.814,-1,4
63,3.49754,3.818,-1,4
64,3.50138,3.835,-1,4
65,3.50517,3.792,-1,4
66,3.50898,3.814,-1,4
67,3.51654,3.784,-1,4
68,3.52032,3.779,-1,4
69,3.52409,3.771,-1,4
70,3.52789,3.801,-1,4
71,3.53166,3.771,-1,4
72,3.53542,3.758,-1,4
73,3.53916,3.741,-1,4
74,3.54291,3.745,-1,4
75,3.54666,3.753,-1,4
76,3.55039,3.732,-1,4
77,3.55414,3.745,-1,4
78,3.55787,3.736,-1,4
79,3.56158,3.702,-1,4
80,3.56530,3.728,-1,4
81,3.56902,3.719,-1,4
82,3.57273,3.710,-1,4
83,3.57643,3.702,-1,4
84,3.58012,3.689,-1,4
85,3.58380,3.676,-1,4
86,3.58747,3.667,-1,4
87,3.59112,3.650,-1,4
88,3.59478,3.663,-1,4
89,3.59843,3.650,-1,4
90,3.60207,3.641,-1,4
91,3.60568,3.615,-1,4
92,3.60930,3.607,-1,4
93,3.61290,3.585,-1,4
94,3.62008,3.594,-1,4
95,3.62368,3.594,-1,4
96,3.62725,3.572,-1,4
97,3.63079,3.542,-1,4
98,3.63435,3.564,-1,4
99,3.63788,3.538,-1,4
100,3.64142,3.551,-1,4
101,3.64497,3.525,-1,4
102,3.64850,3.525,-1,4
103,3.65549,3.508,-1,4
104,3.65895,3.460,-1,4
105,3.66243,3.486,-1,4
106,3.66589,3.460,-1,4
107,3.66937,3.477,-1,4
108,3.67280,3.434,-1,4
109,3.67625,3.443,-1,4
110,3.67966,3.417,-1,4
111,3.68308,3.421,-1,4
112,3.68648,3.395,-1,4
113,3.68990,3.421,-1,4
114,3.69328,3.378,-1,4
115,3.69664,3.357,-1,4
116,3.70001,3.374,-1,4
117,3.70334,3.331,-1,4
118,3.70668,3.339,-1,4
119,3.71000,3.318,-1,4
120,3.71331,3.313,-1,4
121,3.71660,3.288,-1,4
122,3.72316,3.262,-1,4
123,3.72643,3.279,-1,4
124,3.72966,3.227,-1,4
125,3.73292,3.257,-1,4
126,3.73615,3.227,-1,4
127,3.73934,3.197,-1,4
128,3.74257,3.227,-1,4
129,3.74575,3.175,-1,4
130,3.74893,3.184,-1,4
131,3.75208,3.154,-1,4
132,3.75522,3.141,-1,4
133,3.75838,3.158,-1,4
134,3.76151,3.128,-1,4
135,3.76463,3.124,-1,4
136,3.76773,3.098,-1,4
137,3.77080,3.072,-1,4
138,3.77387,3.067,-1,4
139,3.77694,3.067,-1,4
140,3.77998,3.042,-1,4
141,3.78300,3.024,-1,4
142,3.78603,3.029,-1,4
143,3.78906,3.024,-1,4
144,3.79204,2.981,-1,4
145,3.79501,2.968,-1,4
146,3.79797,2.964,-1,4
147,3.80090,2.929,-1,4
148,3.80382,2.916,-1,4
149,3.80675,2.929,-1,4
150,3.80965,2.904,-1,4
151,3.81255,2.904,-1,4
152,3.81543,2.873,-1,4
153,3.81827,2.843,-1,4
154,3.82109,2.826,-1,4
155,3.82393,2.835,-1,4
156,3.82675,2.817,-1,4
157,3.82954,2.796,-1,4
158,3.83232,2.778,-1,4
159,3.83508,2.761,-1,4
160,3.83784,2.757,-1,4
161,3.84058,2.744,-1,4
162,3.84330,2.718,-1,4
163,3.84599,2.692,-1,4
164,3.84868,2.692,-1,4
165,3.85136,2.675,-1,4
166,3.85402,2.658,-1,4
167,3.85668,2.662,-1,4
168,3.85931,2.632,-1,4
169,3.86193,2.623,-1,4
170,3.86451,2.571,-1,4
171,3.86709,2.580,-1,4
172,3.86965,2.563,-1,4
173,3.87220,2.550,-1,4
174,3.87474,2.541,-1,4
175,3.87725,2.511,-1,4
176,3.87976,2.507,-1,4
177,3.88225,2.494,-1,4
178,3.88472,2.472,-1,4
179,3.88716,2.438,-1,4
180,3.88960,2.442,-1,4
181,3.89204,2.433,-1,4
182,3.89444,2.407,-1,4
183,3.89684,2.399,-1,4
184,3.89920,2.356,-1,4
185,3.90156,2.364,-1,4
186,3.90393,2.369,-1,4
187,3.90627,2.338,-1,4
188,3.90858,2.308,-1,4
189,3.91088,2.300,-1,4
190,3.91315,2.274,-1,4
191,3.91541,2.261,-1,4
192,3.91765,2.243,-1,4
193,3.91989,2.239,-1,4
194,3.92210,2.205,-1,4
195,3.92431,2.209,-1,4
196,3.92869,2.187,-1,4
197,3.93082,2.136,-1,4
198,3.93296,2.136,-1,4
199,3.93508,2.123,-1,4
200,3.93717,2.092,-1,4
201,3.93926,2.084,-1,4
202,3.94131,2.058,-1,4
203,3.94338,2.071,-1,4
204,3.94742,2.006,-1,4
205,3.94943,2.010,-1,4
206,3.95142,1.989,-1,4
207,3.95339,1.972,-1,4
208,3.95533,1.941,-1,4
209,3.95727,1.937,-1,4
210,3.95918,1.911,-1,4
211,3.96108,1.898,-1,4
212,3.96295,1.872,-1,4
213,3.96482,1.872,-1,4
214,3.96668,1.855,-1,4
215,3.96851,1.829,-1,4
216,3.97033,1.821,-1,4
217,3.97214,1.816,-1,4
218,3.97393,1.782,-1,4
219,3.97566,1.734,-1,4
220,3.97741,1.752,-1,4
221,3.97914,1.730,-1,4
222,3.98256,1.708,-1,4
223,3.98422,1.657,-1,4
224,3.98589,1.674,-1,4
225,3.98753,1.639,-1,4
226,3.98917,1.639,-1,4
227,3.99076,1.592,-1,4
228,3.99238,1.618,-1,4
229,3.99396,1.575,-1,4
230,3.99554,1.588,-1,4
231,3.99711,1.570,-1,4
232,3.99863,1.514,-1,4
233,4.00015,1.523,-1,4
234,4.00164,1.488,-1,4
235,4.00314,1.501,-1,4
236,4.00462,1.480,-1,4
237,4.00605,1.428,-1,4
238,4.00750,1.454,-1,4
239,4.00894,1.437,-1,4
240,4.01034,1.398,-1,4
241,4.01173,1.394,-1,4
242,4.01312,1.385,-1,4
243,4.01446,1.342,-1,4
244,4.01583,1.372,-1,4
245,4.01716,1.333,-1,4
246,4.01845,1.290,-1,4
247,4.01976,1.303,-1,4
248,4.02104,1.281,-1,4
249,4.02229,1.251,-1,4
250,4.02356,1.268,-1,4
251,4.02479,1.230,-1,4
252,4.02601,1.221,-1,4
253,4.02722,1.208,-1,4
254,4.02839,1.178,-1,4
255,4.02958,1.182,-1,4
256,4.03074,1.161,-1,4
257,4.03186,1.126,-1,4
258,4.03298,1.117,-1,4
259,4.03405,1.074,-1,4
260,4.03515,1.096,-1,4
261,4.03622,1.066,-1,4
262,4.03727,1.057,-1,4
263,4.03832,1.044,-1,4
264,4.03934,1.027,-1,4
265,4.04034,1.001,-1,4
266,4.04133,0.988,-1,4
267,4.04230,0.971,-1,4
268,4.04420,0.936,-1,4
269,4.04512,0.923,-1,4
270,4.04603,0.902,-1,4
271,4.04779,0.867,-1,4
272,4.04865,0.854,-1,4
273,4.04947,0.828,-1,4
274,4.05030,0.824,-1,4
275,4.05110,0.807,-1,4
276,4.05188,0.777,-1,4
277,4.05265,0.768,-1,4
278,4.05340,0.733,-1,4
279,4.05485,0.720,-1,4
280,4.05555,0.703,-1,4
281,4.05555,0.677,-1,4
282,4.05690,0.669,-1,4
283,4.05756,0.660,-1,4
284,4.05819,0.634,-1,4
285,4.05881,0.613,-1,4
286,4.05941,0.591,-1,4
287,4.06056,0.561,-1,4
288,4.06112,0.557,-1,4
289,4.06166,0.544,-1,4
290,4.06217,0.513,-1,4
291,4.06268,0.505,-1,4
292,4.06316,0.479,-1,4
293,4.06364,0.483,-1,4
294,4.06409,0.453,-1,4
295,4.06452,0.427,-1,4
296,4.06494,0.418,-1,4
297,4.06534,0.401,-1,4
298,4.06573,0.388,-1,4
299,4.06610,0.367,-1,4
300,4.06646,0.362,-1,4
301,4.06680,0.341,-1,4
302,4.06711,0.311,-1,4
303,4.06742,0.306,-1,4
304,4.06771,0.289,-1,4
305,4.06797,0.267,-1,4
306,4.06822,0.246,-1,4
307,4.06845,0.233,-1,4
308,4.06868,0.229,-1,4
309,4.06889,0.207,-1,4
310,4.06908,0.190,-1,4
311,4.06925,0.168,-1,4
312,4.06940,0.155,-1,4
313,4.06953,0.134,-1,4
314,4.06966,0.129,-1,4
315,4.06977,0.104,-1,4
316,4.06985,0.086,-1,4
317,4.06992,0.069,-1,4
318,4.06998,0.056,-1,4
319,4.07002,0.039,-1,4
320,4.07004,0.009,-1,4
321,4.07004,-0.013,-1,4
322,4.07003,-0.026,-1,4
323,4.06996,-0.047,-1,4
324,4.06982,-0.073,-1,4
325,4.06973,-0.112,-1,4
326,4.06949,-0.129,-1,4
327,4.06936,-0.129,-1,4
328,4.06921,-0.155,-1,4
329,4.06904,-0.168,-1,4
330,4.06885,-0.190,-1,4
331,4.06864,-0.207,-1,4
332,4.06843,-0.207,-1,4
333,4.06821,-0.229,-1,4
334,4.06796,-0.242,-1,4
335,4.06771,-0.272,-1,4
336,4.06743,-0.272,-1,4
337,4.06715,-0.280,-1,4
338,4.06685,-0.302,-1,4
339,4.06653,-0.324,-1,4
340,4.06619,-0.341,-1,4
341,4.06584,-0.345,-1,4
342,4.06511,-0.375,-1,4
343,4.06472,-0.397,-1,4
344,4.06432,-0.397,-1,4
345,4.06390,-0.423,-1,4
346,4.06346,-0.431,-1,4
347,4.06302,-0.444,-1,4
348,4.06256,-0.457,-1,4
349,4.06208,-0.479,-1,4
350,4.06160,-0.483,-1,4
351,4.06108,-0.518,-1,4
352,4.06057,-0.513,-1,4
353,4.06003,-0.539,-1,4
354,4.05949,-0.544,-1,4
355,4.05893,-0.561,-1,4
356,4.05836,-0.569,-1,4
357,4.05777,-0.591,-1,4
358,4.05715,-0.617,-1,4
359,4.05653,-0.621,-1,4
360,4.05590,-0.626,-1,4
361,4.05526,-0.639,-1,4
362,4.05460,-0.664,-1,4
363,4.05393,-0.664,-1,4
364,4.05324,-0.699,-1,4
365,4.05254,-0.699,-1,4
366,4.05182,-0.716,-1,4
367,4.05109,-0.729,-1,4
368,4.05034,-0.751,-1,4
369,4.04956,-0.777,-1,4
370,4.04880,-0.764,-1,4
371,4.04801,-0.790,-1,4
372,4.04721,-0.798,-1,4
373,4.04639,-0.824,-1,4
374,4.04555,-0.837,-1,4
375,4.04471,-0.837,-1,4
376,4.04383,-0.884,-1,4
377,4.04296,-0.867,-1,4
378,4.04207,-0.889,-1,4
379,4.04117,-0.906,-1,4
380,4.04025,-0.919,-1,4
381,4.03933,-0.919,-1,4
382,4.03838,-0.953,-1,4
383,4.03742,-0.962,-1,4
384,4.03645,-0.966,-1,4
385,4.03545,-0.997,-1,4
386,4.03446,-0.997,-1,4
387,4.03345,-1.001,-1,4
388,4.03243,-1.027,-1,4
389,4.03140,-1.031,-1,4
390,4.03032,-1.074,-1,4
391,4.02927,-1.053,-1,4
392,4.02817,-1.096,-1,4
393,4.02709,-1.079,-1,4
394,4.02598,-1.113,-1,4
395,4.02486,-1.117,-1,4
396,4.02372,-1.148,-1,4
397,4.02255,-1.165,-1,4
398,4.02140,-1.148,-1,4
399,4.02024,-1.169,-1,4
400,4.01787,-1.204,-1,4
401,4.01664,-1.225,-1,4
402,4.01542,-1.217,-1,4
403,4.01417,-1.251,-1,4
404,4.01294,-1.238,-1,4
405,4.01167,-1.268,-1,4
406,4.00910,-1.273,-1,4
407,4.00779,-1.307,-1,4
408,4.00648,-1.312,-1,4
409,4.00515,-1.329,-1,4
410,4.00381,-1.342,-1,4
411,4.00246,-1.355,-1,4
412,4.00109,-1.368,-1,4
413,3.99972,-1.372,-1,4
414,3.99832,-1.398,-1,4
415,3.99692,-1.394,-1,4
416,3.99551,-1.419,-1,4
417,3.99406,-1.441,-1,4
418,3.99262,-1.441,-1,4
419,3.99114,-1.484,-1,4
420,3.98969,-1.450,-1,4
421,3.98820,-1.493,-1,4
422,3.98672,-1.523,-1,4
423,3.98367,-1.527,-1,4
424,3.98215,-1.519,-1,4
425,3.98059,-1.566,-1,4
426,3.97902,-1.562,-1,4
427,3.97745,-1.570,-1,4
428,3.97587,-1.583,-1,4
429,3.97427,-1.596,-1,4
430,3.97266,-1.614,-1,4
431,3.97103,-1.635,-1,4
432,3.96937,-1.657,-1,4
433,3.96773,-1.644,-1,4
434,3.96604,-1.683,-1,4
435,3.96436,-1.687,-1,4
436,3.96265,-1.708,-1,4
437,3.96094,-1.708,-1,4
438,3.95921,-1.730,-1,4
439,3.95747,-1.739,-1,4
440,3.95572,-1.752,-1,4
441,3.95395,-1.765,-1,4
442,3.95217,-1.782,-1,4
443,3.95037,-1.803,-1,4
444,3.94855,-1.821,-1,4
445,3.94673,-1.821,-1,4
446,3.94489,-1.834,-1,4
447,3.94304,-1.855,-1,4
448,3.94116,-1.877,-1,4
449,3.93928,-1.885,-1,4
450,3.93739,-1.885,-1,4
451,3.93549,-1.898,-1,4
452,3.93356,-1.937,-1,4
453,3.93162,-1.933,-1,4
454,3.92967,-1.954,-1,4
455,3.92772,-1.950,-1,4
456,3.92575,-1.972,-1,4
457,3.92374,-2.006,-1,4
458,3.92172,-2.019,-1,4
459,3.91973,-1.993,-1,4
460,3.91770,-2.032,-1,4
461,3.91566,-2.036,-1,4
462,3.91361,-2.054,-1,4
463,3.91154,-2.071,-1,4
464,3.90945,-2.084,-1,4
465,3.90736,-2.092,-1,4
466,3.90525,-2.105,-1,4
467,3.90312,-2.131,-1,4
468,3.90099,-2.131,-1,4
469,3.89885,-2.144,-1,4
470,3.89670,-2.149,-1,4
471,3.89452,-2.174,-1,4
472,3.89015,-2.196,-1,4
473,3.88792,-2.235,-1,4
474,3.88570,-2.218,-1,4
475,3.88348,-2.218,-1,4
476,3.88123,-2.252,-1,4
477,3.87896,-2.265,-1,4
478,3.87669,-2.269,-1,4
479,3.87209,-2.304,-1,4
480,3.86979,-2.308,-1,4
481,3.86745,-2.334,-1,4
482,3.86512,-2.334,-1,4
483,3.86277,-2.351,-1,4
484,3.86040,-2.369,-1,4
485,3.85802,-2.382,-1,4
486,3.85562,-2.394,-1,4
487,3.85321,-2.416,-1,4
488,3.85079,-2.420,-1,4
489,3.84835,-2.438,-1,4
490,3.84591,-2.442,-1,4
491,3.84345,-2.459,-1,4
492,3.84098,-2.472,-1,4
493,3.83849,-2.489,-1,4
494,3.83597,-2.511,-1,4
495,3.83346,-2.515,-1,4
496,3.83094,-2.520,-1,4
497,3.82841,-2.528,-1,4
498,3.82587,-2.545,-1,4
499,3.82326,-2.576,-1,4
500,3.82069,-2.576,-1,4
501,3.81551,-2.602,-1,4
502,3.81290,-2.610,-1,4
503,3.81027,-2.636,-1,4
504,3.80760,-2.666,-1,4
505,3.80495,-2.649,-1,4
506,3.80229,-2.658,-1,4
507,3.79961,-2.688,-1,4
508,3.79691,-2.692,-1,4
509,3.79420,-2.709,-1,4
510,3.79149,-2.714,-1,4
511,3.78875,-2.735,-1,4
512,3.78600,-2.757,-1,4
513,3.78322,-2.783,-1,4
514,3.78045,-2.765,-1,4
515,3.77768,-2.774,-1,4
516,3.77489,-2.787,-1,4
517,3.77207,-2.822,-1,4
518,3.76924,-2.830,-1,4
519,3.76641,-2.830,-1,4
520,3.76357,-2.835,-1,4
521,3.76070,-2.873,-1,4
522,3.75782,-2.882,-1,4
523,3.75492,-2.899,-1,4
524,3.75203,-2.891,-1,4
525,3.74911,-2.912,-1,4
526,3.74619,-2.921,-1,4
527,3.74324,-2.951,-1,4
528,3.74029,-2.951,-1,4
529,3.73732,-2.968,-1,4
530,3.73437,-2.951,-1,4
531,3.73137,-2.998,-1,4
532,3.72837,-3.007,-1,4
533,3.72533,-3.033,-1,4
534,3.72231,-3.020,-1,4
535,3.71928,-3.033,-1,4
536,3.71620,-3.080,-1,4
537,3.71315,-3.055,-1,4
538,3.71006,-3.085,-1,4
539,3.70696,-3.098,-1,4
540,3.70387,-3.093,-1,4
541,3.70073,-3.141,-1,4
542,3.69760,-3.132,-1,4
543,3.69444,-3.154,-1,4
544,3.69130,-3.141,-1,4
545,3.68811,-3.193,-1,4
546,3.68493,-3.175,-1,4
547,3.68173,-3.206,-1,4
548,3.67849,-3.236,-1,4
549,3.67529,-3.206,-1,4
550,3.67203,-3.257,-1,4
551,3.66876,-3.275,-1,4
552,3.66222,-3.266,-1,4
553,3.65892,-3.309,-1,4
554,3.65562,-3.326,-1,4
555,3.64895,-3.348,-1,4
556,3.64561,-3.335,-1,4
557,3.64224,-3.374,-1,4
558,3.63885,-3.387,-1,4
559,3.63549,-3.365,-1,4
560,3.63208,-3.404,-1,4
561,3.62867,-3.413,-1,4
562,3.62182,-3.439,-1,4
563,3.62182,-3.447,-1,4
564,3.61837,-3.447,-1,4
565,3.61494,-3.430,-1,4
566,3.61147,-3.477,-1,4
567,3.60798,-3.482,-1,4
568,3.60446,-3.529,-1,4
569,3.60098,-3.477,-1,4
570,3.59745,-3.542,-1,4
571,3.59036,-3.555,-1,4
572,3.58680,-3.555,-1,4
573,3.58323,-3.568,-1,4
574,3.57964,-3.594,-1,4
575,3.57604,-3.602,-1,4
576,3.57242,-3.615,-1,4
577,3.56879,-3.633,-1,4
578,3.56515,-3.637,-1,4
579,3.56149,-3.659,-1,4
580,3.55785,-3.646,-1,4
581,3.55417,-3.680,-1,4
582,3.55049,-3.680,-1,4
583,3.54682,-3.667,-1,4
584,3.54311,-3.706,-1,4
585,3.53939,-3.728,-1,4
586,3.53566,-3.723,-1,4
587,3.53193,-3.736,-1,4
588,3.52817,-3.753,-1,4
589,3.52439,-3.788,-1,4
590,3.52062,-3.771,-1,4
591,3.51683,-3.784,-1,4
592,3.51303,-3.801,-1,4
593,3.50922,-3.814,-1,4
594,3.50539,-3.831,-1,4
595,3.50154,-3.844,-1,4
596,3.49768,-3.866,-1,4
597,3.49381,-3.866,-1,4
598,3.48994,-3.870,-1,4
599,3.48605,-3.892,-1,4
600,3.48214,-3.913,-1,4
601,3.47820,-3.935,-1,4
602,3.47427,-3.935,-1,4
603,3.47030,-3.965,-1,4
604,3.46638,-3.926,-1,4
605,3.46240,-3.978,-1,4
606,3.45842,-3.982,-1,4
607,3.45443,-3.982,-1,4
608,3.45045,-3.986,-1,4
609,3.44643,-4.017,-1,4
610,3.44241,-4.021,-1,4
611,3.43837,-4.043,-1,4
612,3.43433,-4.034,-1,4
613,3.43028,-4.055,-1,4
614,3.42621,-4.064,-1,4
615,3.42214,-4.077,-1,4
616,3.41806,-4.081,-1,4
617,3.41395,-4.107,-1,4
618,3.40985,-4.103,-1,4
619,3.40573,-4.112,-1,4
620,3.40159,-4.146,-1,4
621,3.39744,-4.146,-1,4
622,3.39328,-4.159,-1,4
623,3.38911,-4.172,-1,4
624,3.38493,-4.185,-1,4
625,3.38074,-4.189,-1,4
626,3.37652,-4.219,-1,4
627,3.37229,-4.228,-1,4
628,3.36805,-4.237,-1,4
629,3.35954,-4.258,-1,4
630,3.35527,-4.275,-1,4
631,3.35099,-4.275,-1,4
632,3.34671,-4.280,-1,4
633,3.34242,-4.297,-1,4
634,3.33810,-4.314,-1,4
635,3.33377,-4.332,-1,4
636,3.32514,-4.323,-1,4
637,3.32078,-4.362,-1,4
638,3.31642,-4.353,-1,4
639,3.31204,-4.383,-1,4
640,3.30766,-4.375,-1,4
641,3.30329,-4.370,-1,4
642,3.29889,-4.405,-1,4
643,3.29448,-4.409,-1,4
644,3.29006,-4.418,-1,4
645,3.28563,-4.431,-1,4
646,3.28120,-4.426,-1,4
647,3.27677,-4.435,-1,4
648,3.27230,-4.465,-1,4
649,3.26784,-4.465,-1,4
650,3.26340,-4.444,-1,4
651,3.25892,-4.478,-1,4
652,3.25445,-4.470,-1,4
653,3.24998,-4.470,-1,4
654,3.24547,-4.508,-1,4
655,3.24098,-4.491,-1,4
656,3.23647,-4.508,-1,4
657,3.23195,-4.517,-1,4
