cnt,pos,speed,Dir,Force,
1,0,1.006,1,5
2,0.00101089,1.018,1,5
3,0.0020504,1.036,1,5
4,0.00311089,1.06,1,5
5,0.00418091,1.075,1,5
6,0.00526047,1.077,1,5
7,0.00635147,1.085,1,5
8,0.00746155,1.11,1,5
9,0.00860023,1.14,1,5
10,0.00975037,1.153,1,5
11,0.0109005,1.153,1,5
12,0.0120716,1.167,1,5
13,0.0132713,1.195,1,5
14,0.0144806,1.217,1,5
15,0.0157013,1.221,1,5
16,0.0169315,1.227,1,5
17,0.0181808,1.254,1,5
18,0.0194702,1.283,1,5
19,0.0207615,1.292,1,5
20,0.0220509,1.294,1,5
21,0.0233612,1.309,1,5
22,0.0247002,1.332,1,5
23,0.0260506,1.357,1,5
24,0.02742,1.374,1,5
25,0.0288105,1.379,1,5
26,0.0301914,1.384,1,5
27,0.031601,1.407,1,5
28,0.0330315,1.437,1,5
29,0.034481,1.452,1,5
30,0.0359402,1.456,1,5
31,0.0374107,1.47,1,5
32,0.0389004,1.488,1,5
33,0.040411,1.509,1,5
34,0.0419312,1.528,1,5
35,0.0434818,1.54,1,5
36,0.0450211,1.546,1,5
37,0.0465908,1.567,1,5
38,0.0481701,1.588,1,5
39,0.0497818,1.607,1,5
40,0.0514011,1.619,1,5
41,0.05303,1.628,1,5
42,0.0546703,1.642,1,5
43,0.0563412,1.667,1,5
44,0.0580311,1.689,1,5
45,0.0597305,1.702,1,5
46,0.0614414,1.71,1,5
47,0.0631618,1.718,1,5
48,0.0649014,1.743,1,5
49,0.0666714,1.772,1,5
50,0.0684605,1.785,1,5
51,0.0702515,1.79,1,5
52,0.0720501,1.797,1,5
53,0.0738602,1.819,1,5
54,0.0757103,1.849,1,5
55,0.0775814,1.868,1,5
56,0.0794506,1.869,1,5
57,0.0813217,1.876,1,5
58,0.0832214,1.895,1,5
59,0.0851517,1.929,1,5
60,0.087101,1.947,1,5
61,0.0890503,1.95,1,5
62,0.0910015,1.955,1,5
63,0.0929718,1.975,1,5
64,0.0949802,2.004,1,5
65,0.0970001,2.024,1,5
66,0.099041,2.031,1,5
67,0.10107,2.035,1,5
68,0.103121,2.053,1,5
69,0.105202,2.078,1,5
70,0.107302,2.102,1,5
71,0.109421,2.111,1,5
72,0.11153,2.114,1,5
73,0.113661,2.132,1,5
74,0.11581,2.153,1,5
75,0.11799,2.175,1,5
76,0.12018,2.189,1,5
77,0.122372,2.198,1,5
78,0.124592,2.21,1,5
79,0.126822,2.231,1,5
80,0.12907,2.253,1,5
81,0.13134,2.266,1,5
82,0.133612,2.278,1,5
83,0.13591,2.29,1,5
84,0.13821,2.309,1,5
85,0.140541,2.326,1,5
86,0.142891,2.349,1,5
87,0.145241,2.352,1,5
88,0.147612,2.371,1,5
89,0.14999,2.385,1,5
90,0.152401,2.404,1,5
91,0.154821,2.424,1,5
92,0.157261,2.437,1,5
93,0.1597,2.442,1,5
94,0.162161,2.461,1,5
95,0.164652,2.484,1,5
96,0.16715,2.497,1,5
97,0.169651,2.508,1,5
98,0.172171,2.522,1,5
99,0.174711,2.537,1,5
100,0.177271,2.554,1,5
101,0.17984,2.574,1,5
102,0.182421,2.584,1,5
103,0.18502,2.596,1,5
104,0.187632,2.614,1,5
105,0.190262,2.629,1,5
106,0.192911,2.649,1,5
107,0.19557,2.66,1,5
108,0.19824,2.67,1,5
109,0.200932,2.69,1,5
110,0.20364,2.711,1,5
111,0.206362,2.717,1,5
112,0.209091,2.734,1,5
113,0.211842,2.75,1,5
114,0.214611,2.764,1,5
115,0.21739,2.781,1,5
116,0.22019,2.796,1,5
117,0.22299,2.806,1,5
118,0.225811,2.821,1,5
119,0.228651,2.841,1,5
120,0.23151,2.855,1,5
121,0.234381,2.868,1,5
122,0.237261,2.882,1,5
123,0.24016,2.897,1,5
124,0.243071,2.916,1,5
125,0.246,2.929,1,5
126,0.248951,2.946,1,5
127,0.251902,2.958,1,5
128,0.254881,2.973,1,5
129,0.257872,2.993,1,5
130,0.260881,3.007,1,5
131,0.263901,3.019,1,5
132,0.266932,3.037,1,5
133,0.269991,3.052,1,5
134,0.27305,3.066,1,5
135,0.276131,3.081,1,5
136,0.27923,3.097,1,5
137,0.282341,3.114,1,5
138,0.285471,3.126,1,5
139,0.28861,3.14,1,5
140,0.291771,3.157,1,5
141,0.294941,3.171,1,5
142,0.29813,3.187,1,5
143,0.301331,3.2,1,5
144,0.304541,3.215,1,5
145,0.307772,3.232,1,5
146,0.311022,3.247,1,5
147,0.314281,3.261,1,5
148,0.31756,3.274,1,5
149,0.320841,3.286,1,5
150,0.32415,3.305,1,5
151,0.327461,3.317,1,5
152,0.330801,3.335,1,5
153,0.334141,3.346,1,5
154,0.337502,3.36,1,5
155,0.340881,3.372,1,5
156,0.344261,3.388,1,5
157,0.34766,3.401,1,5
158,0.351082,3.417,1,5
159,0.354511,3.43,1,5
160,0.357962,3.445,1,5
161,0.361422,3.464,1,5
162,0.364901,3.479,1,5
163,0.368391,3.492,1,5
164,0.371901,3.506,1,5
165,0.375422,3.521,1,5
166,0.37895,3.538,1,5
167,0.382511,3.554,1,5
168,0.386082,3.568,1,5
169,0.389662,3.583,1,5
170,0.393261,3.598,1,5
171,0.396872,3.614,1,5
172,0.400501,3.63,1,5
173,0.40414,3.64,1,5
174,0.407801,3.66,1,5
175,0.411482,3.674,1,5
176,0.415171,3.69,1,5
177,0.418871,3.701,1,5
178,0.42259,3.721,1,5
179,0.426321,3.731,1,5
180,0.430071,3.748,1,5
181,0.43383,3.758,1,5
182,0.437601,3.776,1,5
183,0.441391,3.791,1,5
184,0.4452,3.805,1,5
185,0.44902,3.817,1,5
186,0.45285,3.83,1,5
187,0.456692,3.844,1,5
188,0.46055,3.858,1,5
189,0.464432,3.877,1,5
190,0.468321,3.892,1,5
191,0.472221,3.903,1,5
192,0.476141,3.917,1,5
193,0.48007,3.936,1,5
194,0.48402,3.947,1,5
195,0.487982,3.965,1,5
196,0.491961,3.977,1,5
197,0.49596,3.993,1,5
198,0.499962,4.007,1,5
199,0.50399,4.024,1,5
200,0.50802,4.038,1,5
201,0.512081,4.055,1,5
202,0.51614,4.064,1,5
203,0.520222,4.084,1,5
204,0.52433,4.1,1,5
205,0.52844,4.114,1,5
206,0.532572,4.126,1,5
207,0.536701,4.138,1,5
208,0.540861,4.159,1,5
209,0.54504,4.174,1,5
210,0.549221,4.187,1,5
211,0.553421,4.198,1,5
212,0.55764,4.217,1,5
213,0.561871,4.229,1,5
214,0.56612,4.251,1,5
215,0.570381,4.261,1,5
216,0.574652,4.273,1,5
217,0.578941,4.287,1,5
218,0.583241,4.305,1,5
219,0.587561,4.318,1,5
220,0.591902,4.336,1,5
221,0.596251,4.346,1,5
222,0.600601,4.356,1,5
223,0.604971,4.372,1,5
224,0.609362,4.391,1,5
225,0.613771,4.404,1,5
226,0.618191,4.418,1,5
227,0.622622,4.433,1,5
228,0.627071,4.446,1,5
229,0.631531,4.462,1,5
230,0.636011,4.477,1,5
231,0.640501,4.493,1,5
232,0.645,4.505,1,5
233,0.64953,4.523,1,5
234,0.65406,4.535,1,5
235,0.658611,4.549,1,5
236,0.663172,4.561,1,5
237,0.667751,4.576,1,5
238,0.67234,4.591,1,5
239,0.67695,4.609,1,5
240,0.68157,4.62,1,5
241,0.686201,4.632,1,5
242,0.690851,4.647,1,5
243,0.695511,4.662,1,5
244,0.700191,4.678,1,5
245,0.704882,4.693,1,5
246,0.709591,4.71,1,5
247,0.714312,4.72,1,5
248,0.719042,4.734,1,5
249,0.723791,4.748,1,5
250,0.728561,4.766,1,5
251,0.733341,4.781,1,5
252,0.73814,4.797,1,5
253,0.742941,4.806,1,5
254,0.747761,4.819,1,5
255,0.752602,4.836,1,5
256,0.75745,4.854,1,5
257,0.762321,4.875,1,5
258,0.76721,4.889,1,5
259,0.77211,4.896,1,5
260,0.777021,4.909,1,5
261,0.78195,4.928,1,5
262,0.78689,4.947,1,5
263,0.791851,4.961,1,5
264,0.796822,4.971,1,5
265,0.801811,4.983,1,5
266,0.80681,4.997,1,5
267,0.811821,5.015,1,5
268,0.816851,5.031,1,5
269,0.821892,5.043,1,5
270,0.82695,5.054,1,5
271,0.832022,5.069,1,5
272,0.837111,5.087,1,5
273,0.842211,5.104,1,5
274,0.847321,5.115,1,5
275,0.852451,5.128,1,5
276,0.857592,5.143,1,5
277,0.862751,5.157,1,5
278,0.867922,5.171,1,5
279,0.8731,5.184,1,5
280,0.878302,5.201,1,5
281,0.883511,5.209,1,5
282,0.888741,5.222,1,5
283,0.89397,5.235,1,5
284,0.899221,5.252,1,5
285,0.904491,5.267,1,5
286,0.909771,5.28,1,5
287,0.91506,5.292,1,5
288,0.92037,5.306,1,5
289,0.925692,5.321,1,5
290,0.93103,5.337,1,5
291,0.93638,5.354,1,5
292,0.94174,5.364,1,5
293,0.947121,5.377,1,5
294,0.952511,5.391,1,5
295,0.95792,5.41,1,5
296,0.96335,5.427,1,5
297,0.96879,5.442,1,5
298,0.974241,5.449,1,5
299,0.9797,5.463,1,5
300,0.985182,5.48,1,5
301,0.99069,5.504,1,5
302,0.996201,5.516,1,5
303,1.00173,5.524,1,5
304,1.00726,5.533,1,5
305,1.01281,5.548,1,5
306,1.01838,5.572,1,5
307,1.02397,5.588,1,5
308,1.02956,5.588,1,5
309,1.03516,5.598,1,5
310,1.04078,5.622,1,5
311,1.04642,5.639,1,5
312,1.05207,5.655,1,5
313,1.05773,5.661,1,5
314,1.06341,5.677,1,5
315,1.0691,5.695,1,5
316,1.07482,5.715,1,5
317,1.08054,5.719,1,5
318,1.08627,5.731,1,5
319,1.09202,5.745,1,5
320,1.09778,5.762,1,5
321,1.10356,5.783,1,5
322,1.10935,5.794,1,5
323,1.11515,5.8,1,5
324,1.12097,5.813,1,5
325,1.1268,5.836,1,5
326,1.13265,5.852,1,5
327,1.13852,5.864,1,5
328,1.14439,5.872,1,5
329,1.15028,5.884,1,5
330,1.15618,5.904,1,5
331,1.1621,5.924,1,5
332,1.16803,5.933,1,5
333,1.17398,5.942,1,5
334,1.17993,5.953,1,5
335,1.1859,5.972,1,5
336,1.1919,5.999,1,5
337,1.19791,6.011,1,5
338,1.20393,6.014,1,5
339,1.20995,6.024,1,5
340,1.21599,6.045,1,5
341,1.22206,6.063,1,5
342,1.22813,6.076,1,5
343,1.23422,6.082,1,5
344,1.24031,6.094,1,5
345,1.24642,6.113,1,5
346,1.25255,6.132,1,5
347,1.2587,6.146,1,5
348,1.26486,6.154,1,5
349,1.27102,6.167,1,5
350,1.27721,6.188,1,5
351,1.28341,6.199,1,5
352,1.28963,6.217,1,5
353,1.29585,6.222,1,5
354,1.30208,6.235,1,5
355,1.30834,6.252,1,5
356,1.3146,6.267,1,5
357,1.32088,6.278,1,5
358,1.32717,6.293,1,5
359,1.33348,6.309,1,5
360,1.3398,6.323,1,5
361,1.34614,6.337,1,5
362,1.35249,6.35,1,5
363,1.35886,6.368,1,5
364,1.36524,6.38,1,5
365,1.37164,6.398,1,5
366,1.37804,6.406,1,5
367,1.38446,6.42,1,5
368,1.3909,6.436,1,5
369,1.39735,6.45,1,5
370,1.40382,6.468,1,5
371,1.4103,6.485,1,5
372,1.4168,6.494,1,5
373,1.4233,6.508,1,5
374,1.42983,6.526,1,5
375,1.43637,6.536,1,5
376,1.44292,6.553,1,5
377,1.44949,6.566,1,5
378,1.45606,6.578,1,5
379,1.46265,6.59,1,5
380,1.46926,6.61,1,5
381,1.47589,6.624,1,5
382,1.48253,6.64,1,5
383,1.48918,6.651,1,5
384,1.49585,6.666,1,5
385,1.50252,6.679,1,5
386,1.50921,6.69,1,5
387,1.51592,6.707,1,5
388,1.52264,6.722,1,5
389,1.52937,6.732,1,5
390,1.53612,6.744,1,5
391,1.54288,6.762,1,5
392,1.54966,6.775,1,5
393,1.55645,6.793,1,5
394,1.56326,6.808,1,5
395,1.57008,6.819,1,5
396,1.57691,6.83,1,5
397,1.58375,6.847,1,5
398,1.59062,6.862,1,5
399,1.59749,6.875,1,5
400,1.60437,6.885,1,5
401,1.61128,6.902,1,5
402,1.61819,6.916,1,5
403,1.62512,6.931,1,5
404,1.63207,6.947,1,5
405,1.63903,6.96,1,5
406,1.646,6.971,1,5
407,1.65299,6.983,1,5
408,1.65998,6.998,1,5
409,1.667,7.012,1,5
410,1.67402,7.028,1,5
411,1.68106,7.039,1,5
412,1.68812,7.054,1,5
413,1.69518,7.067,1,5
414,1.70227,7.086,1,5
415,1.70937,7.097,1,5
416,1.71647,7.108,1,5
417,1.72359,7.117,1,5
418,1.73072,7.131,1,5
419,1.73787,7.148,1,5
420,1.74503,7.161,1,5
421,1.7522,7.17,1,5
422,1.75939,7.184,1,5
423,1.76659,7.214,1,5
424,1.78103,7.228,1,5
425,1.78827,7.241,1,5
426,1.79553,7.256,1,5
427,1.80279,7.266,1,5
428,1.81008,7.285,1,5
429,1.81737,7.295,1,5
430,1.82469,7.312,1,5
431,1.83935,7.342,1,5
432,1.84671,7.362,1,5
433,1.85409,7.375,1,5
434,1.86147,7.379,1,5
435,1.86886,7.391,1,5
436,1.88369,7.422,1,5
437,1.89113,7.434,1,5
438,1.89857,7.445,1,5
439,1.90604,7.466,1,5
440,1.91352,7.481,1,5
441,1.92101,7.495,1,5
442,1.92851,7.501,1,5
443,1.93603,7.516,1,5
444,1.9511,7.544,1,5
445,1.95866,7.557,1,5
446,1.96623,7.579,1,5
447,1.9738,7.579,1,5
448,1.9814,7.593,1,5
449,1.98901,7.616,1,5
450,1.99664,7.626,1,5
451,2.00427,7.634,1,5
452,2.01959,7.665,1,5
453,2.02726,7.694,1,5
454,2.04266,7.709,1,5
455,2.05039,7.727,1,5
456,2.05813,7.737,1,5
457,2.06588,7.752,1,5
458,2.07365,7.764,1,5
459,2.08142,7.778,1,5
460,2.08921,7.79,1,5
461,2.10484,7.826,1,5
462,2.11269,7.842,1,5
463,2.12054,7.85,1,5
464,2.1284,7.865,1,5
465,2.13629,7.884,1,5
466,2.14418,7.894,1,5
467,2.15209,7.909,1,5
468,2.16001,7.92,1,5
469,2.16795,7.936,1,5
470,2.17589,7.946,1,5
471,2.19184,7.979,1,5
472,2.19983,7.994,1,5
473,2.20783,8.016,1,5
474,2.21585,8.036,1,5
475,2.22389,8.036,1,5
476,2.23194,8.05,1,5
477,2.24806,8.069,1,5
478,2.25615,8.087,1,5
479,2.26425,8.102,1,5
480,2.27237,8.119,1,5
481,2.2805,8.13,1,5
482,2.28864,8.149,1,5
483,2.30496,8.166,1,5
484,2.30496,8.178,1,5
485,2.31314,8.178,1,5
486,2.32954,8.208,1,5
487,2.33776,8.225,1,5
488,2.346,8.252,1,5
489,2.35425,8.263,1,5
490,2.37079,8.274,1,5
491,2.37908,8.293,1,5
492,2.38739,8.308,1,5
493,2.39571,8.318,1,5
494,2.40404,8.332,1,5
495,2.42074,8.359,1,5
496,2.42912,8.374,1,5
497,2.43751,8.387,1,5
498,2.44591,8.403,1,5
499,2.45432,8.413,1,5
500,2.46275,8.428,1,5
501,2.47119,8.442,1,5
502,2.47965,8.458,1,5
503,2.48812,8.468,1,5
504,2.4966,8.478,1,5
505,2.5136,8.506,1,5
506,2.52211,8.518,1,5
507,2.53065,8.53,1,5
508,2.5392,8.548,1,5
509,2.54776,8.561,1,5
510,2.55633,8.578,1,5
511,2.56492,8.587,1,5
512,2.57352,8.602,1,5
513,2.58213,8.612,1,5
514,2.59076,8.625,1,5
515,2.59939,8.636,1,5
516,2.60805,8.654,1,5
517,2.61671,8.662,1,5
518,2.62539,8.676,1,5
519,2.63408,8.689,1,5
520,2.64278,8.703,1,5
521,2.6515,8.723,1,5
522,2.66024,8.733,1,5
523,2.66898,8.744,1,5
524,2.67774,8.755,1,5
525,2.68651,8.777,1,5
526,2.69531,8.794,1,5
527,2.70412,8.811,1,5
528,2.71293,8.816,1,5
529,2.72176,8.828,1,5
530,2.7306,8.839,1,5
531,2.73946,8.86,1,5
532,2.74833,8.874,1,5
533,2.75722,8.888,1,5
534,2.76612,8.895,1,5
535,2.77503,8.912,1,5
536,2.78395,8.925,1,5
537,2.79289,8.933,1,5
538,2.80184,8.948,1,5
539,2.8108,8.963,1,5
540,2.81977,8.974,1,5
541,2.82876,8.991,1,5
542,2.83778,9.01,1,5
543,2.84679,9.018,1,5
544,2.86487,9.047,1,5
545,2.87393,9.062,1,5
546,2.88301,9.075,1,5
547,2.8921,9.094,1,5
548,2.90121,9.106,1,5
549,2.91033,9.121,1,5
550,2.91946,9.133,1,5
551,2.93777,9.163,1,5
552,2.94695,9.18,1,5
553,2.95614,9.19,1,5
554,2.96534,9.204,1,5
555,2.97457,9.226,1,5
556,2.98381,9.234,1,5
557,2.99305,9.259,1,5
558,3.01159,9.274,1,5
559,3.02087,9.3,1,5
560,3.03017,9.3,1,5
561,3.03948,9.313,1,5
562,3.04882,9.333,1,5
563,3.05816,9.345,1,5
564,3.07689,9.366,1,5
565,3.08626,9.377,1,5
566,3.09566,9.396,1,5
567,3.10507,9.428,1,5
568,3.12394,9.439,1,5
569,3.13339,9.452,1,5
570,3.14286,9.461,1,5
571,3.15233,9.485,1,5
572,3.17132,9.505,1,5
573,3.18084,9.518,1,5
574,3.19037,9.535,1,5
575,3.19992,9.544,1,5
576,3.20948,9.561,1,5
577,3.22863,9.584,1,5
578,3.23823,9.596,1,5
579,3.24784,9.609,1,5
580,3.25747,9.632,1,5
581,3.26711,9.648,1,5
582,3.27677,9.655,1,5
583,3.28644,9.667,1,5
584,3.29612,9.683,1,5
585,3.30581,9.692,1,5
586,3.32525,9.725,1,5
587,3.33499,9.74,1,5
588,3.34474,9.75,1,5
589,3.3545,9.763,1,5
590,3.36427,9.769,1,5
591,3.37405,9.787,1,5
592,3.38385,9.8,1,5
593,3.39367,9.815,1,5
594,3.41335,9.846,1,5
595,3.4232,9.85,1,5
596,3.43306,9.859,1,5
597,3.44294,9.879,1,5
598,3.45283,9.892,1,5
599,3.46274,9.909,1,5
600,3.47266,9.914,1,5
601,3.48259,9.93,1,5
602,3.49253,9.945,1,5
603,3.50249,9.965,1,5
604,3.52245,9.985,1,5
605,3.53245,9.995,1,5
606,3.54247,10.02,1,5
607,3.5525,10.035,1,5
608,3.56255,10.043,1,5
609,3.5726,10.051,1,5
610,3.58266,10.061,1,5
611,3.59273,10.075,1,5
612,3.60283,10.094,1,5
613,3.62306,10.114,1,5
614,3.63318,10.122,1,5
615,3.64331,10.132,1,5
616,3.65346,10.152,1,5
617,3.66363,10.162,1,5
618,3.6738,10.176,1,5
619,3.68399,10.184,1,5
620,3.69419,10.2,1,5
621,3.70439,10.209,1,5
622,3.71462,10.223,1,5
623,3.72484,10.228,1,5
624,3.74534,10.26,1,5
625,3.75562,10.274,1,5
626,3.76589,10.275,1,5
627,3.77617,10.279,1,5
628,3.78647,10.294,1,5
629,3.79677,10.301,1,5
630,3.80708,10.326,1,5
631,3.82775,10.341,1,5
632,3.83809,10.342,1,5
633,3.84844,10.349,1,5
634,3.85879,10.36,1,5
635,3.87951,10.367,1,5
636,3.88989,10.373,1,5
637,3.88989,10.388,1,5
638,3.91067,10.394,1,5
639,3.92107,10.397,1,5
640,3.93147,10.411,1,5
641,3.94188,10.411,1,5
642,3.95229,10.414,1,5
643,3.96272,10.427,1,5
644,3.98358,10.437,1,5
645,3.99402,10.437,1,5
646,4.00446,10.444,1,5
647,4.0149,10.441,1,5
648,4.02535,10.446,1,5
649,4.03579,10.444,1,5
650,4.0567,10.456,1,5
651,4.06716,10.46,1,5
652,4.07763,10.474,1,5
653,4.08812,10.486,1,5
654,4.09861,10.487,1,5
655,4.1091,10.492,1,5
656,4.1196,10.502,1,5
657,4.1301,10.506,1,5
658,4.15111,10.505,1,5
659,4.16162,10.509,1,5
660,4.17213,10.51,1,5
661,4.18265,10.518,1,5
662,4.19317,10.519,1,5
663,4.2037,10.529,1,5
664,4.21423,10.533,1,5
665,4.22477,10.54,1,5
666,4.23531,10.539,1,5
667,4.24585,10.546,1,5
668,4.26695,10.55,1,5
669,4.27749,10.544,1,5
670,4.28803,10.537,1,5
671,4.29857,10.543,1,5
672,4.30911,10.541,1,5
673,4.31966,10.545,1,5
674,4.3302,10.546,1,5
675,4.35131,10.555,1,5
676,4.36188,10.565,1,5
677,4.37244,10.564,1,5
678,4.38301,10.567,1,5
679,4.39357,10.567,1,5
680,4.40414,10.567,1,5
681,4.41472,10.575,1,5
682,4.42529,10.577,1,5
683,4.43587,10.572,1,5
684,4.44644,10.57,1,5
685,4.45701,10.575,1,5
686,4.47816,10.574,1,5
687,4.48873,10.572,1,5
688,4.4993,10.574,1,5
689,4.50987,10.57,1,5
690,4.52044,10.572,1,5
691,4.53101,10.566,1,5
692,4.54158,10.566,1,5
693,4.55213,10.557,1,5
694,4.57323,10.546,1,5
695,4.58378,10.544,1,5
696,4.59433,10.548,1,5
697,4.60488,10.553,1,5
698,4.61542,10.547,1,5
699,4.62597,10.545,1,5
700,4.63652,10.552,1,5
701,4.64707,10.551,1,5
702,4.65762,10.547,1,5
703,4.67872,10.548,1,5
704,4.68927,10.545,1,5
705,4.69981,10.547,1,5
706,4.71036,10.544,1,5
707,4.7209,10.547,1,5
708,4.73144,10.543,1,5
709,4.74199,10.544,1,5
710,4.75252,10.536,1,5
711,4.76306,10.531,1,5
712,4.77359,10.535,1,5
713,4.78413,10.536,1,5
714,4.79465,10.525,1,5
715,4.80517,10.518,1,5
716,4.82621,10.514,1,5
717,4.83672,10.515,1,5
718,4.84723,10.511,1,5
719,4.85775,10.516,1,5
720,4.86826,10.513,1,5
721,4.87877,10.512,1,5
722,4.88928,10.505,1,5
723,4.89978,10.501,1,5
724,4.91027,10.491,1,5
725,4.92075,10.483,1,5
726,4.93124,10.487,1,5
727,4.9522,10.479,1,5
728,4.96268,10.477,1,5
729,4.97316,10.483,1,5
730,4.98365,10.481,1,5
731,4.99414,10.493,1,5
732,5.00465,10.507,1,5
733,5.01517,10.525,1,5
734,5.03623,10.53,1,5
735,5.04675,10.522,1,5
736,5.05727,10.518,1,5
737,5.06777,10.506,1,5
738,5.07827,10.499,1,5
739,5.08876,10.485,1,5
740,5.09923,10.475,1,5
741,5.10971,10.471,1,5
742,5.13064,10.462,1,5
743,5.1411,10.462,1,5
744,5.15157,10.472,1,5
745,5.16205,10.475,1,5
746,5.17253,10.483,1,5
747,5.18301,10.48,1,5
748,5.20397,10.475,1,5
749,5.21444,10.464,1,5
750,5.22491,10.464,1,5
751,5.23537,10.459,1,5
752,5.24582,10.45,1,5
753,5.25626,10.445,1,5
754,5.2667,10.435,1,5
755,5.27712,10.428,1,5
756,5.29799,10.432,1,5
757,5.30841,10.422,1,5
758,5.32925,10.423,1,5
759,5.33967,10.417,1,5
760,5.35009,10.418,1,5
761,5.3605,10.412,1,5
762,5.37091,10.413,1,5
763,5.38132,10.407,1,5
764,5.39172,10.408,1,5
765,5.41254,10.406,1,5
766,5.42294,10.398,1,5
767,5.43333,10.393,1,5
768,5.44372,10.39,1,5
769,5.4541,10.385,1,5
770,5.46447,10.369,1,5
771,5.47483,10.357,1,5
772,5.48519,10.359,1,5
773,5.50589,10.348,1,5
774,5.51622,10.34,1,5
775,5.52657,10.34,1,5
776,5.5369,10.333,1,5
777,5.54723,10.334,1,5
778,5.55756,10.332,1,5
779,5.5679,10.334,1,5
780,5.57823,10.332,1,5
781,5.58856,10.331,1,5
782,5.59889,10.32,1,5
783,5.61952,10.32,1,5
784,5.62985,10.321,1,5
785,5.64015,10.308,1,5
786,5.65045,10.297,1,5
787,5.66075,10.291,1,5
788,5.67104,10.291,1,5
789,5.68133,10.289,1,5
790,5.70189,10.281,1,5
791,5.71217,10.275,1,5
792,5.72244,10.274,1,5
793,5.73271,10.266,1,5
794,5.74298,10.266,1,5
795,5.75324,10.26,1,5
796,5.77375,10.256,1,5
797,5.77375,10.254,1,5
798,5.78401,10.254,1,5
799,5.80453,10.266,1,5
800,5.8148,10.265,1,5
801,5.82506,10.266,1,5
802,5.83533,10.26,1,5
803,5.85585,10.26,1,5
804,5.8661,10.252,1,5
805,5.87635,10.251,1,5
806,5.88659,10.242,1,5
807,5.89683,10.241,1,5
808,5.90707,10.236,1,5
809,5.91731,10.238,1,5
810,5.93778,10.236,1,5
811,5.94801,10.233,1,5
812,5.95824,10.227,1,5
813,5.96847,10.23,1,5
814,5.97869,10.226,1,5
815,5.98892,10.225,1,5
816,5.99914,10.219,1,5
817,6.01956,10.211,1,5
818,6.02978,10.213,1,5
819,6.03999,10.21,1,5
820,6.0502,10.213,1,5
821,6.06041,10.212,1,5
822,6.07063,10.213,1,5
823,6.08083,10.207,1,5
824,6.09104,10.208,1,5
825,6.10124,10.201,1,5
826,6.12163,10.191,1,5
827,6.13182,10.186,1,5
828,6.14201,10.188,1,5
829,6.1522,10.187,1,5
830,6.16237,10.177,1,5
831,6.17254,10.172,1,5
832,6.18272,10.175,1,5
833,6.19289,10.171,1,5
834,6.20306,10.166,1,5
835,6.2234,10.168,1,5
836,6.23356,10.164,1,5
837,6.24373,10.167,1,5
838,6.25389,10.166,1,5
839,6.26406,10.169,1,5
840,6.27423,10.166,1,5
841,6.29455,10.162,1,5
842,6.29455,10.162,1,5
843,6.31486,10.144,1,5
844,6.32499,10.135,1,5
845,6.33513,10.137,1,5
846,6.34526,10.129,1,5
847,6.35538,10.127,1,5
848,6.36551,10.123,1,5
849,6.37563,10.125,1,5
850,6.38575,10.118,1,5
851,6.39587,10.122,1,5
852,6.40599,10.118,1,5
853,6.41611,10.122,1,5
854,6.43635,10.122,1,5
855,6.44647,10.119,1,5
856,6.45659,10.114,1,5
857,6.4667,10.116,1,5
858,6.48693,10.108,1,5
859,6.49703,10.1,1,5
860,6.50713,10.105,1,5
861,6.51723,10.095,1,5
862,6.52732,10.095,1,5
863,6.54749,10.084,1,5
864,6.55757,10.078,1,5
865,6.56765,10.078,1,5
866,6.57772,10.071,1,5
867,6.58779,10.072,1,5
868,6.59786,10.067,1,5
869,6.60793,10.07,1,5
870,6.61799,10.066,1,5
871,6.63813,10.072,1,5
872,6.64821,10.078,1,5
873,6.65828,10.073,1,5
874,6.66836,10.074,1,5
875,6.67844,10.081,1,5
876,6.68852,10.08,1,5
877,6.6986,10.083,1,5
878,6.70868,10.083,1,5
879,6.71877,10.081,1,5
880,6.72884,10.078,1,5
881,6.74899,10.071,1,5
882,6.75906,10.069,1,5
883,6.76912,10.065,1,5
884,6.77918,10.057,1,5
885,6.78924,10.062,1,5
886,6.7993,10.063,1,5
887,6.80936,10.056,1,5
888,6.82947,10.057,1,5
889,6.83953,10.058,1,5
890,6.84959,10.059,1,5
891,6.85964,10.055,1,5
892,6.8697,10.057,1,5
893,6.87975,10.053,1,5
894,6.88981,10.056,1,5
