cnt,pos,speed,Dir,Force,
1,0,1.031,1,4
2,0.00102997,1.031,1,4
3,0.00206947,1.042,1,4
4,0.00312042,1.048,1,4
5,0.00418091,1.06,1,4
6,0.00526047,1.078,1,4
7,0.00634956,1.092,1,4
8,0.0074501,1.097,1,4
9,0.00855064,1.104,1,4
10,0.00967026,1.121,1,4
11,0.0108109,1.142,1,4
12,0.0119705,1.155,1,4
13,0.0131302,1.159,1,4
14,0.0142994,1.166,1,4
15,0.01548,1.18,1,4
16,0.0166702,1.198,1,4
17,0.0178909,1.214,1,4
18,0.0191193,1.227,1,4
19,0.0203495,1.231,1,4
20,0.0215797,1.238,1,4
21,0.022831,1.246,1,4
22,0.0240993,1.269,1,4
23,0.0253811,1.286,1,4
24,0.02668,1.297,1,4
25,0.0279808,1.302,1,4
26,0.0292892,1.309,1,4
27,0.030611,1.322,1,4
28,0.03195,1.337,1,4
29,0.0333004,1.354,1,4
30,0.0346699,1.369,1,4
31,0.0360508,1.376,1,4
32,0.0374298,1.381,1,4
33,0.0388203,1.393,1,4
34,0.0402393,1.412,1,4
35,0.0416603,1.427,1,4
36,0.0431004,1.443,1,4
37,0.0445595,1.452,1,4
38,0.046011,1.456,1,4
39,0.0474796,1.467,1,4
40,0.0489693,1.486,1,4
41,0.0504704,1.501,1,4
42,0.051981,1.517,1,4
43,0.0535107,1.525,1,4
44,0.0550404,1.532,1,4
45,0.0565796,1.539,1,4
46,0.0581398,1.558,1,4
47,0.059721,1.577,1,4
48,0.0613003,1.589,1,4
49,0.0629005,1.596,1,4
50,0.0645008,1.603,1,4
51,0.0661201,1.616,1,4
52,0.0677509,1.634,1,4
53,0.0694008,1.649,1,4
54,0.0710602,1.656,1,4
55,0.0727196,1.663,1,4
56,0.0743999,1.678,1,4
57,0.0760899,1.693,1,4
58,0.0778008,1.707,1,4
59,0.0795097,1.715,1,4
60,0.0812397,1.725,1,4
61,0.0829792,1.739,1,4
62,0.0847301,1.753,1,4
63,0.0865002,1.767,1,4
64,0.0882702,1.771,1,4
65,0.0900593,1.786,1,4
66,0.0918598,1.802,1,4
67,0.0936794,1.819,1,4
68,0.0955009,1.823,1,4
69,0.0973396,1.834,1,4
70,0.0991802,1.848,1,4
71,0.101049,1.863,1,4
72,0.102921,1.875,1,4
73,0.104811,1.885,1,4
74,0.106701,1.896,1,4
75,0.10861,1.909,1,4
76,0.110531,1.922,1,4
77,0.112471,1.933,1,4
78,0.11441,1.944,1,4
79,0.116369,1.957,1,4
80,0.11833,1.967,1,4
81,0.12031,1.979,1,4
82,0.122311,1.993,1,4
83,0.12431,2.006,1,4
84,0.126329,2.015,1,4
85,0.128349,2.024,1,4
86,0.13039,2.04,1,4
87,0.132441,2.051,1,4
88,0.13451,2.064,1,4
89,0.13658,2.071,1,4
90,0.13866,2.088,1,4
91,0.14076,2.099,1,4
92,0.14287,2.11,1,4
93,0.144991,2.121,1,4
94,0.147131,2.133,1,4
95,0.149271,2.146,1,4
96,0.15143,2.158,1,4
97,0.153601,2.171,1,4
98,0.155781,2.18,1,4
99,0.15798,2.194,1,4
100,0.160181,2.205,1,4
101,0.162399,2.219,1,4
102,0.164631,2.228,1,4
103,0.16687,2.24,1,4
104,0.169121,2.252,1,4
105,0.171391,2.266,1,4
106,0.17366,2.277,1,4
107,0.175951,2.287,1,4
108,0.178249,2.298,1,4
109,0.180561,2.311,1,4
110,0.18288,2.321,1,4
111,0.185209,2.332,1,4
112,0.187561,2.347,1,4
113,0.189911,2.354,1,4
114,0.19228,2.366,1,4
115,0.19466,2.378,1,4
116,0.19705,2.391,1,4
117,0.19945,2.403,1,4
118,0.20186,2.413,1,4
119,0.20429,2.423,1,4
120,0.20672,2.435,1,4
121,0.209169,2.45,1,4
122,0.21163,2.46,1,4
123,0.2141,2.469,1,4
124,0.216579,2.479,1,4
125,0.21908,2.497,1,4
126,0.221581,2.505,1,4
127,0.224091,2.515,1,4
128,0.22662,2.528,1,4
129,0.22916,2.539,1,4
130,0.23171,2.55,1,4
131,0.23427,2.563,1,4
132,0.236851,2.574,1,4
133,0.239441,2.586,1,4
134,0.242029,2.596,1,4
135,0.24464,2.608,1,4
136,0.247261,2.619,1,4
137,0.249889,2.633,1,4
138,0.252531,2.642,1,4
139,0.25519,2.654,1,4
140,0.257851,2.662,1,4
141,0.260521,2.675,1,4
142,0.26321,2.69,1,4
143,0.265909,2.701,1,4
144,0.268631,2.708,1,4
145,0.271339,2.718,1,4
146,0.27408,2.734,1,4
147,0.276819,2.746,1,4
148,0.279581,2.757,1,4
149,0.282351,2.767,1,4
150,0.28512,2.776,1,4
151,0.28791,2.788,1,4
152,0.29071,2.805,1,4
153,0.29353,2.813,1,4
154,0.29635,2.826,1,4
155,0.299181,2.831,1,4
156,0.302031,2.846,1,4
157,0.30489,2.861,1,4
158,0.30776,2.867,1,4
159,0.31064,2.882,1,4
160,0.31353,2.893,1,4
161,0.316431,2.901,1,4
162,0.319349,2.913,1,4
163,0.322281,2.93,1,4
164,0.325211,2.938,1,4
165,0.328159,2.95,1,4
166,0.331131,2.962,1,4
167,0.334101,2.971,1,4
168,0.33708,2.982,1,4
169,0.340071,2.996,1,4
170,0.343081,3.007,1,4
171,0.3461,3.019,1,4
172,0.349131,3.029,1,4
173,0.352171,3.042,1,4
174,0.355221,3.051,1,4
175,0.35829,3.061,1,4
176,0.361361,3.075,1,4
177,0.36445,3.09,1,4
178,0.36755,3.099,1,4
179,0.370661,3.108,1,4
180,0.373779,3.118,1,4
181,0.376909,3.132,1,4
182,0.380051,3.145,1,4
183,0.383209,3.158,1,4
184,0.386379,3.17,1,4
185,0.389561,3.177,1,4
186,0.39275,3.19,1,4
187,0.39595,3.201,1,4
188,0.39916,3.214,1,4
189,0.40239,3.228,1,4
190,0.40563,3.236,1,4
191,0.408871,3.248,1,4
192,0.41213,3.26,1,4
193,0.415411,3.271,1,4
194,0.41869,3.282,1,4
195,0.42198,3.295,1,4
196,0.425291,3.304,1,4
197,0.4286,3.313,1,4
198,0.431921,3.326,1,4
199,0.435261,3.338,1,4
200,0.43861,3.35,1,4
201,0.441971,3.359,1,4
202,0.445339,3.371,1,4
203,0.44873,3.386,1,4
204,0.45212,3.395,1,4
205,0.45553,3.406,1,4
206,0.45895,3.418,1,4
207,0.462379,3.428,1,4
208,0.465811,3.44,1,4
209,0.469271,3.454,1,4
210,0.47274,3.465,1,4
211,0.47621,3.471,1,4
212,0.479691,3.486,1,4
213,0.483191,3.494,1,4
214,0.4867,3.51,1,4
215,0.49021,3.518,1,4
216,0.49374,3.531,1,4
217,0.49728,3.537,1,4
218,0.500839,3.553,1,4
219,0.5044,3.564,1,4
220,0.507971,3.576,1,4
221,0.51156,3.585,1,4
222,0.51515,3.595,1,4
223,0.518761,3.61,1,4
224,0.522381,3.621,1,4
225,0.52602,3.633,1,4
226,0.529659,3.644,1,4
227,0.533319,3.653,1,4
228,0.53698,3.665,1,4
229,0.540661,3.679,1,4
230,0.54435,3.687,1,4
231,0.54804,3.697,1,4
232,0.55175,3.711,1,4
233,0.555481,3.72,1,4
234,0.55921,3.735,1,4
235,0.56295,3.743,1,4
236,0.56671,3.755,1,4
237,0.570471,3.765,1,4
238,0.574249,3.774,1,4
239,0.57803,3.786,1,4
240,0.581841,3.803,1,4
241,0.585649,3.814,1,4
242,0.589479,3.823,1,4
243,0.593309,3.832,1,4
244,0.597151,3.846,1,4
245,0.601009,3.855,1,4
246,0.604879,3.87,1,4
247,0.608761,3.879,1,4
248,0.61265,3.893,1,4
249,0.61655,3.9,1,4
250,0.620461,3.913,1,4
251,0.62438,3.922,1,4
252,0.628321,3.934,1,4
253,0.632259,3.945,1,4
254,0.636221,3.959,1,4
255,0.64019,3.965,1,4
256,0.644159,3.977,1,4
257,0.648149,3.989,1,4
258,0.652149,4.001,1,4
259,0.65616,4.009,1,4
260,0.660181,4.02,1,4
261,0.664209,4.034,1,4
262,0.668261,4.046,1,4
263,0.672319,4.055,1,4
264,0.67638,4.067,1,4
265,0.68046,4.079,1,4
266,0.684549,4.089,1,4
267,0.68865,4.097,1,4
268,0.69276,4.111,1,4
269,0.69688,4.123,1,4
270,0.701019,4.133,1,4
271,0.70516,4.144,1,4
272,0.709311,4.153,1,4
273,0.71347,4.162,1,4
274,0.717649,4.175,1,4
275,0.72184,4.19,1,4
276,0.72604,4.196,1,4
277,0.73024,4.206,1,4
278,0.734461,4.222,1,4
279,0.738701,4.232,1,4
280,0.742941,4.24,1,4
281,0.74719,4.254,1,4
282,0.751461,4.266,1,4
283,0.75573,4.276,1,4
284,0.760019,4.287,1,4
285,0.76432,4.297,1,4
286,0.768631,4.307,1,4
287,0.772949,4.321,1,4
288,0.777281,4.332,1,4
289,0.78162,4.34,1,4
290,0.785971,4.351,1,4
291,0.790331,4.365,1,4
292,0.79471,4.378,1,4
293,0.799101,4.387,1,4
294,0.803499,4.398,1,4
295,0.807911,4.411,1,4
296,0.81233,4.421,1,4
297,0.816771,4.435,1,4
298,0.821211,4.445,1,4
299,0.82567,4.458,1,4
300,0.83013,4.464,1,4
301,0.83461,4.477,1,4
302,0.8391,4.488,1,4
303,0.843599,4.501,1,4
304,0.84811,4.509,1,4
305,0.852631,4.517,1,4
306,0.857161,4.531,1,4
307,0.8617,4.54,1,4
308,0.866251,4.552,1,4
309,0.87081,4.562,1,4
310,0.875391,4.578,1,4
311,0.87998,4.588,1,4
312,0.884571,4.597,1,4
313,0.889179,4.607,1,4
314,0.893801,4.618,1,4
315,0.89843,4.629,1,4
316,0.90307,4.642,1,4
317,0.907721,4.652,1,4
318,0.91238,4.661,1,4
319,0.917049,4.668,1,4
320,0.92173,4.679,1,4
321,0.92642,4.691,1,4
322,0.931129,4.705,1,4
323,0.935841,4.716,1,4
324,0.940571,4.724,1,4
325,0.945301,4.737,1,4
326,0.95005,4.749,1,4
327,0.954809,4.759,1,4
328,0.959591,4.772,1,4
329,0.964371,4.782,1,4
330,0.96916,4.793,1,4
331,0.973961,4.803,1,4
332,0.978769,4.811,1,4
333,0.983601,4.829,1,4
334,0.98844,4.837,1,4
335,0.99329,4.851,1,4
336,0.99814,4.855,1,4
337,1.00301,4.867,1,4
338,1.00789,4.88,1,4
339,1.01278,4.891,1,4
340,1.01769,4.904,1,4
341,1.0226,4.917,1,4
342,1.02752,4.922,1,4
343,1.03246,4.931,1,4
344,1.0374,4.948,1,4
345,1.04236,4.958,1,4
346,1.04733,4.969,1,4
347,1.05231,4.975,1,4
348,1.05729,4.986,1,4
349,1.06229,4.995,1,4
350,1.0673,5.009,1,4
351,1.07232,5.02,1,4
352,1.07735,5.031,1,4
353,1.08239,5.039,1,4
354,1.08744,5.05,1,4
355,1.0925,5.062,1,4
356,1.09757,5.075,1,4
357,1.10266,5.087,1,4
358,1.10776,5.096,1,4
359,1.11286,5.103,1,4
360,1.11798,5.114,1,4
361,1.1231,5.129,1,4
362,1.12824,5.138,1,4
363,1.13339,5.147,1,4
364,1.13855,5.156,1,4
365,1.14371,5.166,1,4
366,1.14888,5.175,1,4
367,1.15408,5.191,1,4
368,1.15928,5.201,1,4
369,1.16449,5.21,1,4
370,1.16971,5.218,1,4
371,1.17493,5.226,1,4
372,1.18018,5.245,1,4
373,1.18544,5.26,1,4
374,1.19071,5.267,1,4
375,1.19598,5.273,1,4
376,1.20126,5.284,1,4
377,1.20655,5.294,1,4
378,1.21186,5.31,1,4
379,1.21719,5.322,1,4
380,1.22252,5.331,1,4
381,1.22785,5.337,1,4
382,1.23321,5.352,1,4
383,1.23857,5.361,1,4
384,1.24395,5.381,1,4
385,1.24933,5.385,1,4
386,1.25473,5.397,1,4
387,1.26013,5.401,1,4
388,1.26555,5.416,1,4
389,1.27098,5.429,1,4
390,1.27641,5.434,1,4
391,1.28185,5.442,1,4
392,1.28731,5.454,1,4
393,1.29277,5.464,1,4
394,1.29825,5.48,1,4
395,1.30374,5.492,1,4
396,1.30924,5.495,1,4
397,1.31474,5.506,1,4
398,1.32026,5.518,1,4
399,1.3258,5.535,1,4
400,1.33134,5.541,1,4
401,1.33689,5.551,1,4
402,1.34245,5.555,1,4
403,1.34801,5.569,1,4
404,1.3536,5.584,1,4
405,1.35919,5.592,1,4
406,1.36479,5.603,1,4
407,1.37041,5.613,1,4
408,1.37602,5.621,1,4
409,1.38166,5.635,1,4
410,1.38731,5.65,1,4
411,1.39863,5.664,1,4
412,1.4043,5.673,1,4
413,1.40999,5.691,1,4
414,1.4157,5.704,1,4
415,1.42141,5.709,1,4
416,1.42712,5.714,1,4
417,1.43285,5.729,1,4
418,1.44435,5.761,1,4
419,1.45012,5.768,1,4
420,1.45589,5.772,1,4
421,1.46168,5.785,1,4
422,1.46748,5.798,1,4
423,1.47329,5.814,1,4
424,1.47911,5.822,1,4
425,1.49078,5.836,1,4
426,1.49663,5.851,1,4
427,1.50249,5.861,1,4
428,1.50837,5.877,1,4
429,1.51425,5.887,1,4
430,1.52015,5.897,1,4
431,1.52606,5.906,1,4
432,1.53198,5.919,1,4
433,1.54384,5.937,1,4
434,1.54979,5.949,1,4
435,1.55575,5.962,1,4
436,1.56172,5.969,1,4
437,1.56769,5.973,1,4
438,1.57368,5.99,1,4
439,1.57968,6.001,1,4
440,1.5857,6.016,1,4
441,1.59776,6.034,1,4
442,1.6038,6.041,1,4
443,1.60985,6.056,1,4
444,1.622,6.079,1,4
445,1.62808,6.085,1,4
446,1.62808,6.094,1,4
447,1.63418,6.094,1,4
448,1.64028,6.104,1,4
449,1.64639,6.114,1,4
450,1.65253,6.145,1,4
451,1.66482,6.149,1,4
452,1.67098,6.158,1,4
453,1.67715,6.171,1,4
454,1.68952,6.191,1,4
455,1.69572,6.202,1,4
456,1.70193,6.212,1,4
457,1.70816,6.221,1,4
458,1.71439,6.231,1,4
459,1.72063,6.24,1,4
460,1.73315,6.264,1,4
461,1.73942,6.278,1,4
462,1.74571,6.288,1,4
463,1.75201,6.297,1,4
464,1.75832,6.308,1,4
465,1.76463,6.318,1,4
466,1.77096,6.323,1,4
467,1.77729,6.333,1,4
468,1.79,6.356,1,4
469,1.79637,6.369,1,4
470,1.80274,6.379,1,4
471,1.80914,6.395,1,4
472,1.81554,6.404,1,4
473,1.82195,6.41,1,4
474,1.82837,6.419,1,4
475,1.83481,6.432,1,4
476,1.8477,6.45,1,4
477,1.85416,6.463,1,4
478,1.86063,6.474,1,4
479,1.86712,6.485,1,4
480,1.87361,6.495,1,4
481,1.88012,6.509,1,4
482,1.88663,6.513,1,4
483,1.89316,6.523,1,4
484,1.89969,6.534,1,4
485,1.90624,6.548,1,4
486,1.9128,6.567,1,4
487,1.92594,6.573,1,4
488,1.93252,6.587,1,4
489,1.93912,6.596,1,4
490,1.94573,6.609,1,4
491,1.95235,6.619,1,4
492,1.95898,6.629,1,4
493,1.96561,6.635,1,4
494,1.97225,6.643,1,4
495,1.97891,6.671,1,4
496,1.99226,6.675,1,4
497,1.99894,6.679,1,4
498,2.00563,6.695,1,4
499,2.01234,6.707,1,4
500,2.01906,6.724,1,4
501,2.02578,6.724,1,4
502,2.03252,6.748,1,4
503,2.04603,6.761,1,4
504,2.0528,6.768,1,4
505,2.05958,6.779,1,4
506,2.06636,6.786,1,4
507,2.07316,6.797,1,4
508,2.07997,6.811,1,4
509,2.09364,6.836,1,4
510,2.09364,6.845,1,4
511,2.10733,6.852,1,4
512,2.11419,6.86,1,4
513,2.12107,6.878,1,4
514,2.12796,6.894,1,4
515,2.13485,6.898,1,4
516,2.14866,6.914,1,4
517,2.15559,6.928,1,4
518,2.16253,6.942,1,4
519,2.16948,6.947,1,4
520,2.17644,6.956,1,4
521,2.1834,6.962,1,4
522,2.19037,6.988,1,4
523,2.20436,7,1,4
524,2.21136,7.005,1,4
525,2.21838,7.014,1,4
526,2.22541,7.029,1,4
527,2.23245,7.044,1,4
528,2.2395,7.053,1,4
529,2.24656,7.06,1,4
530,2.25363,7.068,1,4
531,2.26071,7.081,1,4
532,2.26781,7.098,1,4
533,2.27492,7.103,1,4
534,2.28203,7.112,1,4
535,2.28915,7.124,1,4
536,2.29629,7.153,1,4
537,2.30345,7.153,1,4
538,2.31061,7.16,1,4
539,2.31777,7.169,1,4
540,2.32495,7.179,1,4
541,2.33214,7.186,1,4
542,2.33934,7.197,1,4
543,2.34655,7.213,1,4
544,2.35377,7.223,1,4
545,2.36101,7.233,1,4
546,2.36825,7.242,1,4
547,2.37551,7.259,1,4
548,2.38277,7.267,1,4
549,2.39005,7.279,1,4
550,2.39734,7.283,1,4
551,2.40463,7.292,1,4
552,2.41193,7.304,1,4
553,2.41924,7.313,1,4
554,2.42657,7.325,1,4
555,2.4339,7.33,1,4
556,2.44125,7.347,1,4
557,2.4486,7.357,1,4
558,2.45597,7.363,1,4
559,2.46334,7.373,1,4
560,2.47073,7.388,1,4
561,2.47812,7.395,1,4
562,2.48553,7.407,1,4
563,2.49295,7.415,1,4
564,2.50037,7.429,1,4
565,2.50781,7.436,1,4
566,2.51526,7.461,1,4
567,2.52272,7.474,1,4
568,2.53768,7.477,1,4
569,2.54516,7.486,1,4
570,2.55266,7.5,1,4
571,2.56017,7.513,1,4
572,2.56769,7.519,1,4
573,2.57522,7.528,1,4
574,2.58277,7.545,1,4
575,2.59032,7.562,1,4
576,2.60545,7.573,1,4
577,2.61304,7.585,1,4
578,2.62063,7.591,1,4
579,2.62823,7.604,1,4
580,2.64347,7.623,1,4
581,2.6511,7.632,1,4
582,2.65875,7.648,1,4
583,2.66641,7.658,1,4
584,2.67408,7.671,1,4
585,2.68176,7.679,1,4
586,2.68944,7.688,1,4
587,2.69714,7.699,1,4
588,2.71257,7.718,1,4
589,2.7203,7.73,1,4
590,2.72804,7.745,1,4
591,2.7358,7.751,1,4
592,2.74356,7.762,1,4
593,2.75133,7.769,1,4
594,2.75911,7.783,1,4
595,2.7669,7.788,1,4
596,2.78251,7.808,1,4
597,2.79033,7.82,1,4
598,2.79816,7.834,1,4
599,2.80601,7.845,1,4
600,2.81386,7.856,1,4
601,2.82172,7.863,1,4
602,2.82959,7.866,1,4
603,2.83747,7.877,1,4
604,2.84536,7.892,1,4
605,2.86117,7.91,1,4
606,2.86908,7.913,1,4
607,2.87701,7.927,1,4
608,2.88495,7.939,1,4
609,2.8929,7.952,1,4
610,2.90086,7.959,1,4
611,2.90883,7.974,1,4
612,2.92479,7.988,1,4
613,2.93279,8.001,1,4
614,2.94081,8.031,1,4
615,2.94884,8.031,1,4
616,2.95687,8.038,1,4
617,2.96491,8.039,1,4
618,2.97296,8.049,1,4
619,2.98103,8.069,1,4
620,2.9891,8.072,1,4
621,3.00528,8.093,1,4
622,3.01339,8.108,1,4
623,3.02151,8.117,1,4
624,3.02963,8.131,1,4
625,3.03776,8.131,1,4
626,3.04591,8.141,1,4
627,3.05405,8.149,1,4
628,3.06222,8.161,1,4
629,3.07039,8.175,1,4
630,3.07858,8.188,1,4
631,3.08677,8.202,1,4
632,3.10319,8.214,1,4
633,3.11141,8.225,1,4
634,3.11965,8.239,1,4
635,3.1279,8.246,1,4
636,3.13616,8.26,1,4
637,3.14443,8.271,1,4
638,3.15271,8.285,1,4
639,3.16101,8.292,1,4
640,3.17762,8.309,1,4
641,3.18594,8.319,1,4
642,3.19427,8.331,1,4
643,3.20261,8.345,1,4
644,3.21097,8.355,1,4
645,3.21933,8.367,1,4
646,3.22771,8.38,1,4
647,3.2361,8.392,1,4
648,3.2445,8.392,1,4
649,3.2529,8.4,1,4
650,3.26131,8.423,1,4
651,3.27817,8.436,1,4
652,3.28662,8.443,1,4
653,3.29507,8.454,1,4
654,3.30353,8.463,1,4
655,3.31201,8.475,1,4
656,3.3205,8.487,1,4
657,3.32899,8.499,1,4
658,3.3375,8.503,1,4
659,3.346,8.524,1,4
660,3.36307,8.539,1,4
661,3.37161,8.547,1,4
662,3.38017,8.554,1,4
663,3.38873,8.565,1,4
664,3.3973,8.569,1,4
665,3.40588,8.579,1,4
666,3.41447,8.589,1,4
667,3.43168,8.611,1,4
668,3.44031,8.626,1,4
669,3.44894,8.633,1,4
670,3.46624,8.65,1,4
671,3.46624,8.65,1,4
672,3.4749,8.662,1,4
673,3.48357,8.673,1,4
674,3.49225,8.679,1,4
675,3.50095,8.697,1,4
676,3.50966,8.708,1,4
677,3.52709,8.722,1,4
678,3.53583,8.738,1,4
679,3.54458,8.757,1,4
680,3.5621,8.764,1,4
681,3.5621,8.779,1,4
682,3.57088,8.779,1,4
683,3.57967,8.788,1,4
684,3.58847,8.801,1,4
685,3.59728,8.806,1,4
686,3.60609,8.818,1,4
687,3.62375,8.833,1,4
688,3.63259,8.842,1,4
689,3.65031,8.87,1,4
690,3.65919,8.881,1,4
691,3.65919,8.881,1,4
692,3.66807,8.881,1,4
693,3.67696,8.886,1,4
694,3.68586,8.902,1,4
695,3.70369,8.922,1,4
696,3.71262,8.929,1,4
697,3.73051,8.948,1,4
698,3.73948,8.966,1,4
699,3.74845,8.975,1,4
700,3.75744,8.988,1,4
701,3.76643,8.989,1,4
702,3.77543,9.002,1,4
703,3.78444,9.012,1,4
704,3.79347,9.027,1,4
705,3.81157,9.051,1,4
706,3.82061,9.047,1,4
707,3.82967,9.052,1,4
708,3.83874,9.071,1,4
709,3.84782,9.087,1,4
710,3.85692,9.1,1,4
711,3.86603,9.102,1,4
712,3.87514,9.109,1,4
713,3.88425,9.117,1,4
714,3.90252,9.139,1,4
715,3.91167,9.15,1,4
716,3.92083,9.155,1,4
717,3.92999,9.165,1,4
718,3.93918,9.187,1,4
719,3.94838,9.2,1,4
720,3.95758,9.204,1,4
721,3.96679,9.21,1,4
722,3.98525,9.235,1,4
723,3.99451,9.253,1,4
724,4.00377,9.266,1,4
725,4.01305,9.277,1,4
726,4.02233,9.287,1,4
727,4.03162,9.296,1,4
728,4.04091,9.296,1,4
729,4.05023,9.313,1,4
730,4.06889,9.342,1,4
731,4.07825,9.351,1,4
732,4.0876,9.361,1,4
733,4.09696,9.361,1,4
734,4.10633,9.386,1,4
735,4.12512,9.402,1,4
736,4.13453,9.409,1,4
737,4.14395,9.415,1,4
738,4.15338,9.43,1,4
739,4.16281,9.438,1,4
740,4.18173,9.462,1,4
741,4.1912,9.476,1,4
742,4.20068,9.48,1,4
743,4.21018,9.493,1,4
744,4.21968,9.503,1,4
745,4.22919,9.514,1,4
746,4.23871,9.522,1,4
747,4.24824,9.525,1,4
748,4.25778,9.538,1,4
749,4.26733,9.547,1,4
750,4.27688,9.556,1,4
751,4.29603,9.58,1,4
752,4.30562,9.59,1,4
753,4.31521,9.598,1,4
754,4.32482,9.602,1,4
755,4.33443,9.614,1,4
756,4.34405,9.619,1,4
757,4.35369,9.645,1,4
758,4.37299,9.66,1,4
759,4.38266,9.667,1,4
760,4.39234,9.678,1,4
761,4.40202,9.682,1,4
762,4.41171,9.692,1,4
763,4.42142,9.71,1,4
764,4.44087,9.728,1,4
765,4.4506,9.733,1,4
766,4.46035,9.746,1,4
767,4.4701,9.755,1,4
768,4.47987,9.767,1,4
769,4.48965,9.776,1,4
770,4.49944,9.791,1,4
771,4.50924,9.797,1,4
772,4.51904,9.805,1,4
773,4.52885,9.81,1,4
774,4.5485,9.829,1,4
775,4.55834,9.84,1,4
776,4.56819,9.865,1,4
777,4.57806,9.865,1,4
778,4.58793,9.869,1,4
779,4.59781,9.878,1,4
780,4.6077,9.897,1,4
781,4.61761,9.913,1,4
782,4.62752,9.921,1,4
783,4.64738,9.939,1,4
784,4.65732,9.946,1,4
785,4.66728,9.955,1,4
786,4.67723,9.955,1,4
787,4.6872,9.964,1,4
788,4.69717,9.975,1,4
789,4.70716,9.992,1,4
790,4.71716,10.001,1,4
791,4.72717,10.015,1,4
792,4.73718,10.015,1,4
793,4.74721,10.024,1,4
794,4.76728,10.037,1,4
795,4.77733,10.054,1,4
796,4.7874,10.063,1,4
797,4.79746,10.069,1,4
798,4.80754,10.077,1,4
799,4.81763,10.086,1,4
800,4.83783,10.11,1,4
801,4.83783,10.118,1,4
802,4.85808,10.131,1,4
803,4.86821,10.131,1,4
804,4.88849,10.143,1,4
805,4.88849,10.151,1,4
806,4.89864,10.151,1,4
807,4.90881,10.166,1,4
808,4.92917,10.186,1,4
809,4.93936,10.188,1,4
810,4.94956,10.198,1,4
811,4.95975,10.194,1,4
812,4.98016,10.206,1,4
813,4.99038,10.217,1,4
814,5.0006,10.221,1,4
815,5.01083,10.232,1,4
816,5.02107,10.236,1,4
817,5.03131,10.244,1,4
818,5.04155,10.242,1,4
819,5.06205,10.254,1,4
820,5.07231,10.262,1,4
821,5.08257,10.26,1,4
822,5.09283,10.263,1,4
823,5.1031,10.27,1,4
824,5.11337,10.266,1,4
825,5.12364,10.271,1,4
826,5.13391,10.268,1,4
827,5.15446,10.277,1,4
828,5.16475,10.286,1,4
829,5.17504,10.291,1,4
830,5.18534,10.297,1,4
831,5.19563,10.298,1,4
832,5.20594,10.305,1,4
833,5.21624,10.306,1,4
834,5.22655,10.31,1,4
835,5.23686,10.31,1,4
836,5.24717,10.307,1,4
837,5.25749,10.314,1,4
838,5.27812,10.313,1,4
839,5.28843,10.315,1,4
840,5.29876,10.331,1,4
841,5.3091,10.334,1,4
842,5.31944,10.344,1,4
843,5.32978,10.342,1,4
844,5.34013,10.347,1,4
845,5.35047,10.341,1,4
846,5.37115,10.339,1,4
847,5.3815,10.342,1,4
848,5.39184,10.333,1,4
849,5.40217,10.333,1,4
850,5.41251,10.337,1,4
851,5.42284,10.337,1,4
852,5.43318,10.334,1,4
853,5.44351,10.333,1,4
854,5.45385,10.344,1,4
855,5.47455,10.349,1,4
856,5.48489,10.347,1,4
857,5.50559,10.349,1,4
858,5.51595,10.353,1,4
859,5.5263,10.349,1,4
860,5.53665,10.351,1,4
861,5.547,10.347,1,4
862,5.55734,10.347,1,4
863,5.57802,10.338,1,4
864,5.58837,10.346,1,4
865,5.59871,10.343,1,4
866,5.60906,10.343,1,4
867,5.6194,10.338,1,4
868,5.62974,10.341,1,4
869,5.64007,10.335,1,4
870,5.65041,10.335,1,4
871,5.67106,10.323,1,4
872,5.68138,10.318,1,4
873,5.69169,10.318,1,4
874,5.702,10.31,1,4
875,5.72262,10.308,1,4
876,5.72262,10.307,1,4
877,5.73293,10.307,1,4
878,5.74325,10.32,1,4
879,5.75357,10.323,1,4
880,5.76389,10.32,1,4
881,5.77421,10.321,1,4
882,5.78454,10.324,1,4
883,5.79486,10.323,1,4
884,5.8155,10.319,1,4
885,5.83613,10.311,1,4
886,5.84644,10.308,1,4
887,5.85674,10.3,1,4
888,5.86704,10.299,1,4
889,5.87733,10.292,1,4
890,5.88763,10.294,1,4
891,5.89792,10.289,1,4
892,5.91848,10.279,1,4
893,5.92876,10.277,1,4
894,5.93904,10.283,1,4
895,5.94932,10.283,1,4
896,5.95961,10.28,1,4
897,5.96989,10.28,1,4
898,5.98017,10.285,1,4
899,6.00072,10.275,1,4
900,6.01099,10.267,1,4
901,6.02126,10.267,1,4
902,6.03152,10.262,1,4
