cnt,pos,speed,Dir,Force,
1,3.30343,1.009,-1,4
2,3.30445,1.023,-1,4
3,3.30548,1.028,-1,4
4,3.30650,1.023,-1,4
5,3.30753,1.023,-1,4
6,3.30857,1.042,-1,4
7,3.30963,1.061,-1,4
8,3.31069,1.065,-1,4
9,3.31175,1.051,-1,4
10,3.31280,1.052,-1,4
11,3.31387,1.074,-1,4
12,3.31496,1.092,-1,4
13,3.31605,1.090,-1,4
14,3.31714,1.082,-1,4
15,3.31823,1.090,-1,4
16,3.31934,1.112,-1,4
17,3.32046,1.121,-1,4
18,3.32157,1.113,-1,4
19,3.32268,1.110,-1,4
20,3.32381,1.126,-1,4
21,3.32495,1.144,-1,4
22,3.32610,1.147,-1,4
23,3.32724,1.142,-1,4
24,3.32839,1.145,-1,4
25,3.32954,1.159,-1,4
26,3.33071,1.167,-1,4
27,3.33188,1.171,-1,4
28,3.33306,1.172,-1,4
29,3.33424,1.180,-1,4
30,3.33542,1.187,-1,4
31,3.33662,1.192,-1,4
32,3.33781,1.199,-1,4
33,3.33902,1.204,-1,4
34,3.34022,1.205,-1,4
35,3.34144,1.212,-1,4
36,3.34266,1.226,-1,4
37,3.34389,1.231,-1,4
38,3.34512,1.227,-1,4
39,3.34634,1.226,-1,4
40,3.34759,1.245,-1,4
41,3.34885,1.256,-1,4
42,3.35010,1.258,-1,4
43,3.35136,1.252,-1,4
44,3.35261,1.259,-1,4
45,3.35388,1.269,-1,4
46,3.35516,1.277,-1,4
47,3.35645,1.286,-1,4
48,3.35773,1.288,-1,4
49,3.35902,1.288,-1,4
50,3.36031,1.290,-1,4
51,3.36161,1.297,-1,4
52,3.36292,1.309,-1,4
53,3.36423,1.312,-1,4
54,3.36554,1.315,-1,4
55,3.36686,1.321,-1,4
56,3.36819,1.323,-1,4
57,3.36951,1.325,-1,4
58,3.37084,1.332,-1,4
59,3.37218,1.340,-1,4
60,3.37353,1.344,-1,4
61,3.37488,1.348,-1,4
62,3.37623,1.350,-1,4
63,3.37758,1.349,-1,4
64,3.37893,1.352,-1,4
65,3.38029,1.365,-1,4
66,3.38167,1.376,-1,4
67,3.38304,1.373,-1,4
68,3.38441,1.366,-1,4
69,3.38578,1.369,-1,4
70,3.38715,1.377,-1,4
71,3.38854,1.387,-1,4
72,3.38993,1.392,-1,4
73,3.39132,1.387,-1,4
74,3.39270,1.377,-1,4
75,3.39408,1.385,-1,4
76,3.39548,1.400,-1,4
77,3.39689,1.409,-1,4
78,3.39829,1.400,-1,4
79,3.39968,1.391,-1,4
80,3.40107,1.393,-1,4
81,3.40248,1.404,-1,4
82,3.40389,1.418,-1,4
83,3.40531,1.418,-1,4
84,3.40672,1.403,-1,4
85,3.40811,1.396,-1,4
86,3.40952,1.409,-1,4
87,3.41094,1.419,-1,4
88,3.41236,1.425,-1,4
89,3.41378,1.418,-1,4
90,3.41519,1.407,-1,4
91,3.41659,1.404,-1,4
92,3.41801,1.418,-1,4
93,3.41944,1.429,-1,4
94,3.42087,1.426,-1,4
95,3.42228,1.415,-1,4
96,3.42369,1.410,-1,4
97,3.42510,1.412,-1,4
98,3.42653,1.422,-1,4
99,3.42796,1.433,-1,4
100,3.42939,1.426,-1,4
101,3.43080,1.411,-1,4
102,3.43220,1.405,-1,4
103,3.43362,1.420,-1,4
104,3.43505,1.429,-1,4
105,3.43648,1.430,-1,4
106,3.43790,1.419,-1,4
107,3.43930,1.404,-1,4
108,3.44071,1.407,-1,4
109,3.44214,1.426,-1,4
110,3.44357,1.432,-1,4
111,3.44499,1.418,-1,4
112,3.44639,1.403,-1,4
113,3.44779,1.401,-1,4
114,3.44920,1.413,-1,4
115,3.45063,1.426,-1,4
116,3.45205,1.425,-1,4
117,3.45346,1.403,-1,4
118,3.45485,1.393,-1,4
119,3.45625,1.403,-1,4
120,3.45767,1.418,-1,4
121,3.45909,1.419,-1,4
122,3.46050,1.407,-1,4
123,3.46189,1.396,-1,4
124,3.46329,1.392,-1,4
125,3.46469,1.402,-1,4
126,3.46610,1.411,-1,4
127,3.46751,1.410,-1,4
128,3.46890,1.395,-1,4
129,3.47029,1.389,-1,4
130,3.47169,1.393,-1,4
131,3.47308,1.399,-1,4
132,3.47449,1.403,-1,4
133,3.47589,1.399,-1,4
134,3.47727,1.386,-1,4
135,3.47866,1.384,-1,4
136,3.48005,1.392,-1,4
137,3.48145,1.398,-1,4
138,3.48284,1.391,-1,4
139,3.48422,1.385,-1,4
140,3.48560,1.382,-1,4
141,3.48699,1.383,-1,4
142,3.48838,1.388,-1,4
143,3.48977,1.391,-1,4
144,3.49115,1.386,-1,4
145,3.49253,1.377,-1,4
146,3.49391,1.378,-1,4
147,3.49529,1.382,-1,4
148,3.49667,1.384,-1,4
149,3.49806,1.385,-1,4
150,3.49944,1.383,-1,4
151,3.50082,1.376,-1,4
152,3.50219,1.373,-1,4
153,3.50357,1.379,-1,4
154,3.50495,1.384,-1,4
155,3.50634,1.382,-1,4
156,3.50772,1.381,-1,4
157,3.50909,1.376,-1,4
158,3.51046,1.370,-1,4
159,3.51184,1.377,-1,4
160,3.51323,1.386,-1,4
161,3.51461,1.384,-1,4
162,3.51599,1.376,-1,4
163,3.51736,1.374,-1,4
164,3.51874,1.376,-1,4
165,3.52012,1.382,-1,4
166,3.52151,1.388,-1,4
167,3.52289,1.386,-1,4
168,3.52427,1.377,-1,4
169,3.52564,1.376,-1,4
170,3.52703,1.387,-1,4
171,3.52842,1.393,-1,4
172,3.52981,1.387,-1,4
173,3.53119,1.383,-1,4
174,3.53258,1.387,-1,4
175,3.53397,1.391,-1,4
176,3.53537,1.394,-1,4
177,3.53676,1.395,-1,4
178,3.53815,1.393,-1,4
179,3.53955,1.395,-1,4
180,3.54095,1.404,-1,4
181,3.54235,1.402,-1,4
182,3.54375,1.397,-1,4
183,3.54515,1.404,-1,4
184,3.54657,1.416,-1,4
185,3.54799,1.416,-1,4
186,3.54940,1.411,-1,4
187,3.55081,1.410,-1,4
188,3.55223,1.418,-1,4
189,3.55365,1.427,-1,4
190,3.55509,1.432,-1,4
191,3.55652,1.430,-1,4
192,3.55794,1.421,-1,4
193,3.55936,1.427,-1,4
194,3.56081,1.446,-1,4
195,3.56226,1.450,-1,4
196,3.56371,1.445,-1,4
197,3.56515,1.442,-1,4
198,3.56659,1.446,-1,4
199,3.56805,1.459,-1,4
200,3.56952,1.473,-1,4
201,3.57099,1.470,-1,4
202,3.57245,1.459,-1,4
203,3.57392,1.466,-1,4
204,3.57540,1.483,-1,4
205,3.57689,1.489,-1,4
206,3.57838,1.492,-1,4
207,3.57987,1.486,-1,4
208,3.58136,1.490,-1,4
209,3.58286,1.503,-1,4
210,3.58437,1.513,-1,4
211,3.58589,1.515,-1,4
212,3.58740,1.510,-1,4
213,3.58892,1.517,-1,4
214,3.59044,1.521,-1,4
215,3.59197,1.536,-1,4
216,3.59352,1.544,-1,4
217,3.59506,1.540,-1,4
218,3.59659,1.537,-1,4
219,3.59814,1.546,-1,4
220,3.59970,1.561,-1,4
221,3.60127,1.569,-1,4
222,3.60284,1.571,-1,4
223,3.60441,1.567,-1,4
224,3.60597,1.567,-1,4
225,3.60756,1.584,-1,4
226,3.60915,1.598,-1,4
227,3.61075,1.599,-1,4
228,3.61235,1.596,-1,4
229,3.61395,1.595,-1,4
230,3.61555,1.605,-1,4
231,3.61718,1.625,-1,4
232,3.61880,1.628,-1,4
233,3.62043,1.625,-1,4
234,3.62205,1.623,-1,4
235,3.62368,1.632,-1,4
236,3.62533,1.649,-1,4
237,3.62699,1.661,-1,4
238,3.62864,1.652,-1,4
239,3.63029,1.649,-1,4
240,3.63196,1.662,-1,4
241,3.63364,1.680,-1,4
242,3.63533,1.689,-1,4
243,3.63700,1.679,-1,4
244,3.63868,1.675,-1,4
245,3.64038,1.698,-1,4
246,3.64209,1.714,-1,4
247,3.64380,1.712,-1,4
248,3.64551,1.704,-1,4
249,3.64722,1.709,-1,4
250,3.64895,1.733,-1,4
251,3.65070,1.746,-1,4
252,3.65243,1.738,-1,4
253,3.65416,1.730,-1,4
254,3.65591,1.745,-1,4
255,3.65768,1.769,-1,4
256,3.65945,1.775,-1,4
257,3.66122,1.766,-1,4
258,3.66298,1.761,-1,4
259,3.66476,1.784,-1,4
260,3.66656,1.801,-1,4
261,3.66837,1.804,-1,4
262,3.67016,1.796,-1,4
263,3.67196,1.797,-1,4
264,3.67377,1.814,-1,4
265,3.67561,1.831,-1,4
266,3.67744,1.832,-1,4
267,3.67927,1.831,-1,4
268,3.68110,1.831,-1,4
269,3.68295,1.847,-1,4
270,3.68481,1.860,-1,4
271,3.68667,1.866,-1,4
272,3.68854,1.864,-1,4
273,3.69040,1.863,-1,4
274,3.69228,1.879,-1,4
275,3.69417,1.892,-1,4
276,3.69607,1.899,-1,4
277,3.69797,1.896,-1,4
278,3.69986,1.898,-1,4
279,3.70177,1.908,-1,4
280,3.70369,1.921,-1,4
281,3.70562,1.930,-1,4
282,3.70755,1.933,-1,4
283,3.70948,1.929,-1,4
284,3.71142,1.937,-1,4
285,3.71337,1.951,-1,4
286,3.71534,1.964,-1,4
287,3.71730,1.963,-1,4
288,3.71926,1.959,-1,4
289,3.72122,1.967,-1,4
290,3.72321,1.982,-1,4
291,3.72520,1.992,-1,4
292,3.72719,1.992,-1,4
293,3.72918,1.989,-1,4
294,3.73118,1.996,-1,4
295,3.73318,2.007,-1,4
296,3.73521,2.022,-1,4
297,3.73723,2.022,-1,4
298,3.73924,2.014,-1,4
299,3.74126,2.020,-1,4
300,3.74330,2.038,-1,4
301,3.74535,2.051,-1,4
302,3.74740,2.045,-1,4
303,3.74943,2.037,-1,4
304,3.75148,2.047,-1,4
305,3.75355,2.070,-1,4
306,3.75562,2.073,-1,4
307,3.75769,2.062,-1,4
308,3.75975,2.062,-1,4
309,3.76183,2.079,-1,4
310,3.76392,2.095,-1,4
311,3.76601,2.088,-1,4
312,3.76809,2.083,-1,4
313,3.77018,2.090,-1,4
314,3.77229,2.108,-1,4
315,3.77440,2.111,-1,4
316,3.77651,2.108,-1,4
317,3.77862,2.106,-1,4
318,3.78073,2.114,-1,4
319,3.78286,2.132,-1,4
320,3.78500,2.136,-1,4
321,3.78712,2.125,-1,4
322,3.78924,2.123,-1,4
323,3.79139,2.145,-1,4
324,3.79355,2.159,-1,4
325,3.79570,2.150,-1,4
326,3.79784,2.142,-1,4
327,3.79999,2.154,-1,4
328,3.80217,2.174,-1,4
329,3.80434,2.174,-1,4
330,3.80651,2.168,-1,4
331,3.80868,2.172,-1,4
332,3.81087,2.185,-1,4
333,3.81306,2.193,-1,4
334,3.81525,2.194,-1,4
335,3.81745,2.192,-1,4
336,3.81964,2.198,-1,4
337,3.82185,2.212,-1,4
338,3.82407,2.219,-1,4
339,3.82629,2.217,-1,4
340,3.82851,2.215,-1,4
341,3.83074,2.229,-1,4
342,3.83298,2.242,-1,4
343,3.83522,2.241,-1,4
344,3.83746,2.239,-1,4
345,3.83971,2.250,-1,4
346,3.84196,2.258,-1,4
347,3.84423,2.264,-1,4
348,3.84649,2.266,-1,4
349,3.84877,2.271,-1,4
350,3.85104,2.275,-1,4
351,3.85332,2.284,-1,4
352,3.85562,2.293,-1,4
353,3.85791,2.296,-1,4
354,3.86021,2.296,-1,4
355,3.86252,2.306,-1,4
356,3.86483,2.312,-1,4
357,3.86715,2.320,-1,4
358,3.86947,2.324,-1,4
359,3.87179,2.324,-1,4
360,3.87413,2.331,-1,4
361,3.87647,2.340,-1,4
362,3.87882,2.351,-1,4
363,3.88116,2.347,-1,4
364,3.88351,2.347,-1,4
365,3.88587,2.358,-1,4
366,3.88824,2.372,-1,4
367,3.89061,2.366,-1,4
368,3.89297,2.366,-1,4
369,3.89535,2.376,-1,4
370,3.89773,2.382,-1,4
371,3.90012,2.386,-1,4
372,3.90250,2.383,-1,4
373,3.90489,2.389,-1,4
374,3.90728,2.391,-1,4
375,3.90967,2.395,-1,4
376,3.91207,2.399,-1,4
377,3.91448,2.402,-1,4
378,3.91687,2.399,-1,4
379,3.91928,2.402,-1,4
380,3.92168,2.406,-1,4
381,3.92409,2.409,-1,4
382,3.92650,2.408,-1,4
383,3.92891,2.407,-1,4
384,3.93132,2.409,-1,4
385,3.93373,2.413,-1,4
386,3.93614,2.413,-1,4
387,3.93856,2.412,-1,4
388,3.94097,2.410,-1,4
389,3.94338,2.411,-1,4
390,3.94579,2.412,-1,4
391,3.94820,2.414,-1,4
392,3.95061,2.410,-1,4
393,3.95302,2.408,-1,4
394,3.95784,2.409,-1,4
395,3.96024,2.404,-1,4
396,3.96265,2.405,-1,4
397,3.96505,2.405,-1,4
398,3.96745,2.402,-1,4
399,3.96985,2.396,-1,4
400,3.97225,2.401,-1,4
401,3.97465,2.397,-1,4
402,3.97704,2.391,-1,4
403,3.97943,2.390,-1,4
404,3.98182,2.391,-1,4
405,3.98420,2.384,-1,4
406,3.98897,2.381,-1,4
407,3.99135,2.379,-1,4
408,3.99373,2.379,-1,4
409,3.99609,2.370,-1,4
410,3.99847,2.371,-1,4
411,4.00083,2.365,-1,4
412,4.00556,2.360,-1,4
413,4.00792,2.356,-1,4
414,4.01027,2.358,-1,4
415,4.01262,2.352,-1,4
416,4.01497,2.348,-1,4
417,4.01731,2.342,-1,4
418,4.01966,2.346,-1,4
419,4.02200,2.337,-1,4
420,4.02433,2.334,-1,4
421,4.02666,2.330,-1,4
422,4.02899,2.329,-1,4
423,4.03132,2.324,-1,4
424,4.03363,2.316,-1,4
425,4.03595,2.313,-1,4
426,4.04057,2.307,-1,4
427,4.04287,2.298,-1,4
428,4.04516,2.298,-1,4
429,4.04746,2.295,-1,4
430,4.04975,2.288,-1,4
431,4.05203,2.278,-1,4
432,4.05659,2.278,-1,4
433,4.05886,2.272,-1,4
434,4.06113,2.267,-1,4
435,4.06339,2.258,-1,4
436,4.06790,2.255,-1,4
437,4.07015,2.247,-1,4
438,4.07239,2.241,-1,4
439,4.07463,2.243,-1,4
440,4.07687,2.237,-1,4
441,4.07909,2.227,-1,4
442,4.08132,2.222,-1,4
443,4.08354,2.223,-1,4
444,4.08797,2.210,-1,4
445,4.09017,2.207,-1,4
446,4.09238,2.203,-1,4
447,4.09457,2.198,-1,4
448,4.09677,2.192,-1,4
449,4.09896,2.190,-1,4
450,4.10114,2.178,-1,4
451,4.10549,2.177,-1,4
452,4.10767,2.172,-1,4
453,4.10983,2.162,-1,4
454,4.11199,2.162,-1,4
455,4.11415,2.155,-1,4
456,4.11631,2.155,-1,4
457,4.11845,2.146,-1,4
458,4.12059,2.143,-1,4
459,4.12274,2.148,-1,4
460,4.12488,2.140,-1,4
461,4.12701,2.131,-1,4
462,4.12914,2.125,-1,4
463,4.13127,2.132,-1,4
464,4.13551,2.118,-1,4
465,4.13762,2.113,-1,4
466,4.13974,2.115,-1,4
467,4.14185,2.110,-1,4
468,4.14396,2.108,-1,4
469,4.14606,2.104,-1,4
470,4.14816,2.097,-1,4
471,4.15026,2.099,-1,4
472,4.15235,2.094,-1,4
473,4.15653,2.082,-1,4
474,4.15861,2.083,-1,4
475,4.16278,2.085,-1,4
476,4.16486,2.075,-1,4
477,4.16693,2.073,-1,4
478,4.16901,2.079,-1,4
479,4.17109,2.075,-1,4
480,4.17315,2.069,-1,4
481,4.17522,2.065,-1,4
482,4.17729,2.069,-1,4
483,4.17936,2.069,-1,4
484,4.18142,2.065,-1,4
485,4.18349,2.062,-1,4
486,4.18761,2.063,-1,4
487,4.18967,2.062,-1,4
488,4.19173,2.061,-1,4
489,4.19379,2.058,-1,4
490,4.19585,2.058,-1,4
491,4.19791,2.060,-1,4
492,4.19997,2.064,-1,4
493,4.20409,2.056,-1,4
494,4.20615,2.061,-1,4
495,4.20822,2.067,-1,4
496,4.21028,2.065,-1,4
497,4.21234,2.060,-1,4
498,4.21440,2.061,-1,4
499,4.21648,2.073,-1,4
500,4.21855,2.073,-1,4
501,4.22062,2.068,-1,4
502,4.22268,2.068,-1,4
503,4.22476,2.080,-1,4
504,4.22684,2.081,-1,4
505,4.22892,2.079,-1,4
506,4.23100,2.081,-1,4
507,4.23309,2.087,-1,4
508,4.23727,2.091,-1,4
509,4.23936,2.093,-1,4
510,4.24146,2.097,-1,4
511,4.24356,2.100,-1,4
512,4.24567,2.105,-1,4
513,4.24778,2.110,-1,4
514,4.24988,2.109,-1,4
515,4.25411,2.121,-1,4
516,4.25624,2.124,-1,4
517,4.25836,2.125,-1,4
518,4.26049,2.124,-1,4
519,4.26262,2.132,-1,4
520,4.26476,2.139,-1,4
521,4.26690,2.140,-1,4
522,4.26904,2.143,-1,4
523,4.27119,2.148,-1,4
524,4.27335,2.156,-1,4
525,4.27550,2.155,-1,4
526,4.27766,2.161,-1,4
527,4.27983,2.164,-1,4
528,4.28200,2.170,-1,4
529,4.28417,2.171,-1,4
530,4.28853,2.180,-1,4
531,4.29071,2.184,-1,4
532,4.29290,2.189,-1,4
533,4.29509,2.193,-1,4
534,4.29728,2.193,-1,4
535,4.29948,2.196,-1,4
536,4.30169,2.207,-1,4
537,4.30390,2.210,-1,4
538,4.30611,2.208,-1,4
539,4.30832,2.210,-1,4
540,4.31053,2.220,-1,4
541,4.31276,2.223,-1,4
542,4.31498,2.222,-1,4
543,4.31720,2.224,-1,4
544,4.31944,2.232,-1,4
545,4.32167,2.235,-1,4
546,4.32391,2.236,-1,4
547,4.32615,2.238,-1,4
548,4.32839,2.242,-1,4
549,4.33063,2.245,-1,4
550,4.33288,2.249,-1,4
551,4.33513,2.251,-1,4
552,4.33738,2.252,-1,4
553,4.33964,2.257,-1,4
554,4.34190,2.260,-1,4
555,4.34416,2.262,-1,4
556,4.34642,2.262,-1,4
557,4.34870,2.272,-1,4
558,4.35097,2.273,-1,4
559,4.35324,2.273,-1,4
560,4.35552,2.277,-1,4
561,4.35781,2.288,-1,4
562,4.36009,2.287,-1,4
563,4.36238,2.284,-1,4
564,4.36467,2.291,-1,4
565,4.36697,2.305,-1,4
566,4.36927,2.301,-1,4
567,4.37158,2.302,-1,4
568,4.37389,2.310,-1,4
569,4.37620,2.320,-1,4
570,4.38085,2.325,-1,4
571,4.38317,2.324,-1,4
572,4.38550,2.332,-1,4
573,4.38784,2.337,-1,4
574,4.39018,2.347,-1,4
575,4.39253,2.344,-1,4
576,4.39488,2.350,-1,4
577,4.39723,2.356,-1,4
578,4.39960,2.369,-1,4
579,4.40197,2.365,-1,4
580,4.40673,2.381,-1,4
581,4.40911,2.385,-1,4
582,4.41391,2.403,-1,4
583,4.41391,2.405,-1,4
584,4.41631,2.405,-1,4
585,4.41872,2.413,-1,4
586,4.42115,2.421,-1,4
587,4.42357,2.433,-1,4
588,4.42845,2.443,-1,4
589,4.43090,2.449,-1,4
590,4.43336,2.459,-1,4
591,4.43583,2.476,-1,4
592,4.44078,2.478,-1,4
593,4.44078,2.491,-1,4
594,4.44327,2.491,-1,4
595,4.44577,2.502,-1,4
596,4.44828,2.507,-1,4
597,4.45079,2.512,-1,4
598,4.45332,2.527,-1,4
599,4.45586,2.536,-1,4
600,4.46095,2.552,-1,4
601,4.46351,2.570,-1,4
602,4.46866,2.579,-1,4
603,4.47125,2.588,-1,4
604,4.47384,2.597,-1,4
605,4.47645,2.606,-1,4
606,4.47906,2.615,-1,4
607,4.48169,2.637,-1,4
608,4.48697,2.640,-1,4
609,4.48963,2.658,-1,4
610,4.49229,2.667,-1,4
611,4.49497,2.673,-1,4
612,4.49765,2.685,-1,4
613,4.50035,2.697,-1,4
614,4.50305,2.705,-1,4
615,4.50577,2.715,-1,4
616,4.50849,2.728,-1,4
617,4.51123,2.737,-1,4
618,4.51398,2.747,-1,4
619,4.51951,2.768,-1,4
620,4.52228,2.779,-1,4
621,4.52507,2.785,-1,4
622,4.52787,2.799,-1,4
623,4.53068,2.813,-1,4
624,4.53350,2.822,-1,4
625,4.53633,2.831,-1,4
626,4.53917,2.854,-1,4
627,4.54489,2.864,-1,4
628,4.54777,2.877,-1,4
629,4.55065,2.886,-1,4
630,4.55355,2.893,-1,4
631,4.55646,2.910,-1,4
632,4.55938,2.921,-1,4
633,4.56231,2.930,-1,4
634,4.56525,2.940,-1,4
635,4.56820,2.949,-1,4
636,4.57116,2.963,-1,4
637,4.57414,2.977,-1,4
638,4.57712,2.985,-1,4
639,4.58012,2.994,-1,4
640,4.58614,3.017,-1,4
641,4.58917,3.028,-1,4
642,4.59220,3.038,-1,4
643,4.59525,3.047,-1,4
644,4.59831,3.056,-1,4
645,4.60137,3.068,-1,4
646,4.60446,3.086,-1,4
647,4.61064,3.096,-1,4
648,4.61374,3.103,-1,4
649,4.61686,3.117,-1,4
650,4.61998,3.124,-1,4
651,4.62311,3.130,-1,4
652,4.62625,3.143,-1,4
653,4.62940,3.148,-1,4
654,4.63256,3.158,-1,4
655,4.63573,3.166,-1,4
656,4.63890,3.172,-1,4
657,4.64208,3.184,-1,4
658,4.64527,3.190,-1,4
659,4.65167,3.204,-1,4
660,4.65488,3.208,-1,4
661,4.65810,3.220,-1,4
662,4.66132,3.224,-1,4
663,4.66455,3.228,-1,4
664,4.66778,3.234,-1,4
665,4.67103,3.248,-1,4
666,4.67753,3.250,-1,4
667,4.68078,3.257,-1,4
668,4.68404,3.257,-1,4
669,4.68730,3.266,-1,4
670,4.69058,3.273,-1,4
671,4.69385,3.269,-1,4
672,4.69712,3.271,-1,4
673,4.70040,3.280,-1,4
674,4.70368,3.284,-1,4
675,4.70697,3.288,-1,4
676,4.71026,3.286,-1,4
677,4.71354,3.287,-1,4
678,4.71684,3.292,-1,4
679,4.72343,3.295,-1,4
680,4.72673,3.297,-1,4
681,4.73002,3.295,-1,4
682,4.73332,3.297,-1,4
683,4.73662,3.301,-1,4
684,4.73992,3.297,-1,4
685,4.74321,3.297,-1,4
686,4.74981,3.297,-1,4
687,4.75310,3.296,-1,4
688,4.75640,3.294,-1,4
689,4.75969,3.290,-1,4
690,4.76298,3.291,-1,4
691,4.76627,3.289,-1,4
692,4.76956,3.287,-1,4
693,4.77284,3.283,-1,4
694,4.77612,3.279,-1,4
695,4.77939,3.274,-1,4
696,4.78267,3.279,-1,4
697,4.78594,3.272,-1,4
698,4.78921,3.269,-1,4
699,4.79573,3.258,-1,4
700,4.79899,3.254,-1,4
701,4.80224,3.252,-1,4
702,4.80548,3.247,-1,4
703,4.80872,3.239,-1,4
704,4.81195,3.232,-1,4
705,4.81519,3.232,-1,4
706,4.81841,3.217,-1,4
707,4.82484,3.211,-1,4
708,4.82804,3.202,-1,4
709,4.83124,3.201,-1,4
710,4.83444,3.194,-1,4
711,4.83762,3.178,-1,4
712,4.84080,3.178,-1,4
713,4.84397,3.172,-1,4
714,4.84714,3.168,-1,4
715,4.85030,3.159,-1,4
716,4.85345,3.151,-1,4
717,4.85660,3.144,-1,4
718,4.85973,3.135,-1,4
719,4.86599,3.124,-1,4
720,4.87221,3.106,-1,4
721,4.87531,3.098,-1,4
722,4.87531,3.094,-1,4
723,4.87840,3.094,-1,4
724,4.88149,3.084,-1,4
725,4.88456,3.076,-1,4
726,4.89068,3.057,-1,4
727,4.89373,3.050,-1,4
728,4.89677,3.043,-1,4
729,4.90283,3.021,-1,4
730,4.90584,3.012,-1,4
731,4.90885,3.008,-1,4
732,4.91184,2.995,-1,4
733,4.91184,2.989,-1,4
734,4.91483,2.989,-1,4
735,4.91781,2.981,-1,4
736,4.92078,2.966,-1,4
737,4.92375,2.965,-1,4
738,4.92670,2.954,-1,4
739,4.93258,2.936,-1,4
740,4.93551,2.915,-1,4
741,4.94133,2.912,-1,4
742,4.94423,2.898,-1,4
743,4.94712,2.892,-1,4
744,4.95000,2.878,-1,4
745,4.95287,2.872,-1,4
746,4.95859,2.852,-1,4
747,4.96144,2.846,-1,4
748,4.96427,2.835,-1,4
749,4.96710,2.825,-1,4
750,4.96992,2.818,-1,4
751,4.97273,2.813,-1,4
752,4.97553,2.797,-1,4
753,4.97832,2.789,-1,4
754,4.98110,2.783,-1,4
755,4.98387,2.774,-1,4
756,4.98664,2.765,-1,4
757,4.98940,2.756,-1,4
758,4.99488,2.738,-1,4
759,4.99761,2.732,-1,4
760,5.00034,2.726,-1,4
761,5.00305,2.714,-1,4
762,5.00575,2.701,-1,4
763,5.00845,2.699,-1,4
764,5.01114,2.691,-1,4
765,5.01650,2.676,-1,4
766,5.01917,2.668,-1,4
767,5.02182,2.656,-1,4
768,5.02448,2.653,-1,4
769,5.02712,2.638,-1,4
770,5.02976,2.629,-1,4
771,5.03239,2.629,-1,4
772,5.03501,2.623,-1,4
773,5.03763,2.617,-1,4
774,5.04025,2.614,-1,4
775,5.04285,2.604,-1,4
776,5.04545,2.598,-1,4
777,5.04804,2.589,-1,4
778,5.05321,2.579,-1,4
779,5.05578,2.573,-1,4
780,5.06092,2.563,-1,4
781,5.06092,2.558,-1,4
782,5.06348,2.558,-1,4
783,5.06603,2.557,-1,4
784,5.07113,2.545,-1,4
785,5.07367,2.543,-1,4
786,5.07621,2.537,-1,4
787,5.07875,2.536,-1,4
788,5.08381,2.530,-1,4
789,5.08633,2.522,-1,4
790,5.08633,2.519,-1,4
791,5.08885,2.519,-1,4
792,5.09137,2.518,-1,4
793,5.09389,2.519,-1,4
794,5.09640,2.517,-1,4
795,5.09891,2.509,-1,4
796,5.10142,2.508,-1,4
797,5.10393,2.510,-1,4
798,5.10895,2.505,-1,4
799,5.11145,2.502,-1,4
800,5.11396,2.502,-1,4
801,5.11646,2.503,-1,4
802,5.11896,2.503,-1,4
803,5.12397,2.503,-1,4
804,5.12648,2.505,-1,4
805,5.12899,2.508,-1,4
806,5.13149,2.509,-1,4
807,5.13401,2.512,-1,4
808,5.13903,2.515,-1,4
809,5.13903,2.518,-1,4
810,5.14155,2.518,-1,4
811,5.14407,2.523,-1,4
812,5.14660,2.521,-1,4
813,5.14913,2.529,-1,4
814,5.15166,2.535,-1,4
815,5.15674,2.540,-1,4
816,5.15929,2.548,-1,4
817,5.16439,2.555,-1,4
818,5.16695,2.562,-1,4
819,5.16695,2.562,-1,4
820,5.16952,2.568,-1,4
821,5.17209,2.574,-1,4
822,5.17467,2.580,-1,4
823,5.17985,2.594,-1,4
824,5.18246,2.602,-1,4
825,5.18506,2.608,-1,4
826,5.18768,2.617,-1,4
827,5.19030,2.624,-1,4
828,5.19293,2.630,-1,4
829,5.19557,2.639,-1,4
830,5.19823,2.652,-1,4
831,5.20088,2.659,-1,4
832,5.20355,2.665,-1,4
833,5.20623,2.679,-1,4
834,5.20892,2.688,-1,4
835,5.21161,2.693,-1,4
836,5.21703,2.713,-1,4
837,5.21975,2.725,-1,4
838,5.22249,2.735,-1,4
839,5.22523,2.745,-1,4
840,5.22799,2.754,-1,4
841,5.23075,2.764,-1,4
842,5.23631,2.784,-1,4
843,5.23910,2.795,-1,4
844,5.24190,2.801,-1,4
845,5.24472,2.815,-1,4
846,5.24754,2.825,-1,4
847,5.25038,2.832,-1,4
848,5.25322,2.844,-1,4
849,5.25607,2.855,-1,4
850,5.25893,2.859,-1,4
851,5.26180,2.871,-1,4
852,5.26469,2.883,-1,4
853,5.26758,2.890,-1,4
854,5.27048,2.902,-1,4
855,5.27338,2.905,-1,4
856,5.27923,2.928,-1,4
857,5.28217,2.946,-1,4
858,5.28512,2.946,-1,4
859,5.28807,2.952,-1,4
860,5.29103,2.961,-1,4
861,5.29400,2.974,-1,4
862,5.29698,2.976,-1,4
863,5.30296,2.994,-1,4
864,5.30596,3.000,-1,4
865,5.30897,3.008,-1,4
866,5.31198,3.020,-1,4
867,5.31803,3.031,-1,4
868,5.31803,3.035,-1,4
869,5.32107,3.035,-1,4
870,5.32411,3.042,-1,4
871,5.32716,3.048,-1,4
872,5.33021,3.055,-1,4
873,5.33328,3.062,-1,4
