cnt,pos,speed,Dir,Force,
1,3.70464,1.007,-1,4
2,3.70665,0.999,-1,4
3,3.70764,0.989,-1,4
4,3.70863,0.994,-1,4
5,3.70965,1.018,-1,4
6,3.71068,1.032,-1,4
7,3.71170,1.022,-1,4
8,3.71271,1.010,-1,4
9,3.71373,1.019,-1,4
10,3.71477,1.041,-1,4
11,3.71583,1.053,-1,4
12,3.71687,1.043,-1,4
13,3.71791,1.035,-1,4
14,3.71895,1.045,-1,4
15,3.72002,1.066,-1,4
16,3.72109,1.073,-1,4
17,3.72215,1.062,-1,4
18,3.72321,1.060,-1,4
19,3.72428,1.073,-1,4
20,3.72538,1.091,-1,4
21,3.72647,1.093,-1,4
22,3.72755,1.085,-1,4
23,3.72864,1.084,-1,4
24,3.72973,1.097,-1,4
25,3.73084,1.110,-1,4
26,3.73195,1.110,-1,4
27,3.73306,1.110,-1,4
28,3.73418,1.116,-1,4
29,3.73530,1.122,-1,4
30,3.73643,1.124,-1,4
31,3.73755,1.129,-1,4
32,3.73869,1.135,-1,4
33,3.73983,1.140,-1,4
34,3.74097,1.144,-1,4
35,3.74212,1.148,-1,4
36,3.74328,1.157,-1,4
37,3.74444,1.160,-1,4
38,3.74560,1.158,-1,4
39,3.74676,1.161,-1,4
40,3.74793,1.173,-1,4
41,3.74911,1.183,-1,4
42,3.75029,1.180,-1,4
43,3.75148,1.182,-1,4
44,3.75267,1.189,-1,4
45,3.75386,1.197,-1,4
46,3.75506,1.198,-1,4
47,3.75626,1.198,-1,4
48,3.75746,1.205,-1,4
49,3.75868,1.220,-1,4
50,3.75990,1.217,-1,4
51,3.76112,1.216,-1,4
52,3.76234,1.224,-1,4
53,3.76357,1.227,-1,4
54,3.76480,1.233,-1,4
55,3.76604,1.236,-1,4
56,3.76728,1.248,-1,4
57,3.76853,1.247,-1,4
58,3.76978,1.248,-1,4
59,3.77103,1.250,-1,4
60,3.77229,1.264,-1,4
61,3.77356,1.265,-1,4
62,3.77483,1.269,-1,4
63,3.77610,1.274,-1,4
64,3.77738,1.276,-1,4
65,3.77866,1.279,-1,4
66,3.77994,1.284,-1,4
67,3.78124,1.296,-1,4
68,3.78254,1.302,-1,4
69,3.78383,1.297,-1,4
70,3.78513,1.296,-1,4
71,3.78644,1.308,-1,4
72,3.78776,1.317,-1,4
73,3.78907,1.319,-1,4
74,3.79040,1.323,-1,4
75,3.79172,1.325,-1,4
76,3.79305,1.327,-1,4
77,3.79438,1.334,-1,4
78,3.79573,1.342,-1,4
79,3.79707,1.348,-1,4
80,3.79842,1.349,-1,4
81,3.79978,1.353,-1,4
82,3.80113,1.357,-1,4
83,3.80249,1.360,-1,4
84,3.80386,1.368,-1,4
85,3.80524,1.381,-1,4
86,3.80662,1.381,-1,4
87,3.80800,1.377,-1,4
88,3.80939,1.385,-1,4
89,3.81078,1.396,-1,4
90,3.81218,1.400,-1,4
91,3.81359,1.404,-1,4
92,3.81500,1.410,-1,4
93,3.81641,1.412,-1,4
94,3.81782,1.417,-1,4
95,3.81925,1.425,-1,4
96,3.82068,1.431,-1,4
97,3.82211,1.433,-1,4
98,3.82355,1.442,-1,4
99,3.82500,1.448,-1,4
100,3.82645,1.448,-1,4
101,3.82791,1.454,-1,4
102,3.82938,1.470,-1,4
103,3.83085,1.473,-1,4
104,3.83232,1.472,-1,4
105,3.83380,1.479,-1,4
106,3.83528,1.483,-1,4
107,3.83678,1.499,-1,4
108,3.83829,1.511,-1,4
109,3.83980,1.505,-1,4
110,3.84130,1.502,-1,4
111,3.84281,1.513,-1,4
112,3.84435,1.535,-1,4
113,3.84589,1.542,-1,4
114,3.84743,1.538,-1,4
115,3.84896,1.533,-1,4
116,3.85050,1.543,-1,4
117,3.85207,1.569,-1,4
118,3.85365,1.579,-1,4
119,3.85522,1.569,-1,4
120,3.85679,1.569,-1,4
121,3.85837,1.581,-1,4
122,3.85998,1.604,-1,4
123,3.86159,1.613,-1,4
124,3.86319,1.606,-1,4
125,3.86480,1.601,-1,4
126,3.86642,1.623,-1,4
127,3.86806,1.646,-1,4
128,3.86971,1.648,-1,4
129,3.87135,1.639,-1,4
130,3.87299,1.641,-1,4
131,3.87466,1.663,-1,4
132,3.87634,1.687,-1,4
133,3.87803,1.686,-1,4
134,3.87970,1.673,-1,4
135,3.88138,1.680,-1,4
136,3.88309,1.707,-1,4
137,3.88482,1.729,-1,4
138,3.88654,1.725,-1,4
139,3.88825,1.710,-1,4
140,3.88997,1.720,-1,4
141,3.89172,1.750,-1,4
142,3.89349,1.769,-1,4
143,3.89525,1.761,-1,4
144,3.89700,1.747,-1,4
145,3.89876,1.761,-1,4
146,3.90055,1.792,-1,4
147,3.90236,1.806,-1,4
148,3.90415,1.794,-1,4
149,3.90594,1.785,-1,4
150,3.90774,1.802,-1,4
151,3.90957,1.834,-1,4
152,3.91141,1.839,-1,4
153,3.91324,1.826,-1,4
154,3.91507,1.827,-1,4
155,3.91691,1.846,-1,4
156,3.91879,1.872,-1,4
157,3.92066,1.871,-1,4
158,3.92252,1.866,-1,4
159,3.92439,1.869,-1,4
160,3.92628,1.889,-1,4
161,3.92818,1.906,-1,4
162,3.93009,1.905,-1,4
163,3.93199,1.903,-1,4
164,3.93391,1.914,-1,4
165,3.93584,1.928,-1,4
166,3.93777,1.938,-1,4
167,3.93972,1.943,-1,4
168,3.94166,1.948,-1,4
169,3.94362,1.956,-1,4
170,3.94558,1.964,-1,4
171,3.94756,1.978,-1,4
172,3.94955,1.984,-1,4
173,3.95153,1.987,-1,4
174,3.95352,1.989,-1,4
175,3.95553,2.002,-1,4
176,3.95754,2.015,-1,4
177,3.95956,2.020,-1,4
178,3.96158,2.023,-1,4
179,3.96361,2.029,-1,4
180,3.96565,2.039,-1,4
181,3.96770,2.048,-1,4
182,3.96975,2.053,-1,4
183,3.97181,2.060,-1,4
184,3.97388,2.065,-1,4
185,3.97595,2.070,-1,4
186,3.97802,2.075,-1,4
187,3.98011,2.089,-1,4
188,3.98221,2.094,-1,4
189,3.98430,2.092,-1,4
190,3.98639,2.095,-1,4
191,3.98850,2.108,-1,4
192,3.99062,2.119,-1,4
193,3.99274,2.117,-1,4
194,3.99486,2.120,-1,4
195,3.99698,2.123,-1,4
196,3.99911,2.134,-1,4
197,4.00125,2.138,-1,4
198,4.00339,2.141,-1,4
199,4.00554,2.143,-1,4
200,4.00768,2.147,-1,4
201,4.00983,2.152,-1,4
202,4.01199,2.158,-1,4
203,4.01415,2.161,-1,4
204,4.01631,2.159,-1,4
205,4.01848,2.165,-1,4
206,4.02065,2.170,-1,4
207,4.02282,2.172,-1,4
208,4.02499,2.172,-1,4
209,4.02717,2.178,-1,4
210,4.02935,2.182,-1,4
211,4.03153,2.180,-1,4
212,4.03371,2.180,-1,4
213,4.03590,2.186,-1,4
214,4.03809,2.190,-1,4
215,4.04028,2.188,-1,4
216,4.04247,2.189,-1,4
217,4.04466,2.193,-1,4
218,4.04685,2.197,-1,4
219,4.04905,2.194,-1,4
220,4.05125,2.196,-1,4
221,4.05344,2.196,-1,4
222,4.05564,2.199,-1,4
223,4.05784,2.200,-1,4
224,4.06004,2.202,-1,4
225,4.06224,2.198,-1,4
226,4.06444,2.200,-1,4
227,4.06664,2.204,-1,4
228,4.06885,2.204,-1,4
229,4.07104,2.198,-1,4
230,4.07324,2.200,-1,4
231,4.07545,2.207,-1,4
232,4.07766,2.204,-1,4
233,4.07985,2.198,-1,4
234,4.08205,2.198,-1,4
235,4.08426,2.206,-1,4
236,4.08646,2.202,-1,4
237,4.08866,2.198,-1,4
238,4.09086,2.198,-1,4
239,4.09306,2.201,-1,4
240,4.09525,2.196,-1,4
241,4.09745,2.197,-1,4
242,4.09965,2.196,-1,4
243,4.10184,2.194,-1,4
244,4.10403,2.193,-1,4
245,4.10623,2.195,-1,4
246,4.10842,2.190,-1,4
247,4.11060,2.186,-1,4
248,4.11279,2.189,-1,4
249,4.11498,2.189,-1,4
250,4.11717,2.186,-1,4
251,4.11935,2.179,-1,4
252,4.12153,2.184,-1,4
253,4.12371,2.183,-1,4
254,4.12589,2.178,-1,4
255,4.12806,2.172,-1,4
256,4.13024,2.176,-1,4
257,4.13242,2.177,-1,4
258,4.13459,2.171,-1,4
259,4.13675,2.168,-1,4
260,4.13892,2.168,-1,4
261,4.14109,2.167,-1,4
262,4.14325,2.164,-1,4
263,4.14542,2.162,-1,4
264,4.14758,2.161,-1,4
265,4.14974,2.159,-1,4
266,4.15189,2.157,-1,4
267,4.15405,2.156,-1,4
268,4.15620,2.150,-1,4
269,4.15835,2.148,-1,4
270,4.16050,2.151,-1,4
271,4.16265,2.150,-1,4
272,4.16479,2.141,-1,4
273,4.16693,2.139,-1,4
274,4.16907,2.146,-1,4
275,4.17122,2.143,-1,4
276,4.17335,2.135,-1,4
277,4.17548,2.131,-1,4
278,4.17762,2.136,-1,4
279,4.17975,2.137,-1,4
280,4.18188,2.129,-1,4
281,4.18401,2.126,-1,4
282,4.18613,2.126,-1,4
283,4.18826,2.127,-1,4
284,4.19039,2.127,-1,4
285,4.19251,2.125,-1,4
286,4.19463,2.118,-1,4
287,4.19675,2.119,-1,4
288,4.19887,2.122,-1,4
289,4.20099,2.122,-1,4
290,4.20311,2.117,-1,4
291,4.20523,2.114,-1,4
292,4.20735,2.120,-1,4
293,4.20946,2.119,-1,4
294,4.21158,2.116,-1,4
295,4.21369,2.109,-1,4
296,4.21581,2.119,-1,4
297,4.21793,2.120,-1,4
298,4.22004,2.115,-1,4
299,4.22215,2.111,-1,4
300,4.22427,2.116,-1,4
301,4.22639,2.121,-1,4
302,4.22851,2.118,-1,4
303,4.23063,2.117,-1,4
304,4.23274,2.116,-1,4
305,4.23486,2.121,-1,4
306,4.23698,2.119,-1,4
307,4.23910,2.120,-1,4
308,4.24122,2.120,-1,4
309,4.24335,2.124,-1,4
310,4.24547,2.124,-1,4
311,4.24760,2.126,-1,4
312,4.24972,2.125,-1,4
313,4.25185,2.124,-1,4
314,4.25398,2.130,-1,4
315,4.25611,2.135,-1,4
316,4.25824,2.133,-1,4
317,4.26037,2.128,-1,4
318,4.26251,2.135,-1,4
319,4.26465,2.142,-1,4
320,4.26679,2.140,-1,4
321,4.26893,2.139,-1,4
322,4.27107,2.144,-1,4
323,4.27322,2.150,-1,4
324,4.27537,2.148,-1,4
325,4.27752,2.151,-1,4
326,4.27968,2.154,-1,4
327,4.28183,2.157,-1,4
328,4.28399,2.159,-1,4
329,4.28615,2.163,-1,4
330,4.28832,2.164,-1,4
331,4.29048,2.165,-1,4
332,4.29265,2.170,-1,4
333,4.29483,2.174,-1,4
334,4.29700,2.172,-1,4
335,4.29917,2.173,-1,4
336,4.30136,2.183,-1,4
337,4.30354,2.186,-1,4
338,4.30572,2.182,-1,4
339,4.30791,2.183,-1,4
340,4.31010,2.192,-1,4
341,4.31229,2.196,-1,4
342,4.31449,2.193,-1,4
343,4.31668,2.194,-1,4
344,4.31888,2.202,-1,4
345,4.32109,2.207,-1,4
346,4.32330,2.206,-1,4
347,4.32550,2.208,-1,4
348,4.32771,2.209,-1,4
349,4.32993,2.213,-1,4
350,4.33214,2.219,-1,4
351,4.33437,2.222,-1,4
352,4.33658,2.218,-1,4
353,4.33881,2.222,-1,4
354,4.34103,2.227,-1,4
355,4.34326,2.230,-1,4
356,4.34549,2.227,-1,4
357,4.34772,2.232,-1,4
358,4.34996,2.236,-1,4
359,4.35219,2.237,-1,4
360,4.35443,2.235,-1,4
361,4.35667,2.244,-1,4
362,4.35892,2.248,-1,4
363,4.36117,2.243,-1,4
364,4.36341,2.245,-1,4
365,4.36566,2.250,-1,4
366,4.36791,2.253,-1,4
367,4.37016,2.250,-1,4
368,4.37242,2.253,-1,4
369,4.37467,2.256,-1,4
370,4.37693,2.259,-1,4
371,4.37919,2.258,-1,4
372,4.38145,2.259,-1,4
373,4.38370,2.257,-1,4
374,4.38597,2.261,-1,4
375,4.38823,2.265,-1,4
376,4.39050,2.265,-1,4
377,4.39276,2.260,-1,4
378,4.39502,2.262,-1,4
379,4.39729,2.269,-1,4
380,4.39956,2.268,-1,4
381,4.40182,2.263,-1,4
382,4.40409,2.267,-1,4
383,4.40636,2.270,-1,4
384,4.40863,2.270,-1,4
385,4.41089,2.265,-1,4
386,4.41316,2.272,-1,4
387,4.41544,2.275,-1,4
388,4.41771,2.271,-1,4
389,4.41998,2.271,-1,4
390,4.42226,2.276,-1,4
391,4.42453,2.276,-1,4
392,4.42681,2.275,-1,4
393,4.42909,2.280,-1,4
394,4.43137,2.278,-1,4
395,4.43365,2.279,-1,4
396,4.43593,2.284,-1,4
397,4.43821,2.285,-1,4
398,4.44050,2.282,-1,4
399,4.44278,2.287,-1,4
400,4.44507,2.291,-1,4
401,4.44736,2.291,-1,4
402,4.44965,2.288,-1,4
403,4.45195,2.299,-1,4
404,4.45425,2.302,-1,4
405,4.45655,2.298,-1,4
406,4.45885,2.297,-1,4
407,4.46116,2.311,-1,4
408,4.46347,2.311,-1,4
409,4.46578,2.312,-1,4
410,4.47042,2.320,-1,4
411,4.47274,2.326,-1,4
412,4.47507,2.329,-1,4
413,4.47740,2.331,-1,4
414,4.47974,2.337,-1,4
415,4.48208,2.342,-1,4
416,4.48443,2.349,-1,4
417,4.48678,2.350,-1,4
418,4.48914,2.360,-1,4
419,4.49151,2.367,-1,4
420,4.49387,2.368,-1,4
421,4.49625,2.385,-1,4
422,4.50103,2.393,-1,4
423,4.50343,2.398,-1,4
424,4.50583,2.403,-1,4
425,4.50824,2.414,-1,4
426,4.51067,2.425,-1,4
427,4.51554,2.437,-1,4
428,4.51798,2.448,-1,4
429,4.52044,2.456,-1,4
430,4.52291,2.465,-1,4
431,4.52538,2.473,-1,4
432,4.52787,2.486,-1,4
433,4.53036,2.496,-1,4
434,4.53287,2.505,-1,4
435,4.53538,2.516,-1,4
436,4.53791,2.527,-1,4
437,4.54045,2.537,-1,4
438,4.54299,2.546,-1,4
439,4.54555,2.560,-1,4
440,4.54812,2.572,-1,4
441,4.55071,2.581,-1,4
442,4.55330,2.594,-1,4
443,4.55853,2.621,-1,4
444,4.56116,2.632,-1,4
445,4.56381,2.643,-1,4
446,4.56646,2.659,-1,4
447,4.56914,2.674,-1,4
448,4.57182,2.686,-1,4
449,4.57453,2.701,-1,4
450,4.57724,2.713,-1,4
451,4.57996,2.724,-1,4
452,4.58270,2.742,-1,4
453,4.58546,2.759,-1,4
454,4.58823,2.771,-1,4
455,4.59381,2.801,-1,4
456,4.59663,2.816,-1,4
457,4.59946,2.829,-1,4
458,4.60230,2.846,-1,4
459,4.60516,2.858,-1,4
460,4.60804,2.874,-1,4
461,4.61093,2.892,-1,4
462,4.61384,2.906,-1,4
463,4.61675,2.917,-1,4
464,4.62264,2.953,-1,4
465,4.62561,2.966,-1,4
466,4.62859,2.998,-1,4
467,4.63159,2.998,-1,4
468,4.63460,3.014,-1,4
469,4.63763,3.028,-1,4
470,4.64067,3.044,-1,4
471,4.64373,3.060,-1,4
472,4.64680,3.071,-1,4
473,4.64989,3.088,-1,4
474,4.65300,3.103,-1,4
475,4.65611,3.119,-1,4
476,4.65925,3.144,-1,4
477,4.66555,3.158,-1,4
478,4.66872,3.172,-1,4
479,4.67191,3.188,-1,4
480,4.67511,3.200,-1,4
481,4.67831,3.207,-1,4
482,4.68154,3.222,-1,4
483,4.68477,3.235,-1,4
484,4.68802,3.246,-1,4
485,4.69128,3.260,-1,4
486,4.69454,3.263,-1,4
487,4.69782,3.278,-1,4
488,4.70111,3.287,-1,4
489,4.70440,3.299,-1,4
490,4.70771,3.306,-1,4
491,4.71435,3.322,-1,4
492,4.71768,3.333,-1,4
493,4.72102,3.341,-1,4
494,4.72436,3.344,-1,4
495,4.72772,3.354,-1,4
496,4.73108,3.368,-1,4
497,4.73782,3.372,-1,4
498,4.74119,3.374,-1,4
499,4.74457,3.381,-1,4
500,4.74796,3.385,-1,4
501,4.75135,3.390,-1,4
502,4.75474,3.392,-1,4
503,4.75813,3.392,-1,4
504,4.76153,3.398,-1,4
505,4.76493,3.399,-1,4
506,4.76833,3.401,-1,4
507,4.77173,3.401,-1,4
508,4.77513,3.404,-1,4
509,4.77853,3.400,-1,4
510,4.78193,3.401,-1,4
511,4.78534,3.402,-1,4
512,4.79214,3.400,-1,4
513,4.79554,3.398,-1,4
514,4.80233,3.393,-1,4
515,4.80233,3.393,-1,4
516,4.80572,3.393,-1,4
517,4.80911,3.385,-1,4
518,4.81249,3.384,-1,4
519,4.81587,3.381,-1,4
520,4.81925,3.379,-1,4
521,4.82263,3.372,-1,4
522,4.82599,3.364,-1,4
523,4.82935,3.359,-1,4
524,4.83605,3.349,-1,4
525,4.83940,3.343,-1,4
526,4.84273,3.337,-1,4
527,4.84607,3.332,-1,4
528,4.84939,3.325,-1,4
529,4.85271,3.316,-1,4
530,4.85602,3.309,-1,4
531,4.85932,3.301,-1,4
532,4.86261,3.297,-1,4
533,4.86918,3.282,-1,4
534,4.87245,3.270,-1,4
535,4.87897,3.255,-1,4
536,4.88222,3.246,-1,4
537,4.88546,3.237,-1,4
538,4.88869,3.230,-1,4
539,4.89190,3.218,-1,4
540,4.89511,3.210,-1,4
541,4.89832,3.203,-1,4
542,4.90151,3.193,-1,4
543,4.90469,3.182,-1,4
544,4.90786,3.172,-1,4
545,4.91103,3.162,-1,4
546,4.91418,3.154,-1,4
547,4.91733,3.147,-1,4
548,4.92359,3.129,-1,4
549,4.92671,3.119,-1,4
550,4.92982,3.109,-1,4
551,4.93292,3.098,-1,4
552,4.93601,3.091,-1,4
553,4.93909,3.081,-1,4
554,4.94216,3.072,-1,4
555,4.94522,3.061,-1,4
556,4.94827,3.051,-1,4
557,4.95132,3.042,-1,4
558,4.95435,3.036,-1,4
559,4.95738,3.024,-1,4
560,4.96039,3.011,-1,4
561,4.96638,2.992,-1,4
562,4.96937,2.983,-1,4
563,4.97235,2.978,-1,4
564,4.97531,2.965,-1,4
565,4.97826,2.953,-1,4
566,4.98121,2.945,-1,4
567,4.98414,2.936,-1,4
568,4.98998,2.916,-1,4
569,4.99289,2.905,-1,4
570,4.99578,2.895,-1,4
571,4.99867,2.887,-1,4
572,5.00155,2.880,-1,4
573,5.00442,2.865,-1,4
574,5.00727,2.855,-1,4
575,5.01012,2.848,-1,4
576,5.01296,2.838,-1,4
577,5.01579,2.831,-1,4
578,5.01861,2.823,-1,4
579,5.02142,2.810,-1,4
580,5.02422,2.800,-1,4
581,5.02981,2.787,-1,4
582,5.03258,2.769,-1,4
583,5.03535,2.769,-1,4
584,5.03811,2.760,-1,4
585,5.04087,2.756,-1,4
586,5.04361,2.749,-1,4
587,5.04636,2.742,-1,4
588,5.04909,2.736,-1,4
589,5.05182,2.727,-1,4
590,5.05454,2.721,-1,4
591,5.05726,2.717,-1,4
592,5.05997,2.713,-1,4
593,5.06538,2.705,-1,4
594,5.06808,2.699,-1,4
595,5.07077,2.692,-1,4
596,5.07346,2.690,-1,4
597,5.07615,2.686,-1,4
598,5.07883,2.681,-1,4
599,5.08150,2.678,-1,4
600,5.08685,2.672,-1,4
601,5.08952,2.665,-1,4
602,5.09484,2.664,-1,4
603,5.09484,2.664,-1,4
604,5.09751,2.662,-1,4
605,5.10016,2.653,-1,4
606,5.10281,2.652,-1,4
607,5.10546,2.652,-1,4
608,5.10811,2.650,-1,4
609,5.11076,2.647,-1,4
610,5.11341,2.647,-1,4
611,5.11605,2.642,-1,4
612,5.11869,2.640,-1,4
613,5.12133,2.645,-1,4
614,5.12397,2.640,-1,4
615,5.12662,2.638,-1,4
616,5.13190,2.640,-1,4
617,5.13454,2.640,-1,4
618,5.13718,2.640,-1,4
619,5.13982,2.644,-1,4
620,5.14246,2.645,-1,4
621,5.14511,2.645,-1,4
622,5.14775,2.640,-1,4
623,5.15040,2.651,-1,4
624,5.15305,2.651,-1,4
625,5.15570,2.651,-1,4
626,5.15836,2.656,-1,4
627,5.16102,2.658,-1,4
628,5.16634,2.663,-1,4
629,5.16901,2.667,-1,4
630,5.17168,2.673,-1,4
631,5.17435,2.673,-1,4
632,5.17703,2.677,-1,4
633,5.17971,2.681,-1,4
634,5.18239,2.688,-1,4
635,5.18508,2.695,-1,4
636,5.19048,2.700,-1,4
637,5.19318,2.703,-1,4
638,5.19589,2.707,-1,4
639,5.19860,2.720,-1,4
640,5.20132,2.723,-1,4
641,5.20404,2.723,-1,4
642,5.20678,2.735,-1,4
643,5.20952,2.737,-1,4
644,5.21226,2.741,-1,4
645,5.21501,2.749,-1,4
646,5.21776,2.753,-1,4
647,5.22052,2.760,-1,4
648,5.22328,2.764,-1,4
649,5.22883,2.775,-1,4
650,5.23439,2.785,-1,4
651,5.23439,2.792,-1,4
652,5.23719,2.792,-1,4
653,5.23998,2.798,-1,4
654,5.24278,2.801,-1,4
655,5.24559,2.807,-1,4
656,5.24840,2.815,-1,4
657,5.25122,2.815,-1,4
658,5.25404,2.824,-1,4
659,5.25687,2.826,-1,4
660,5.25970,2.830,-1,4
661,5.26254,2.837,-1,4
662,5.26822,2.847,-1,4
663,5.27108,2.851,-1,4
664,5.27393,2.851,-1,4
665,5.27679,2.860,-1,4
666,5.27965,2.864,-1,4
667,5.28252,2.868,-1,4
668,5.28539,2.871,-1,4
669,5.28826,2.869,-1,4
670,5.29114,2.881,-1,4
671,5.29402,2.882,-1,4
672,5.29979,2.885,-1,4
673,5.30268,2.891,-1,4
674,5.30557,2.892,-1,4
675,5.30847,2.894,-1,4
676,5.31136,2.898,-1,4
677,5.31426,2.896,-1,4
678,5.31716,2.902,-1,4
679,5.32007,2.904,-1,4
680,5.32297,2.906,-1,4
681,5.32587,2.903,-1,4
682,5.32878,2.908,-1,4
683,5.33170,2.914,-1,4
684,5.33461,2.912,-1,4
685,5.33752,2.915,-1,4
686,5.34335,2.916,-1,4
687,5.34627,2.920,-1,4
688,5.34920,2.924,-1,4
689,5.35212,2.924,-1,4
690,5.35505,2.923,-1,4
691,5.35798,2.929,-1,4
692,5.36091,2.930,-1,4
693,5.36384,2.938,-1,4
694,5.36678,2.935,-1,4
695,5.36971,2.934,-1,4
696,5.37265,2.940,-1,4
697,5.37854,2.946,-1,4
698,5.38149,2.949,-1,4
699,5.38444,2.950,-1,4
700,5.38739,2.950,-1,4
701,5.39035,2.958,-1,4
702,5.39331,2.960,-1,4
703,5.39628,2.968,-1,4
704,5.39925,2.968,-1,4
705,5.40222,2.976,-1,4
706,5.40818,2.984,-1,4
707,5.41116,2.992,-1,4
708,5.41715,2.993,-1,4
709,5.41715,3.002,-1,4
710,5.42015,3.002,-1,4
711,5.42316,3.009,-1,4
712,5.42617,3.014,-1,4
713,5.42919,3.017,-1,4
714,5.43221,3.024,-1,4
715,5.43524,3.032,-1,4
716,5.43828,3.037,-1,4
717,5.44133,3.047,-1,4
718,5.44438,3.051,-1,4
719,5.45050,3.067,-1,4
720,5.45358,3.077,-1,4
721,5.45666,3.082,-1,4
722,5.45975,3.089,-1,4
723,5.46285,3.099,-1,4
724,5.46596,3.109,-1,4
725,5.46908,3.118,-1,4
726,5.47220,3.125,-1,4
727,5.47534,3.135,-1,4
728,5.47848,3.143,-1,4
729,5.48164,3.158,-1,4
730,5.48481,3.167,-1,4
731,5.48798,3.174,-1,4
732,5.49437,3.199,-1,4
733,5.49757,3.207,-1,4
734,5.50079,3.221,-1,4
735,5.50402,3.230,-1,4
736,5.50727,3.243,-1,4
737,5.51052,3.255,-1,4
738,5.51378,3.264,-1,4
739,5.52035,3.290,-1,4
740,5.52365,3.301,-1,4
741,5.52696,3.310,-1,4
742,5.53029,3.324,-1,4
743,5.53362,3.337,-1,4
744,5.53698,3.352,-1,4
745,5.54034,3.363,-1,4
746,5.54371,3.373,-1,4
747,5.54710,3.388,-1,4
748,5.55050,3.402,-1,4
749,5.55392,3.415,-1,4
750,5.55735,3.430,-1,4
751,5.56078,3.437,-1,4
752,5.56424,3.455,-1,4
753,5.57119,3.484,-1,4
754,5.57468,3.492,-1,4
755,5.57819,3.507,-1,4
756,5.58171,3.519,-1,4
757,5.58524,3.537,-1,4
758,5.58879,3.548,-1,4
759,5.59235,3.560,-1,4
760,5.59592,3.572,-1,4
761,5.59951,3.586,-1,4
762,5.60311,3.603,-1,4
763,5.60673,3.613,-1,4
764,5.61035,3.626,-1,4
765,5.61764,3.654,-1,4
766,5.62131,3.679,-1,4
767,5.62499,3.679,-1,4
768,5.62868,3.687,-1,4
769,5.63238,3.705,-1,4
770,5.63610,3.717,-1,4
771,5.63983,3.730,-1,4
772,5.64357,3.738,-1,4
773,5.64732,3.752,-1,4
774,5.65486,3.775,-1,4
775,5.65864,3.784,-1,4
776,5.66624,3.807,-1,4
777,5.66624,3.807,-1,4
778,5.67006,3.816,-1,4
779,5.67388,3.826,-1,4
780,5.67772,3.832,-1,4
781,5.68156,3.843,-1,4
782,5.68541,3.850,-1,4
783,5.68927,3.860,-1,4
784,5.69314,3.867,-1,4
785,5.69701,3.876,-1,4
786,5.70089,3.889,-1,4
787,5.70868,3.895,-1,4
788,5.71258,3.901,-1,4
789,5.71649,3.907,-1,4
790,5.72039,3.910,-1,4
791,5.72431,3.918,-1,4
792,5.72824,3.923,-1,4
793,5.73216,3.924,-1,4
794,5.73609,3.925,-1,4
795,5.74001,3.929,-1,4
796,5.74395,3.933,-1,4
797,5.74788,3.937,-1,4
798,5.75182,3.935,-1,4
799,5.75576,3.937,-1,4
800,5.75969,3.936,-1,4
801,5.76757,3.938,-1,4
802,5.77151,3.941,-1,4
803,5.77545,3.941,-1,4
804,5.77939,3.937,-1,4
805,5.78332,3.936,-1,4
806,5.78726,3.938,-1,4
807,5.79120,3.935,-1,4
808,5.79906,3.930,-1,4
809,5.80299,3.927,-1,4
810,5.80691,3.925,-1,4
811,5.81084,3.924,-1,4
812,5.81475,3.918,-1,4
813,5.81867,3.914,-1,4
814,5.82258,3.910,-1,4
815,5.82648,3.906,-1,4
816,5.83039,3.904,-1,4
817,5.83428,3.896,-1,4
818,5.83818,3.892,-1,4
819,5.84206,3.886,-1,4
820,5.84594,3.879,-1,4
821,5.84982,3.878,-1,4
822,5.85369,3.872,-1,4
823,5.86141,3.854,-1,4
824,5.86526,3.852,-1,4
825,5.86910,3.845,-1,4
826,5.87294,3.838,-1,4
827,5.87677,3.826,-1,4
828,5.88059,3.819,-1,4
829,5.88440,3.813,-1,4
830,5.88821,3.811,-1,4
831,5.89201,3.800,-1,4
832,5.89580,3.788,-1,4
833,5.89958,3.779,-1,4
834,5.90335,3.777,-1,4
835,5.91088,3.759,-1,4
836,5.91463,3.749,-1,4
837,5.91837,3.737,-1,4
838,5.92210,3.738,-1,4
839,5.92583,3.728,-1,4
840,5.92955,3.719,-1,4
841,5.93325,3.703,-1,4
842,5.93695,3.696,-1,4
843,5.94064,3.688,-1,4
844,5.94799,3.674,-1,4
845,5.95166,3.647,-1,4
846,5.95530,3.647,-1,4
847,5.95894,3.639,-1,4
848,5.96258,3.634,-1,4
849,5.96620,3.627,-1,4
850,5.96982,3.616,-1,4
851,5.97342,3.602,-1,4
852,5.97702,3.595,-1,4
853,5.98060,3.588,-1,4
854,5.98418,3.578,-1,4
855,5.98775,3.566,-1,4
856,5.99131,3.558,-1,4
857,5.99485,3.545,-1,4
858,5.99839,3.541,-1,4
859,6.00545,3.521,-1,4
860,6.00896,3.510,-1,4
861,6.01246,3.500,-1,4
862,6.01595,3.490,-1,4
863,6.01943,3.481,-1,4
864,6.02290,3.474,-1,4
865,6.02636,3.462,-1,4
866,6.02982,3.452,-1,4
867,6.03325,3.437,-1,4
868,6.03669,3.434,-1,4
869,6.04011,3.424,-1,4
870,6.04352,3.410,-1,4
871,6.04692,3.390,-1,4
872,6.05369,3.382,-1,4
873,6.05707,3.378,-1,4
