cnt,pos,speed,Dir,Force,
1,3.73389,1.004,-1,4
2,3.73488,0.990,-1,4
3,3.73586,0.979,-1,4
4,3.73685,0.990,-1,4
5,3.73786,1.012,-1,4
6,3.73888,1.019,-1,4
7,3.73989,1.005,-1,4
8,3.74088,0.996,-1,4
9,3.74190,1.012,-1,4
10,3.74293,1.033,-1,4
11,3.74396,1.034,-1,4
12,3.74498,1.020,-1,4
13,3.74600,1.014,-1,4
14,3.74703,1.032,-1,4
15,3.74808,1.051,-1,4
16,3.74913,1.051,-1,4
17,3.75017,1.035,-1,4
18,3.75120,1.035,-1,4
19,3.75226,1.055,-1,4
20,3.75333,1.071,-1,4
21,3.75439,1.060,-1,4
22,3.75543,1.056,-1,4
23,3.75649,1.082,-1,4
24,3.75757,1.082,-1,4
25,3.75866,1.086,-1,4
26,3.75973,1.071,-1,4
27,3.76079,1.064,-1,4
28,3.76188,1.084,-1,4
29,3.76298,1.100,-1,4
30,3.76516,1.083,-1,4
31,3.76625,1.091,-1,4
32,3.76736,1.112,-1,4
33,3.76847,1.115,-1,4
34,3.76958,1.103,-1,4
35,3.77068,1.102,-1,4
36,3.77180,1.119,-1,4
37,3.77293,1.131,-1,4
38,3.77406,1.126,-1,4
39,3.77518,1.121,-1,4
40,3.77631,1.130,-1,4
41,3.77745,1.141,-1,4
42,3.77859,1.142,-1,4
43,3.77973,1.140,-1,4
44,3.78087,1.145,-1,4
45,3.78203,1.156,-1,4
46,3.78319,1.156,-1,4
47,3.78434,1.154,-1,4
48,3.78550,1.157,-1,4
49,3.78666,1.166,-1,4
50,3.78783,1.168,-1,4
51,3.78900,1.172,-1,4
52,3.79018,1.176,-1,4
53,3.79136,1.180,-1,4
54,3.79254,1.176,-1,4
55,3.79372,1.179,-1,4
56,3.79490,1.188,-1,4
57,3.79610,1.196,-1,4
58,3.79729,1.193,-1,4
59,3.79848,1.193,-1,4
60,3.80089,1.204,-1,4
61,3.80209,1.204,-1,4
62,3.80209,1.203,-1,4
63,3.80329,1.203,-1,4
64,3.80451,1.215,-1,4
65,3.80573,1.220,-1,4
66,3.80694,1.215,-1,4
67,3.80816,1.213,-1,4
68,3.80938,1.230,-1,4
69,3.81183,1.225,-1,4
70,3.81306,1.224,-1,4
71,3.81429,1.232,-1,4
72,3.81552,1.235,-1,4
73,3.81676,1.232,-1,4
74,3.81799,1.230,-1,4
75,3.81922,1.238,-1,4
76,3.82046,1.240,-1,4
77,3.82171,1.241,-1,4
78,3.82295,1.240,-1,4
79,3.82419,1.245,-1,4
80,3.82543,1.240,-1,4
81,3.82667,1.242,-1,4
82,3.82792,1.247,-1,4
83,3.82917,1.255,-1,4
84,3.83042,1.248,-1,4
85,3.83167,1.245,-1,4
86,3.83292,1.248,-1,4
87,3.83417,1.252,-1,4
88,3.83542,1.250,-1,4
89,3.83667,1.251,-1,4
90,3.83792,1.256,-1,4
91,3.83918,1.254,-1,4
92,3.84042,1.246,-1,4
93,3.84167,1.245,-1,4
94,3.84292,1.252,-1,4
95,3.84417,1.253,-1,4
96,3.84543,1.252,-1,4
97,3.84667,1.246,-1,4
98,3.84916,1.242,-1,4
99,3.85041,1.245,-1,4
100,3.85165,1.250,-1,4
101,3.85291,1.251,-1,4
102,3.85414,1.237,-1,4
103,3.85538,1.236,-1,4
104,3.85662,1.242,-1,4
105,3.85787,1.247,-1,4
106,3.85910,1.237,-1,4
107,3.86034,1.234,-1,4
108,3.86157,1.233,-1,4
109,3.86281,1.236,-1,4
110,3.86404,1.230,-1,4
111,3.86526,1.228,-1,4
112,3.86649,1.230,-1,4
113,3.86772,1.229,-1,4
114,3.86894,1.223,-1,4
115,3.87017,1.220,-1,4
116,3.87139,1.220,-1,4
117,3.87260,1.214,-1,4
118,3.87381,1.214,-1,4
119,3.87503,1.218,-1,4
120,3.87625,1.216,-1,4
121,3.87745,1.207,-1,4
122,3.87865,1.199,-1,4
123,3.87986,1.203,-1,4
124,3.88107,1.208,-1,4
125,3.88226,1.200,-1,4
126,3.88346,1.194,-1,4
127,3.88465,1.195,-1,4
128,3.88585,1.194,-1,4
129,3.88704,1.191,-1,4
130,3.88822,1.183,-1,4
131,3.88941,1.184,-1,4
132,3.89059,1.186,-1,4
133,3.89177,1.181,-1,4
134,3.89295,1.177,-1,4
135,3.89412,1.174,-1,4
136,3.89530,1.173,-1,4
137,3.89646,1.167,-1,4
138,3.89763,1.168,-1,4
139,3.89880,1.166,-1,4
140,3.89996,1.166,-1,4
141,3.90112,1.155,-1,4
142,3.90227,1.150,-1,4
143,3.90342,1.154,-1,4
144,3.90457,1.153,-1,4
145,3.90572,1.147,-1,4
146,3.90686,1.139,-1,4
147,3.90914,1.143,-1,4
148,3.91028,1.136,-1,4
149,3.91141,1.127,-1,4
150,3.91254,1.129,-1,4
151,3.91367,1.131,-1,4
152,3.91479,1.128,-1,4
153,3.91591,1.119,-1,4
154,3.91703,1.116,-1,4
155,3.91815,1.118,-1,4
156,3.91926,1.114,-1,4
157,3.92037,1.107,-1,4
158,3.92147,1.105,-1,4
159,3.92258,1.110,-1,4
160,3.92369,1.107,-1,4
161,3.92479,1.097,-1,4
162,3.92588,1.092,-1,4
163,3.92697,1.094,-1,4
164,3.92807,1.095,-1,4
165,3.92916,1.087,-1,4
166,3.93024,1.081,-1,4
167,3.93132,1.083,-1,4
168,3.93241,1.086,-1,4
169,3.93349,1.080,-1,4
170,3.93455,1.068,-1,4
171,3.93562,1.067,-1,4
172,3.93669,1.071,-1,4
173,3.93777,1.074,-1,4
174,3.93883,1.064,-1,4
175,3.93989,1.059,-1,4
176,3.94095,1.058,-1,4
177,3.94306,1.055,-1,4
178,3.94411,1.047,-1,4
179,3.94411,1.047,-1,4
180,3.94621,1.052,-1,4
181,3.94726,1.050,-1,4
182,3.94830,1.039,-1,4
183,3.94933,1.033,-1,4
184,3.95037,1.040,-1,4
185,3.95244,1.033,-1,4
186,3.95347,1.025,-1,4
187,3.95449,1.023,-1,4
188,3.95655,1.025,-1,4
189,3.95756,1.017,-1,4
190,3.95857,1.008,-1,4
191,3.95958,1.012,-1,4
192,3.96060,1.020,-1,4
193,3.96162,1.000,-1,4
194,3.96362,0.999,-1,4
195,3.96563,1.006,-1,4
196,3.96662,0.997,-1,4
197,3.96761,0.987,-1,4
198,3.96860,0.991,-1,4
199,3.96959,0.995,-1,4
200,3.97059,0.996,-1,4
201,3.97255,0.975,-1,4
202,3.97353,0.979,-1,4
203,3.97451,0.983,-1,4
204,3.97549,0.983,-1,4
205,3.97743,0.967,-1,4
206,3.97840,0.977,-1,4
207,3.98034,0.967,-1,4
208,3.98130,0.957,-1,4
209,3.98225,0.949,-1,4
210,3.98321,0.960,-1,4
211,3.98417,0.961,-1,4
212,3.98513,0.957,-1,4
213,3.98607,0.940,-1,4
214,3.98796,0.948,-1,4
215,3.98891,0.941,-1,4
216,3.98985,0.926,-1,4
217,3.99078,0.927,-1,4
218,3.99170,0.927,-1,4
219,3.99264,0.939,-1,4
220,3.99358,0.940,-1,4
221,3.99451,0.916,-1,4
222,3.99634,0.912,-1,4
223,3.99726,0.922,-1,4
224,3.99819,0.927,-1,4
225,3.99911,0.905,-1,4
226,4.00091,0.902,-1,4
227,4.00182,0.909,-1,4
228,4.00274,0.917,-1,4
229,4.00365,0.909,-1,4
230,4.00454,0.889,-1,4
231,4.00542,0.884,-1,4
232,4.00722,0.905,-1,4
233,4.00900,0.880,-1,4
234,4.00987,0.871,-1,4
235,4.01075,0.879,-1,4
236,4.01164,0.888,-1,4
237,4.01252,0.885,-1,4
238,4.01339,0.866,-1,4
239,4.01424,0.856,-1,4
240,4.01510,0.859,-1,4
241,4.01686,0.876,-1,4
242,4.01772,0.843,-1,4
243,4.01856,0.841,-1,4
244,4.01940,0.841,-1,4
245,4.02025,0.854,-1,4
246,4.02111,0.860,-1,4
247,4.02197,0.853,-1,4
248,4.02280,0.832,-1,4
249,4.02446,0.836,-1,4
250,4.02531,0.850,-1,4
251,4.02699,0.828,-1,4
252,4.02780,0.813,-1,4
253,4.02861,0.815,-1,4
254,4.02944,0.828,-1,4
255,4.03028,0.824,-1,4
256,4.03191,0.808,-1,4
257,4.03271,0.800,-1,4
258,4.03352,0.811,-1,4
259,4.03434,0.822,-1,4
260,4.03516,0.802,-1,4
261,4.03675,0.788,-1,4
262,4.03675,0.788,-1,4
263,4.03834,0.801,-1,4
264,4.03915,0.810,-1,4
265,4.04074,0.786,-1,4
266,4.04151,0.776,-1,4
267,4.04230,0.783,-1,4
268,4.04309,0.794,-1,4
269,4.04388,0.795,-1,4
270,4.04466,0.781,-1,4
271,4.04543,0.768,-1,4
272,4.04698,0.776,-1,4
273,4.04776,0.784,-1,4
274,4.04854,0.779,-1,4
275,4.04931,0.768,-1,4
276,4.05007,0.763,-1,4
277,4.05160,0.769,-1,4
278,4.05237,0.769,-1,4
279,4.05314,0.765,-1,4
280,4.05390,0.760,-1,4
281,4.05465,0.757,-1,4
282,4.05618,0.764,-1,4
283,4.05694,0.762,-1,4
284,4.05770,0.757,-1,4
285,4.05845,0.754,-1,4
286,4.05921,0.755,-1,4
287,4.05996,0.754,-1,4
288,4.06071,0.751,-1,4
289,4.06146,0.755,-1,4
290,4.06297,0.754,-1,4
291,4.06372,0.752,-1,4
292,4.06447,0.750,-1,4
293,4.06522,0.747,-1,4
294,4.06671,0.750,-1,4
295,4.06747,0.752,-1,4
296,4.06821,0.746,-1,4
297,4.06895,0.743,-1,4
298,4.07044,0.746,-1,4
299,4.07119,0.749,-1,4
300,4.07194,0.747,-1,4
301,4.07268,0.743,-1,4
302,4.07342,0.741,-1,4
303,4.07417,0.742,-1,4
304,4.07491,0.746,-1,4
305,4.07639,0.740,-1,4
306,4.07714,0.745,-1,4
307,4.07863,0.746,-1,4
308,4.07863,0.744,-1,4
309,4.07937,0.744,-1,4
310,4.08012,0.742,-1,4
311,4.08086,0.745,-1,4
312,4.08161,0.748,-1,4
313,4.08235,0.746,-1,4
314,4.08384,0.740,-1,4
315,4.08533,0.749,-1,4
316,4.08608,0.750,-1,4
317,4.08683,0.748,-1,4
318,4.08757,0.745,-1,4
319,4.08832,0.745,-1,4
320,4.08907,0.748,-1,4
321,4.08982,0.750,-1,4
322,4.09056,0.748,-1,4
323,4.09131,0.746,-1,4
324,4.09281,0.748,-1,4
325,4.09431,0.751,-1,4
326,4.09431,0.752,-1,4
327,4.09506,0.754,-1,4
328,4.09581,0.751,-1,4
329,4.09656,0.751,-1,4
330,4.09732,0.751,-1,4
331,4.09806,0.749,-1,4
332,4.09881,0.748,-1,4
333,4.10032,0.756,-1,4
334,4.10107,0.752,-1,4
335,4.10258,0.753,-1,4
336,4.10333,0.756,-1,4
337,4.10409,0.757,-1,4
338,4.10485,0.756,-1,4
339,4.10560,0.755,-1,4
340,4.10711,0.753,-1,4
341,4.10787,0.755,-1,4
342,4.10863,0.760,-1,4
343,4.11015,0.761,-1,4
344,4.11091,0.760,-1,4
345,4.11167,0.761,-1,4
346,4.11243,0.760,-1,4
347,4.11319,0.760,-1,4
348,4.11395,0.762,-1,4
349,4.11472,0.765,-1,4
350,4.11548,0.763,-1,4
351,4.11700,0.761,-1,4
352,4.11777,0.765,-1,4
353,4.11854,0.768,-1,4
354,4.11931,0.765,-1,4
355,4.12007,0.765,-1,4
356,4.12083,0.763,-1,4
357,4.12236,0.766,-1,4
358,4.12313,0.767,-1,4
359,4.12467,0.768,-1,4
360,4.12543,0.767,-1,4
361,4.12620,0.767,-1,4
362,4.12697,0.767,-1,4
363,4.12773,0.767,-1,4
364,4.12851,0.771,-1,4
365,4.13004,0.766,-1,4
366,4.13080,0.763,-1,4
367,4.13157,0.765,-1,4
368,4.13234,0.771,-1,4
369,4.13311,0.773,-1,4
370,4.13388,0.772,-1,4
371,4.13465,0.767,-1,4
372,4.13619,0.770,-1,4
373,4.13696,0.771,-1,4
374,4.13773,0.771,-1,4
375,4.13850,0.769,-1,4
376,4.14003,0.769,-1,4
377,4.14081,0.771,-1,4
378,4.14158,0.773,-1,4
379,4.14235,0.773,-1,4
380,4.14312,0.772,-1,4
381,4.14389,0.771,-1,4
382,4.14466,0.770,-1,4
383,4.14620,0.769,-1,4
384,4.14697,0.770,-1,4
385,4.14774,0.773,-1,4
386,4.14852,0.772,-1,4
387,4.14928,0.768,-1,4
388,4.15082,0.770,-1,4
389,4.15160,0.773,-1,4
390,4.15237,0.773,-1,4
391,4.15390,0.765,-1,4
392,4.15466,0.763,-1,4
393,4.15543,0.768,-1,4
394,4.15620,0.770,-1,4
395,4.15697,0.772,-1,4
396,4.15774,0.768,-1,4
397,4.15851,0.765,-1,4
398,4.15927,0.765,-1,4
399,4.16004,0.767,-1,4
400,4.16080,0.767,-1,4
401,4.16233,0.764,-1,4
402,4.16310,0.763,-1,4
403,4.16386,0.765,-1,4
404,4.16463,0.765,-1,4
405,4.16539,0.767,-1,4
406,4.16693,0.767,-1,4
407,4.16769,0.764,-1,4
408,4.16845,0.760,-1,4
409,4.16921,0.761,-1,4
410,4.16998,0.765,-1,4
411,4.17151,0.765,-1,4
412,4.17227,0.761,-1,4
413,4.17303,0.760,-1,4
414,4.17379,0.764,-1,4
415,4.17456,0.766,-1,4
416,4.17609,0.762,-1,4
417,4.17685,0.761,-1,4
418,4.17761,0.761,-1,4
419,4.17913,0.761,-1,4
420,4.17913,0.763,-1,4
421,4.17989,0.763,-1,4
422,4.18066,0.763,-1,4
423,4.18142,0.760,-1,4
424,4.18294,0.759,-1,4
425,4.18370,0.759,-1,4
426,4.18446,0.763,-1,4
427,4.18598,0.761,-1,4
428,4.18674,0.757,-1,4
429,4.18750,0.757,-1,4
430,4.18826,0.760,-1,4
431,4.18902,0.765,-1,4
432,4.18979,0.765,-1,4
433,4.19055,0.760,-1,4
434,4.19207,0.759,-1,4
435,4.19283,0.762,-1,4
436,4.19359,0.764,-1,4
437,4.19435,0.762,-1,4
438,4.19512,0.762,-1,4
439,4.19588,0.764,-1,4
440,4.19664,0.765,-1,4
441,4.19741,0.764,-1,4
442,4.19817,0.765,-1,4
443,4.19894,0.769,-1,4
444,4.20048,0.766,-1,4
445,4.20200,0.764,-1,4
446,4.20277,0.769,-1,4
447,4.20355,0.773,-1,4
448,4.20432,0.773,-1,4
449,4.20509,0.770,-1,4
450,4.20586,0.770,-1,4
451,4.20663,0.769,-1,4
452,4.20740,0.771,-1,4
453,4.20817,0.774,-1,4
454,4.20895,0.774,-1,4
455,4.21050,0.773,-1,4
456,4.21127,0.771,-1,4
457,4.21204,0.779,-1,4
458,4.21360,0.782,-1,4
459,4.21438,0.779,-1,4
460,4.21438,0.776,-1,4
461,4.21516,0.773,-1,4
462,4.21671,0.777,-1,4
463,4.21828,0.787,-1,4
464,4.21906,0.783,-1,4
465,4.21984,0.779,-1,4
466,4.22062,0.782,-1,4
467,4.22141,0.787,-1,4
468,4.22299,0.792,-1,4
469,4.22378,0.787,-1,4
470,4.22456,0.786,-1,4
471,4.22535,0.793,-1,4
472,4.22694,0.797,-1,4
473,4.22774,0.797,-1,4
474,4.22853,0.794,-1,4
475,4.22933,0.796,-1,4
476,4.23013,0.799,-1,4
477,4.23173,0.802,-1,4
478,4.23253,0.802,-1,4
479,4.23333,0.799,-1,4
480,4.23413,0.799,-1,4
481,4.23492,0.800,-1,4
482,4.23573,0.809,-1,4
483,4.23654,0.811,-1,4
484,4.23735,0.811,-1,4
485,4.23816,0.805,-1,4
486,4.23976,0.804,-1,4
487,4.24057,0.810,-1,4
488,4.24220,0.814,-1,4
489,4.24301,0.811,-1,4
490,4.24382,0.809,-1,4
491,4.24463,0.812,-1,4
492,4.24627,0.820,-1,4
493,4.24709,0.818,-1,4
494,4.24790,0.815,-1,4
495,4.24871,0.812,-1,4
496,4.24953,0.817,-1,4
497,4.25035,0.824,-1,4
498,4.25118,0.829,-1,4
499,4.25201,0.826,-1,4
500,4.25283,0.822,-1,4
501,4.25448,0.825,-1,4
502,4.25531,0.831,-1,4
503,4.25614,0.828,-1,4
504,4.25697,0.828,-1,4
505,4.25779,0.824,-1,4
506,4.25862,0.826,-1,4
507,4.25945,0.835,-1,4
508,4.26029,0.840,-1,4
509,4.26197,0.832,-1,4
510,4.26362,0.831,-1,4
511,4.26446,0.841,-1,4
512,4.26531,0.846,-1,4
513,4.26615,0.840,-1,4
514,4.26698,0.834,-1,4
515,4.26782,0.834,-1,4
516,4.26866,0.842,-1,4
517,4.26951,0.849,-1,4
518,4.27036,0.848,-1,4
519,4.27203,0.832,-1,4
520,4.27287,0.836,-1,4
521,4.27457,0.855,-1,4
522,4.27542,0.852,-1,4
523,4.27627,0.843,-1,4
524,4.27710,0.839,-1,4
525,4.27795,0.843,-1,4
526,4.27880,0.854,-1,4
527,4.27966,0.857,-1,4
528,4.28051,0.851,-1,4
529,4.28135,0.846,-1,4
530,4.28305,0.855,-1,4
531,4.28478,0.860,-1,4
532,4.28562,0.848,-1,4
533,4.28562,0.845,-1,4
534,4.28647,0.848,-1,4
535,4.28732,0.848,-1,4
536,4.28904,0.866,-1,4
537,4.28990,0.861,-1,4
538,4.29160,0.849,-1,4
539,4.29246,0.859,-1,4
540,4.29333,0.866,-1,4
541,4.29419,0.864,-1,4
542,4.29505,0.853,-1,4
543,4.29589,0.847,-1,4
544,4.29675,0.854,-1,4
545,4.29849,0.873,-1,4
546,4.29935,0.864,-1,4
547,4.30021,0.853,-1,4
548,4.30106,0.853,-1,4
549,4.30192,0.871,-1,4
550,4.30366,0.870,-1,4
551,4.30452,0.861,-1,4
552,4.30538,0.854,-1,4
553,4.30712,0.877,-1,4
554,4.30800,0.880,-1,4
555,4.30887,0.868,-1,4
556,4.30972,0.857,-1,4
557,4.31058,0.860,-1,4
558,4.31146,0.874,-1,4
559,4.31234,0.886,-1,4
560,4.31322,0.880,-1,4
561,4.31495,0.864,-1,4
562,4.31583,0.875,-1,4
563,4.31672,0.889,-1,4
564,4.31761,0.890,-1,4
565,4.31848,0.876,-1,4
566,4.31935,0.867,-1,4
567,4.32112,0.892,-1,4
568,4.32202,0.900,-1,4
569,4.32379,0.876,-1,4
570,4.32466,0.875,-1,4
571,4.32555,0.888,-1,4
572,4.32645,0.903,-1,4
573,4.32735,0.903,-1,4
574,4.32824,0.890,-1,4
575,4.32913,0.882,-1,4
576,4.33002,0.891,-1,4
577,4.33184,0.915,-1,4
578,4.33274,0.903,-1,4
579,4.33363,0.890,-1,4
580,4.33452,0.891,-1,4
581,4.33544,0.911,-1,4
582,4.33636,0.926,-1,4
583,4.33728,0.921,-1,4
584,4.33818,0.903,-1,4
585,4.33909,0.900,-1,4
586,4.34093,0.931,-1,4
587,4.34186,0.933,-1,4
588,4.34369,0.906,-1,4
589,4.34461,0.920,-1,4
590,4.34555,0.942,-1,4
591,4.34650,0.947,-1,4
592,4.34743,0.932,-1,4
593,4.34834,0.914,-1,4
594,4.34926,0.922,-1,4
595,4.35117,0.956,-1,4
596,4.35303,0.925,-1,4
597,4.35303,0.933,-1,4
598,4.35397,0.959,-1,4
599,4.35492,0.966,-1,4
600,4.35589,0.966,-1,4
601,4.35684,0.949,-1,4
602,4.35871,0.940,-1,4
603,4.35967,0.966,-1,4
604,4.36161,0.959,-1,4
605,4.36255,0.942,-1,4
606,4.36350,0.949,-1,4
607,4.36448,0.975,-1,4
608,4.36546,0.982,-1,4
609,4.36642,0.963,-1,4
610,4.36737,0.947,-1,4
611,4.36833,0.962,-1,4
612,4.36932,0.991,-1,4
613,4.37031,0.994,-1,4
614,4.37224,0.955,-1,4
615,4.37321,1.000,-1,4
616,4.37521,1.000,-1,4
617,4.37619,0.977,-1,4
618,4.37715,0.965,-1,4
619,4.37814,0.985,-1,4
620,4.37915,1.011,-1,4
621,4.38113,0.980,-1,4
622,4.38210,0.972,-1,4
623,4.38310,0.999,-1,4
624,4.38412,1.021,-1,4
625,4.38513,1.010,-1,4
626,4.38612,0.988,-1,4
627,4.38711,0.986,-1,4
628,4.38915,1.030,-1,4
629,4.39016,1.014,-1,4
630,4.39116,1.002,-1,4
631,4.39216,1.029,-1,4
632,4.39319,1.040,-1,4
633,4.39525,1.021,-1,4
634,4.39625,1.001,-1,4
635,4.39726,1.014,-1,4
636,4.39830,1.042,-1,4
637,4.39935,1.047,-1,4
638,4.40139,1.014,-1,4
639,4.40243,1.037,-1,4
640,4.40349,1.059,-1,4
641,4.40453,1.048,-1,4
642,4.40556,1.027,-1,4
643,4.40659,1.028,-1,4
644,4.40764,1.053,-1,4
645,4.40977,1.054,-1,4
646,4.41080,1.047,-1,4
647,4.41292,1.069,-1,4
648,4.41399,1.073,-1,4
649,4.41399,1.056,-1,4
650,4.41505,1.053,-1,4
651,4.41610,1.071,-1,4
652,4.41826,1.085,-1,4
653,4.41934,1.078,-1,4
654,4.42147,1.070,-1,4
655,4.42256,1.088,-1,4
656,4.42366,1.095,-1,4
657,4.42474,1.087,-1,4
658,4.42583,1.085,-1,4
659,4.42692,1.093,-1,4
660,4.42802,1.101,-1,4
661,4.42912,1.098,-1,4
662,4.43022,1.096,-1,4
663,4.43132,1.103,-1,4
664,4.43243,1.114,-1,4
665,4.43355,1.115,-1,4
666,4.43466,1.111,-1,4
667,4.43577,1.113,-1,4
668,4.43689,1.117,-1,4
669,4.43801,1.120,-1,4
670,4.43913,1.122,-1,4
671,4.44026,1.131,-1,4
672,4.44140,1.135,-1,4
673,4.44253,1.132,-1,4
674,4.44366,1.130,-1,4
675,4.44480,1.137,-1,4
676,4.44594,1.146,-1,4
677,4.44709,1.148,-1,4
678,4.44824,1.145,-1,4
679,4.44939,1.150,-1,4
680,4.45055,1.161,-1,4
681,4.45171,1.162,-1,4
682,4.45286,1.153,-1,4
683,4.45402,1.158,-1,4
684,4.45519,1.170,-1,4
685,4.45754,1.174,-1,4
686,4.45754,1.173,-1,4
687,4.45871,1.178,-1,4
688,4.45989,1.178,-1,4
689,4.46108,1.185,-1,4
690,4.46344,1.184,-1,4
691,4.46464,1.193,-1,4
692,4.46703,1.196,-1,4
693,4.46823,1.196,-1,4
694,4.46942,1.199,-1,4
695,4.47063,1.203,-1,4
696,4.47183,1.206,-1,4
697,4.47305,1.212,-1,4
698,4.47548,1.216,-1,4
699,4.47669,1.210,-1,4
700,4.47791,1.219,-1,4
701,4.47914,1.231,-1,4
702,4.48159,1.227,-1,4
703,4.48282,1.228,-1,4
704,4.48406,1.238,-1,4
705,4.48654,1.239,-1,4
706,4.48778,1.244,-1,4
707,4.48903,1.250,-1,4
708,4.49027,1.245,-1,4
709,4.49152,1.245,-1,4
710,4.49277,1.251,-1,4
711,4.49529,1.257,-1,4
712,4.49655,1.259,-1,4
713,4.49781,1.261,-1,4
714,4.49908,1.266,-1,4
715,4.50034,1.266,-1,4
716,4.50161,1.268,-1,4
717,4.50289,1.277,-1,4
718,4.50416,1.274,-1,4
719,4.50672,1.283,-1,4
720,4.50801,1.285,-1,4
721,4.51058,1.289,-1,4
722,4.51188,1.297,-1,4
723,4.51318,1.300,-1,4
724,4.51447,1.297,-1,4
725,4.51577,1.297,-1,4
726,4.51708,1.305,-1,4
727,4.51839,1.311,-1,4
728,4.52101,1.313,-1,4
729,4.52232,1.314,-1,4
730,4.52364,1.317,-1,4
731,4.52496,1.322,-1,4
732,4.52629,1.327,-1,4
733,4.52762,1.328,-1,4
734,4.53028,1.332,-1,4
735,4.53162,1.339,-1,4
736,4.53430,1.342,-1,4
737,4.53430,1.349,-1,4
738,4.53565,1.347,-1,4
739,4.53834,1.346,-1,4
740,4.53969,1.353,-1,4
741,4.54106,1.364,-1,4
742,4.54242,1.360,-1,4
743,4.54514,1.364,-1,4
744,4.54651,1.369,-1,4
745,4.54788,1.371,-1,4
746,4.54926,1.376,-1,4
747,4.55063,1.376,-1,4
748,4.55201,1.376,-1,4
749,4.55339,1.381,-1,4
750,4.55478,1.387,-1,4
751,4.55755,1.385,-1,4
752,4.55894,1.390,-1,4
753,4.56173,1.398,-1,4
754,4.56313,1.399,-1,4
755,4.56453,1.400,-1,4
756,4.56593,1.399,-1,4
757,4.56734,1.405,-1,4
758,4.56875,1.413,-1,4
759,4.57157,1.406,-1,4
760,4.57298,1.410,-1,4
761,4.57439,1.419,-1,4
762,4.57581,1.417,-1,4
763,4.57723,1.415,-1,4
764,4.57864,1.411,-1,4
765,4.58005,1.414,-1,4
766,4.58147,1.422,-1,4
767,4.58433,1.421,-1,4
768,4.58574,1.415,-1,4
769,4.58858,1.425,-1,4
770,4.59001,1.428,-1,4
771,4.59143,1.427,-1,4
772,4.59285,1.419,-1,4
773,4.59427,1.414,-1,4
774,4.59568,1.419,-1,4
775,4.59711,1.428,-1,4
776,4.59854,1.424,-1,4
777,4.60137,1.415,-1,4
778,4.60279,1.417,-1,4
779,4.60420,1.416,-1,4
780,4.60562,1.417,-1,4
781,4.60703,1.415,-1,4
782,4.60845,1.411,-1,4
783,4.60985,1.408,-1,4
784,4.61126,1.411,-1,4
785,4.61267,1.406,-1,4
786,4.61407,1.402,-1,4
787,4.61548,1.406,-1,4
788,4.61688,1.404,-1,4
789,4.61828,1.397,-1,4
790,4.61967,1.393,-1,4
791,4.62107,1.394,-1,4
792,4.62246,1.393,-1,4
793,4.62385,1.393,-1,4
794,4.62524,1.387,-1,4
795,4.62662,1.378,-1,4
796,4.62799,1.374,-1,4
797,4.62938,1.384,-1,4
798,4.63076,1.384,-1,4
799,4.63213,1.371,-1,4
800,4.63349,1.359,-1,4
801,4.63485,1.361,-1,4
802,4.63622,1.366,-1,4
803,4.63758,1.364,-1,4
804,4.63894,1.356,-1,4
805,4.64028,1.345,-1,4
806,4.64296,1.343,-1,4
807,4.64431,1.348,-1,4
808,4.64565,1.337,-1,4
809,4.64698,1.326,-1,4
810,4.64830,1.325,-1,4
811,4.64962,1.323,-1,4
812,4.65094,1.319,-1,4
813,4.65226,1.316,-1,4
814,4.65488,1.307,-1,4
815,4.65618,1.299,-1,4
816,4.65877,1.295,-1,4
817,4.66006,1.288,-1,4
818,4.66135,1.285,-1,4
819,4.66263,1.283,-1,4
820,4.66391,1.277,-1,4
821,4.66517,1.268,-1,4
822,4.66644,1.265,-1,4
823,4.66897,1.262,-1,4
824,4.67022,1.254,-1,4
825,4.67147,1.246,-1,4
826,4.67271,1.248,-1,4
827,4.67519,1.236,-1,4
828,4.67519,1.234,-1,4
829,4.67642,1.234,-1,4
830,4.67766,1.234,-1,4
831,4.67888,1.223,-1,4
832,4.68132,1.217,-1,4
833,4.68253,1.213,-1,4
834,4.68494,1.204,-1,4
835,4.68615,1.209,-1,4
836,4.68735,1.201,-1,4
837,4.68854,1.185,-1,4
838,4.68972,1.183,-1,4
839,4.69091,1.189,-1,4
840,4.69210,1.188,-1,4
841,4.69444,1.170,-1,4
842,4.69562,1.171,-1,4
843,4.69678,1.167,-1,4
844,4.69794,1.160,-1,4
845,4.69910,1.159,-1,4
846,4.70026,1.157,-1,4
847,4.70256,1.144,-1,4
848,4.70371,1.143,-1,4
849,4.70485,1.147,-1,4
850,4.70714,1.137,-1,4
851,4.70827,1.133,-1,4
852,4.70941,1.137,-1,4
853,4.71054,1.133,-1,4
854,4.71166,1.122,-1,4
855,4.71278,1.119,-1,4
856,4.71503,1.127,-1,4
857,4.71615,1.117,-1,4
858,4.71726,1.108,-1,4
859,4.71837,1.110,-1,4
860,4.71949,1.115,-1,4
861,4.72060,1.110,-1,4
862,4.72170,1.101,-1,4
863,4.72391,1.109,-1,4
864,4.72501,1.104,-1,4
865,4.72611,1.092,-1,4
866,4.72829,1.098,-1,4
867,4.72939,1.100,-1,4
868,4.73048,1.091,-1,4
869,4.73157,1.085,-1,4
870,4.73266,1.090,-1,4
871,4.73375,1.093,-1,4
872,4.73484,1.086,-1,4
873,4.73592,1.077,-1,4
