cnt,pos,speed,Dir,Force,
1,3.56264,1.008,-1,4
2,3.56366,1.023,-1,4
3,3.56469,1.025,-1,4
4,3.56571,1.021,-1,4
5,3.56673,1.025,-1,4
6,3.56778,1.046,-1,4
7,3.56884,1.064,-1,4
8,3.56991,1.064,-1,4
9,3.57096,1.054,-1,4
10,3.57202,1.060,-1,4
11,3.57310,1.083,-1,4
12,3.57420,1.097,-1,4
13,3.57529,1.091,-1,4
14,3.57638,1.084,-1,4
15,3.57748,1.124,-1,4
16,3.57973,1.126,-1,4
17,3.57973,1.113,-1,4
18,3.58084,1.114,-1,4
19,3.58195,1.114,-1,4
20,3.58309,1.138,-1,4
21,3.58425,1.157,-1,4
22,3.58540,1.149,-1,4
23,3.58654,1.141,-1,4
24,3.58769,1.149,-1,4
25,3.58886,1.167,-1,4
26,3.59003,1.171,-1,4
27,3.59120,1.171,-1,4
28,3.59237,1.174,-1,4
29,3.59356,1.185,-1,4
30,3.59475,1.191,-1,4
31,3.59594,1.189,-1,4
32,3.59713,1.195,-1,4
33,3.59833,1.201,-1,4
34,3.59954,1.205,-1,4
35,3.60198,1.220,-1,4
36,3.60320,1.220,-1,4
37,3.60441,1.217,-1,4
38,3.60563,1.221,-1,4
39,3.60687,1.238,-1,4
40,3.60811,1.241,-1,4
41,3.60935,1.238,-1,4
42,3.61059,1.238,-1,4
43,3.61184,1.250,-1,4
44,3.61309,1.251,-1,4
45,3.61434,1.251,-1,4
46,3.61559,1.251,-1,4
47,3.61685,1.261,-1,4
48,3.61812,1.265,-1,4
49,3.61938,1.264,-1,4
50,3.62065,1.265,-1,4
51,3.62191,1.265,-1,4
52,3.62318,1.271,-1,4
53,3.62445,1.272,-1,4
54,3.62573,1.281,-1,4
55,3.62701,1.279,-1,4
56,3.62829,1.272,-1,4
57,3.62956,1.275,-1,4
58,3.63085,1.286,-1,4
59,3.63213,1.287,-1,4
60,3.63342,1.285,-1,4
61,3.63470,1.282,-1,4
62,3.63598,1.283,-1,4
63,3.63727,1.287,-1,4
64,3.63856,1.288,-1,4
65,3.63985,1.293,-1,4
66,3.64114,1.291,-1,4
67,3.64242,1.280,-1,4
68,3.64370,1.282,-1,4
69,3.64500,1.293,-1,4
70,3.64629,1.291,-1,4
71,3.64757,1.286,-1,4
72,3.64886,1.284,-1,4
73,3.65014,1.283,-1,4
74,3.65143,1.285,-1,4
75,3.65271,1.283,-1,4
76,3.65399,1.282,-1,4
77,3.65527,1.278,-1,4
78,3.65655,1.277,-1,4
79,3.65783,1.279,-1,4
80,3.65911,1.279,-1,4
81,3.66038,1.273,-1,4
82,3.66165,1.268,-1,4
83,3.66292,1.274,-1,4
84,3.66420,1.266,-1,4
85,3.66673,1.259,-1,4
86,3.66799,1.260,-1,4
87,3.66925,1.264,-1,4
88,3.67051,1.257,-1,4
89,3.67176,1.255,-1,4
90,3.67301,1.247,-1,4
91,3.67426,1.246,-1,4
92,3.67550,1.240,-1,4
93,3.67674,1.247,-1,4
94,3.67798,1.241,-1,4
95,3.67922,1.221,-1,4
96,3.68044,1.226,-1,4
97,3.68167,1.230,-1,4
98,3.68290,1.230,-1,4
99,3.68412,1.224,-1,4
100,3.68533,1.215,-1,4
101,3.68655,1.210,-1,4
102,3.68776,1.211,-1,4
103,3.68896,1.205,-1,4
104,3.69136,1.201,-1,4
105,3.69256,1.197,-1,4
106,3.69375,1.187,-1,4
107,3.69493,1.181,-1,4
108,3.69611,1.182,-1,4
109,3.69729,1.182,-1,4
110,3.69847,1.176,-1,4
111,3.69963,1.165,-1,4
112,3.70080,1.163,-1,4
113,3.70195,1.160,-1,4
114,3.70311,1.154,-1,4
115,3.70426,1.151,-1,4
116,3.70541,1.150,-1,4
117,3.70656,1.147,-1,4
118,3.70769,1.135,-1,4
119,3.70882,1.127,-1,4
120,3.70995,1.130,-1,4
121,3.71108,1.130,-1,4
122,3.71220,1.121,-1,4
123,3.71331,1.111,-1,4
124,3.71442,1.112,-1,4
125,3.71553,1.108,-1,4
126,3.71664,1.096,-1,4
127,3.71774,1.096,-1,4
128,3.71883,1.090,-1,4
129,3.71992,1.093,-1,4
130,3.72101,1.090,-1,4
131,3.72209,1.080,-1,4
132,3.72317,1.074,-1,4
133,3.72532,1.074,-1,4
134,3.72638,1.065,-1,4
135,3.72744,1.054,-1,4
136,3.72849,1.052,-1,4
137,3.72954,1.057,-1,4
138,3.73060,1.052,-1,4
139,3.73163,1.039,-1,4
140,3.73267,1.036,-1,4
141,3.73371,1.041,-1,4
142,3.73475,1.040,-1,4
143,3.73578,1.024,-1,4
144,3.73679,1.014,-1,4
145,3.73781,1.020,-1,4
146,3.73884,1.028,-1,4
147,3.73986,1.020,-1,4
148,3.74086,1.006,-1,4
149,3.74186,1.001,-1,4
150,3.74287,1.009,-1,4
151,3.74389,1.012,-1,4
152,3.74489,1.002,-1,4
153,3.74588,0.988,-1,4
154,3.74687,0.992,-1,4
155,3.74787,1.000,-1,4
156,3.74985,0.987,-1,4
157,3.75083,0.976,-1,4
158,3.75181,0.984,-1,4
159,3.75281,0.994,-1,4
160,3.75380,0.990,-1,4
161,3.75477,0.972,-1,4
162,3.75672,0.982,-1,4
163,3.75869,0.980,-1,4
164,3.75966,0.964,-1,4
165,3.76062,0.968,-1,4
166,3.76161,0.984,-1,4
167,3.76260,0.989,-1,4
168,3.76356,0.968,-1,4
169,3.76453,0.961,-1,4
170,3.76550,0.973,-1,4
171,3.76649,0.993,-1,4
172,3.76748,0.986,-1,4
173,3.76845,0.968,-1,4
174,3.76941,0.963,-1,4
175,3.77039,0.983,-1,4
176,3.77139,0.997,-1,4
177,3.77237,0.985,-1,4
178,3.77335,0.972,-1,4
179,3.77432,0.977,-1,4
180,3.77533,1.003,-1,4
181,3.77633,1.006,-1,4
182,3.77732,0.988,-1,4
183,3.77830,0.977,-1,4
184,3.77929,0.992,-1,4
185,3.78031,1.020,-1,4
186,3.78133,1.017,-1,4
187,3.78232,0.997,-1,4
188,3.78332,0.995,-1,4
189,3.78433,1.016,-1,4
190,3.78537,1.034,-1,4
191,3.78639,1.026,-1,4
192,3.78740,1.014,-1,4
193,3.78841,1.014,-1,4
194,3.78946,1.046,-1,4
195,3.79052,1.057,-1,4
196,3.79155,1.037,-1,4
197,3.79258,1.023,-1,4
198,3.79362,1.041,-1,4
199,3.79469,1.070,-1,4
200,3.79576,1.074,-1,4
201,3.79681,1.052,-1,4
202,3.79894,1.078,-1,4
203,3.80004,1.098,-1,4
204,3.80113,1.088,-1,4
205,3.80220,1.072,-1,4
206,3.80329,1.086,-1,4
207,3.80440,1.117,-1,4
208,3.80553,1.125,-1,4
209,3.80664,1.107,-1,4
210,3.80774,1.100,-1,4
211,3.80886,1.126,-1,4
212,3.81002,1.152,-1,4
213,3.81116,1.143,-1,4
214,3.81229,1.127,-1,4
215,3.81343,1.143,-1,4
216,3.81460,1.171,-1,4
217,3.81578,1.177,-1,4
218,3.81694,1.162,-1,4
219,3.81810,1.163,-1,4
220,3.81929,1.187,-1,4
221,3.82049,1.205,-1,4
222,3.82169,1.201,-1,4
223,3.82289,1.194,-1,4
224,3.82410,1.207,-1,4
225,3.82532,1.226,-1,4
226,3.82656,1.233,-1,4
227,3.82779,1.234,-1,4
228,3.82903,1.237,-1,4
229,3.83028,1.252,-1,4
230,3.83154,1.262,-1,4
231,3.83281,1.271,-1,4
232,3.83408,1.271,-1,4
233,3.83535,1.272,-1,4
234,3.83665,1.295,-1,4
235,3.83796,1.310,-1,4
236,3.83927,1.308,-1,4
237,3.84057,1.301,-1,4
238,3.84188,1.316,-1,4
239,3.84322,1.340,-1,4
240,3.84592,1.345,-1,4
241,3.84726,1.348,-1,4
242,3.84863,1.363,-1,4
243,3.85000,1.377,-1,4
244,3.85139,1.387,-1,4
245,3.85278,1.392,-1,4
246,3.85418,1.395,-1,4
247,3.85558,1.407,-1,4
248,3.85701,1.424,-1,4
249,3.85844,1.432,-1,4
250,3.85987,1.433,-1,4
251,3.86132,1.443,-1,4
252,3.86278,1.459,-1,4
253,3.86424,1.465,-1,4
254,3.86571,1.471,-1,4
255,3.86720,1.486,-1,4
256,3.86869,1.494,-1,4
257,3.87020,1.504,-1,4
258,3.87171,1.513,-1,4
259,3.87323,1.518,-1,4
260,3.87476,1.531,-1,4
261,3.87631,1.548,-1,4
262,3.87786,1.552,-1,4
263,3.87942,1.557,-1,4
264,3.88098,1.567,-1,4
265,3.88256,1.582,-1,4
266,3.88416,1.598,-1,4
267,3.88577,1.605,-1,4
268,3.88737,1.604,-1,4
269,3.88899,1.614,-1,4
270,3.89227,1.648,-1,4
271,3.89227,1.654,-1,4
272,3.89392,1.657,-1,4
273,3.89558,1.661,-1,4
274,3.89724,1.661,-1,4
275,3.89892,1.683,-1,4
276,3.90062,1.702,-1,4
277,3.90233,1.703,-1,4
278,3.90574,1.713,-1,4
279,3.90748,1.733,-1,4
280,3.90923,1.750,-1,4
281,3.91098,1.750,-1,4
282,3.91273,1.750,-1,4
283,3.91449,1.767,-1,4
284,3.91628,1.783,-1,4
285,3.91807,1.796,-1,4
286,3.91987,1.794,-1,4
287,3.92167,1.802,-1,4
288,3.92348,1.817,-1,4
289,3.92532,1.833,-1,4
290,3.92716,1.840,-1,4
291,3.92900,1.839,-1,4
292,3.93085,1.850,-1,4
293,3.93272,1.872,-1,4
294,3.93460,1.883,-1,4
295,3.93648,1.882,-1,4
296,3.93837,1.887,-1,4
297,3.94027,1.900,-1,4
298,3.94219,1.922,-1,4
299,3.94412,1.928,-1,4
300,3.94605,1.929,-1,4
301,3.94799,1.936,-1,4
302,3.94994,1.951,-1,4
303,3.95191,1.969,-1,4
304,3.95388,1.972,-1,4
305,3.95585,1.977,-1,4
306,3.95784,1.984,-1,4
307,3.95983,1.993,-1,4
308,3.96184,2.011,-1,4
309,3.96589,2.024,-1,4
310,3.96791,2.026,-1,4
311,3.96791,2.040,-1,4
312,3.96995,2.040,-1,4
313,3.97201,2.056,-1,4
314,3.97407,2.065,-1,4
315,3.97614,2.067,-1,4
316,3.97821,2.071,-1,4
317,3.98030,2.085,-1,4
318,3.98450,2.103,-1,4
319,3.98660,2.107,-1,4
320,3.98872,2.115,-1,4
321,3.99085,2.127,-1,4
322,3.99298,2.134,-1,4
323,3.99512,2.141,-1,4
324,3.99727,2.148,-1,4
325,3.99942,2.156,-1,4
326,4.00159,2.161,-1,4
327,4.00376,2.171,-1,4
328,4.00593,2.176,-1,4
329,4.00812,2.184,-1,4
330,4.01031,2.190,-1,4
331,4.01250,2.196,-1,4
332,4.01470,2.200,-1,4
333,4.01691,2.207,-1,4
334,4.01913,2.216,-1,4
335,4.02135,2.222,-1,4
336,4.02357,2.225,-1,4
337,4.02580,2.228,-1,4
338,4.02804,2.239,-1,4
339,4.03028,2.241,-1,4
340,4.03253,2.248,-1,4
341,4.03478,2.247,-1,4
342,4.03703,2.257,-1,4
343,4.03929,2.259,-1,4
344,4.04155,2.264,-1,4
345,4.04382,2.265,-1,4
346,4.04610,2.276,-1,4
347,4.04837,2.276,-1,4
348,4.05065,2.279,-1,4
349,4.05293,2.288,-1,4
350,4.05522,2.288,-1,4
351,4.05751,2.290,-1,4
352,4.05980,2.292,-1,4
353,4.06210,2.294,-1,4
354,4.06439,2.299,-1,4
355,4.06670,2.303,-1,4
356,4.06900,2.304,-1,4
357,4.07131,2.305,-1,4
358,4.07593,2.315,-1,4
359,4.07824,2.313,-1,4
360,4.08055,2.311,-1,4
361,4.08287,2.318,-1,4
362,4.08519,2.320,-1,4
363,4.08751,2.319,-1,4
364,4.08983,2.323,-1,4
365,4.09215,2.321,-1,4
366,4.09448,2.326,-1,4
367,4.09680,2.323,-1,4
368,4.09913,2.327,-1,4
369,4.10145,2.325,-1,4
370,4.10378,2.326,-1,4
371,4.10611,2.331,-1,4
372,4.10844,2.327,-1,4
373,4.11076,2.326,-1,4
374,4.11309,2.329,-1,4
375,4.11543,2.332,-1,4
376,4.11775,2.326,-1,4
377,4.12008,2.326,-1,4
378,4.12241,2.332,-1,4
379,4.12474,2.328,-1,4
380,4.12706,2.326,-1,4
381,4.12939,2.324,-1,4
382,4.13172,2.329,-1,4
383,4.13404,2.325,-1,4
384,4.13636,2.322,-1,4
385,4.13869,2.324,-1,4
386,4.14101,2.320,-1,4
387,4.14333,2.320,-1,4
388,4.14565,2.318,-1,4
389,4.14796,2.317,-1,4
390,4.15028,2.312,-1,4
391,4.15259,2.312,-1,4
392,4.15491,2.315,-1,4
393,4.15721,2.305,-1,4
394,4.15952,2.307,-1,4
395,4.16183,2.310,-1,4
396,4.16413,2.302,-1,4
397,4.16873,2.303,-1,4
398,4.17103,2.298,-1,4
399,4.17332,2.291,-1,4
400,4.17561,2.288,-1,4
401,4.17790,2.290,-1,4
402,4.18019,2.287,-1,4
403,4.18247,2.282,-1,4
404,4.18474,2.276,-1,4
405,4.18702,2.275,-1,4
406,4.18929,2.274,-1,4
407,4.19156,2.268,-1,4
408,4.19382,2.265,-1,4
409,4.19609,2.261,-1,4
410,4.19835,2.260,-1,4
411,4.20060,2.256,-1,4
412,4.20285,2.249,-1,4
413,4.20510,2.247,-1,4
414,4.20734,2.247,-1,4
415,4.20959,2.242,-1,4
416,4.21182,2.236,-1,4
417,4.21405,2.229,-1,4
418,4.21628,2.234,-1,4
419,4.21851,2.227,-1,4
420,4.22073,2.219,-1,4
421,4.22295,2.217,-1,4
422,4.22517,2.219,-1,4
423,4.22738,2.212,-1,4
424,4.22958,2.205,-1,4
425,4.23179,2.203,-1,4
426,4.23399,2.200,-1,4
427,4.23618,2.189,-1,4
428,4.23837,2.186,-1,4
429,4.24056,2.186,-1,4
430,4.24274,2.182,-1,4
431,4.24492,2.180,-1,4
432,4.24709,2.176,-1,4
433,4.24927,2.171,-1,4
434,4.25143,2.162,-1,4
435,4.25359,2.160,-1,4
436,4.25790,2.155,-1,4
437,4.26005,2.147,-1,4
438,4.26434,2.144,-1,4
439,4.26648,2.137,-1,4
440,4.26861,2.131,-1,4
441,4.27074,2.130,-1,4
442,4.27287,2.131,-1,4
443,4.27499,2.121,-1,4
444,4.27711,2.118,-1,4
445,4.28134,2.113,-1,4
446,4.28555,2.105,-1,4
447,4.28765,2.101,-1,4
448,4.28975,2.095,-1,4
449,4.29184,2.094,-1,4
450,4.29394,2.094,-1,4
451,4.29602,2.087,-1,4
452,4.29810,2.077,-1,4
453,4.30018,2.079,-1,4
454,4.30226,2.080,-1,4
455,4.30433,2.075,-1,4
456,4.30640,2.064,-1,4
457,4.30846,2.064,-1,4
458,4.31053,2.068,-1,4
459,4.31259,2.062,-1,4
460,4.31464,2.052,-1,4
461,4.31669,2.050,-1,4
462,4.31875,2.054,-1,4
463,4.32080,2.051,-1,4
464,4.32284,2.045,-1,4
465,4.32488,2.038,-1,4
466,4.32692,2.039,-1,4
467,4.32896,2.039,-1,4
468,4.33099,2.035,-1,4
469,4.33303,2.034,-1,4
470,4.33506,2.028,-1,4
471,4.33708,2.022,-1,4
472,4.33911,2.028,-1,4
473,4.34113,2.027,-1,4
474,4.34315,2.020,-1,4
475,4.34517,2.013,-1,4
476,4.34718,2.018,-1,4
477,4.34920,2.018,-1,4
478,4.35122,2.017,-1,4
479,4.35323,2.009,-1,4
480,4.35523,2.007,-1,4
481,4.35725,2.015,-1,4
482,4.35926,2.012,-1,4
483,4.36127,2.004,-1,4
484,4.36327,2.003,-1,4
485,4.36528,2.010,-1,4
486,4.36729,2.012,-1,4
487,4.36929,2.003,-1,4
488,4.37129,2.000,-1,4
489,4.37330,2.007,-1,4
490,4.37531,2.009,-1,4
491,4.37731,2.005,-1,4
492,4.37931,2.000,-1,4
493,4.38132,2.005,-1,4
494,4.38332,2.004,-1,4
495,4.38533,2.006,-1,4
496,4.38733,2.006,-1,4
497,4.38934,2.004,-1,4
498,4.39134,2.004,-1,4
499,4.39335,2.002,-1,4
500,4.39536,2.010,-1,4
501,4.39737,2.009,-1,4
502,4.39937,2.006,-1,4
503,4.40138,2.004,-1,4
504,4.40339,2.018,-1,4
505,4.40742,2.012,-1,4
506,4.40942,2.007,-1,4
507,4.41144,2.014,-1,4
508,4.41346,2.023,-1,4
509,4.41548,2.020,-1,4
510,4.41750,2.016,-1,4
511,4.41952,2.020,-1,4
512,4.42154,2.024,-1,4
513,4.42357,2.031,-1,4
514,4.42560,2.025,-1,4
515,4.42762,2.025,-1,4
516,4.42965,2.032,-1,4
517,4.43169,2.034,-1,4
518,4.43372,2.035,-1,4
519,4.43576,2.038,-1,4
520,4.43780,2.038,-1,4
521,4.43983,2.033,-1,4
522,4.44188,2.044,-1,4
523,4.44392,2.048,-1,4
524,4.44597,2.047,-1,4
525,4.44801,2.040,-1,4
526,4.45006,2.046,-1,4
527,4.45212,2.058,-1,4
528,4.45417,2.057,-1,4
529,4.45622,2.052,-1,4
530,4.45827,2.049,-1,4
531,4.46033,2.062,-1,4
532,4.46240,2.066,-1,4
533,4.46446,2.060,-1,4
534,4.46652,2.057,-1,4
535,4.46858,2.073,-1,4
536,4.47066,2.069,-1,4
537,4.47273,2.067,-1,4
538,4.47479,2.067,-1,4
539,4.47686,2.069,-1,4
540,4.47894,2.074,-1,4
541,4.48101,2.079,-1,4
542,4.48309,2.077,-1,4
543,4.48517,2.075,-1,4
544,4.48724,2.087,-1,4
545,4.49141,2.086,-1,4
546,4.49350,2.083,-1,4
547,4.49557,2.078,-1,4
548,4.49766,2.090,-1,4
549,4.49976,2.094,-1,4
550,4.50185,2.089,-1,4
551,4.50393,2.086,-1,4
552,4.50602,2.089,-1,4
553,4.50812,2.099,-1,4
554,4.51021,2.094,-1,4
555,4.51231,2.096,-1,4
556,4.51440,2.095,-1,4
557,4.51650,2.097,-1,4
558,4.51860,2.099,-1,4
559,4.52070,2.100,-1,4
560,4.52280,2.099,-1,4
561,4.52490,2.097,-1,4
562,4.52700,2.100,-1,4
563,4.52910,2.104,-1,4
564,4.53120,2.102,-1,4
565,4.53330,2.099,-1,4
566,4.53540,2.102,-1,4
567,4.53751,2.104,-1,4
568,4.53961,2.105,-1,4
569,4.54171,2.102,-1,4
570,4.54382,2.103,-1,4
571,4.54592,2.105,-1,4
572,4.54803,2.106,-1,4
573,4.55013,2.106,-1,4
574,4.55224,2.104,-1,4
575,4.55434,2.105,-1,4
576,4.55646,2.112,-1,4
577,4.55856,2.108,-1,4
578,4.56067,2.108,-1,4
579,4.56278,2.106,-1,4
580,4.56489,2.114,-1,4
581,4.56701,2.116,-1,4
582,4.56912,2.115,-1,4
583,4.57335,2.118,-1,4
584,4.57548,2.123,-1,4
585,4.57760,2.122,-1,4
586,4.57972,2.122,-1,4
587,4.58184,2.121,-1,4
588,4.58397,2.132,-1,4
589,4.58611,2.133,-1,4
590,4.58824,2.132,-1,4
591,4.59037,2.132,-1,4
592,4.59251,2.141,-1,4
593,4.59466,2.145,-1,4
594,4.59680,2.146,-1,4
595,4.59894,2.144,-1,4
596,4.60110,2.150,-1,4
597,4.60325,2.159,-1,4
598,4.60541,2.159,-1,4
599,4.60757,2.159,-1,4
600,4.60974,2.164,-1,4
601,4.61191,2.174,-1,4
602,4.61408,2.174,-1,4
603,4.61626,2.175,-1,4
604,4.61844,2.180,-1,4
605,4.62063,2.188,-1,4
606,4.62282,2.190,-1,4
607,4.62501,2.196,-1,4
608,4.62721,2.200,-1,4
609,4.62942,2.203,-1,4
610,4.63163,2.211,-1,4
611,4.63384,2.217,-1,4
612,4.63606,2.215,-1,4
613,4.64051,2.234,-1,4
614,4.64051,2.238,-1,4
615,4.64275,2.236,-1,4
616,4.64499,2.242,-1,4
617,4.64723,2.242,-1,4
618,4.64948,2.254,-1,4
619,4.65174,2.258,-1,4
620,4.65400,2.261,-1,4
621,4.65627,2.276,-1,4
622,4.66082,2.281,-1,4
623,4.66311,2.287,-1,4
624,4.66540,2.289,-1,4
625,4.66770,2.298,-1,4
626,4.67000,2.304,-1,4
627,4.67231,2.313,-1,4
628,4.67463,2.315,-1,4
629,4.67695,2.318,-1,4
630,4.67928,2.334,-1,4
631,4.68162,2.338,-1,4
632,4.68396,2.342,-1,4
633,4.68631,2.349,-1,4
634,4.68867,2.361,-1,4
635,4.69103,2.363,-1,4
636,4.69341,2.372,-1,4
637,4.69578,2.378,-1,4
638,4.69817,2.390,-1,4
639,4.70057,2.396,-1,4
640,4.70297,2.401,-1,4
641,4.70538,2.410,-1,4
642,4.70780,2.421,-1,4
643,4.71023,2.430,-1,4
644,4.71267,2.436,-1,4
645,4.71511,2.444,-1,4
646,4.71757,2.455,-1,4
647,4.72003,2.464,-1,4
648,4.72250,2.468,-1,4
649,4.72498,2.482,-1,4
650,4.72747,2.493,-1,4
651,4.72997,2.501,-1,4
652,4.73248,2.521,-1,4
653,4.73500,2.529,-1,4
654,4.73753,2.537,-1,4
655,4.74007,2.537,-1,4
656,4.74262,2.547,-1,4
657,4.74517,2.560,-1,4
658,4.74774,2.567,-1,4
659,4.75032,2.576,-1,4
660,4.75290,2.587,-1,4
661,4.75811,2.606,-1,4
662,4.76073,2.618,-1,4
663,4.76336,2.627,-1,4
664,4.76600,2.640,-1,4
665,4.76865,2.649,-1,4
666,4.77131,2.660,-1,4
667,4.77398,2.670,-1,4
668,4.77666,2.679,-1,4
669,4.77935,2.690,-1,4
670,4.78205,2.705,-1,4
671,4.78476,2.714,-1,4
672,4.78749,2.721,-1,4
673,4.79022,2.734,-1,4
674,4.79296,2.745,-1,4
675,4.79572,2.756,-1,4
676,4.79848,2.764,-1,4
677,4.80126,2.776,-1,4
678,4.80404,2.784,-1,4
679,4.80684,2.794,-1,4
680,4.80964,2.805,-1,4
681,4.81246,2.814,-1,4
682,4.81528,2.826,-1,4
683,4.81812,2.836,-1,4
684,4.82096,2.843,-1,4
685,4.82381,2.850,-1,4
686,4.82667,2.860,-1,4
687,4.82954,2.872,-1,4
688,4.83242,2.877,-1,4
689,4.83531,2.885,-1,4
690,4.83820,2.893,-1,4
691,4.84110,2.903,-1,4
692,4.84401,2.911,-1,4
693,4.84693,2.921,-1,4
694,4.84986,2.925,-1,4
695,4.85279,2.930,-1,4
696,4.85573,2.937,-1,4
697,4.85867,2.946,-1,4
698,4.86162,2.953,-1,4
699,4.86458,2.959,-1,4
700,4.86755,2.967,-1,4
701,4.87349,2.973,-1,4
702,4.87647,2.983,-1,4
703,4.87946,2.986,-1,4
704,4.88245,2.989,-1,4
705,4.88544,2.991,-1,4
706,4.88843,2.996,-1,4
707,4.89143,2.998,-1,4
708,4.89444,3.005,-1,4
709,4.89744,3.005,-1,4
710,4.90045,3.009,-1,4
711,4.90346,3.009,-1,4
712,4.90647,3.011,-1,4
713,4.90948,3.013,-1,4
714,4.91249,3.012,-1,4
715,4.91551,3.018,-1,4
716,4.91853,3.020,-1,4
717,4.92155,3.019,-1,4
718,4.92457,3.021,-1,4
719,4.93061,3.020,-1,4
720,4.93364,3.023,-1,4
721,4.93666,3.022,-1,4
722,4.94270,3.021,-1,4
723,4.94270,3.021,-1,4
724,4.94572,3.021,-1,4
725,4.94874,3.018,-1,4
726,4.95176,3.018,-1,4
727,4.95477,3.014,-1,4
728,4.96080,3.012,-1,4
729,4.96381,3.011,-1,4
730,4.96983,3.007,-1,4
731,4.97283,3.006,-1,4
732,4.97583,2.998,-1,4
733,4.97883,2.998,-1,4
734,4.98183,2.994,-1,4
735,4.98482,2.991,-1,4
736,4.98781,2.992,-1,4
737,4.99079,2.986,-1,4
738,4.99377,2.981,-1,4
739,4.99675,2.979,-1,4
740,4.99973,2.974,-1,4
741,5.00270,2.975,-1,4
742,5.00566,2.962,-1,4
743,5.00863,2.961,-1,4
744,5.01158,2.956,-1,4
745,5.01453,2.951,-1,4
746,5.01748,2.950,-1,4
747,5.02043,2.943,-1,4
748,5.02336,2.936,-1,4
749,5.02629,2.929,-1,4
750,5.02922,2.928,-1,4
751,5.03214,2.921,-1,4
752,5.03505,2.914,-1,4
753,5.03796,2.909,-1,4
754,5.04086,2.901,-1,4
755,5.04376,2.897,-1,4
756,5.04665,2.891,-1,4
757,5.04954,2.887,-1,4
758,5.05241,2.876,-1,4
759,5.05528,2.871,-1,4
760,5.05815,2.864,-1,4
761,5.06386,2.854,-1,4
762,5.06386,2.846,-1,4
763,5.06671,2.836,-1,4
764,5.06954,2.836,-1,4
765,5.07237,2.830,-1,4
766,5.07520,2.826,-1,4
767,5.07801,2.818,-1,4
768,5.08082,2.810,-1,4
769,5.08363,2.803,-1,4
770,5.08920,2.787,-1,4
771,5.09198,2.779,-1,4
772,5.09476,2.775,-1,4
773,5.09753,2.767,-1,4
774,5.10028,2.755,-1,4
775,5.10303,2.748,-1,4
776,5.10577,2.740,-1,4
777,5.10850,2.732,-1,4
778,5.11123,2.729,-1,4
779,5.11395,2.719,-1,4
780,5.11665,2.706,-1,4
781,5.11935,2.700,-1,4
782,5.12205,2.693,-1,4
783,5.12473,2.687,-1,4
784,5.12741,2.679,-1,4
785,5.13008,2.670,-1,4
786,5.13274,2.660,-1,4
787,5.13540,2.656,-1,4
788,5.13804,2.645,-1,4
789,5.14069,2.642,-1,4
790,5.14332,2.631,-1,4
791,5.14594,2.624,-1,4
792,5.14855,2.612,-1,4
793,5.15117,2.612,-1,4
794,5.15377,2.601,-1,4
795,5.15636,2.590,-1,4
796,5.15895,2.590,-1,4
797,5.16152,2.577,-1,4
798,5.16409,2.567,-1,4
799,5.16665,2.563,-1,4
800,5.16921,2.556,-1,4
801,5.17176,2.540,-1,4
802,5.17430,2.532,-1,4
803,5.17683,2.526,-1,4
804,5.17935,2.526,-1,4
805,5.18187,2.519,-1,4
806,5.18438,2.510,-1,4
807,5.18689,2.503,-1,4
808,5.18938,2.499,-1,4
809,5.19187,2.481,-1,4
810,5.19683,2.478,-1,4
811,5.19930,2.470,-1,4
812,5.20176,2.462,-1,4
813,5.20422,2.459,-1,4
814,5.20668,2.455,-1,4
815,5.20912,2.445,-1,4
816,5.21156,2.439,-1,4
817,5.21400,2.433,-1,4
818,5.21643,2.431,-1,4
819,5.21885,2.424,-1,4
820,5.22127,2.419,-1,4
821,5.22368,2.413,-1,4
822,5.22609,2.408,-1,4
823,5.22849,2.404,-1,4
824,5.23089,2.398,-1,4
825,5.23328,2.392,-1,4
826,5.23567,2.390,-1,4
827,5.23806,2.387,-1,4
828,5.24044,2.379,-1,4
829,5.24282,2.376,-1,4
830,5.24519,2.373,-1,4
831,5.24756,2.372,-1,4
832,5.24992,2.360,-1,4
833,5.25229,2.365,-1,4
834,5.25465,2.360,-1,4
835,5.25700,2.355,-1,4
836,5.25935,2.350,-1,4
837,5.26170,2.352,-1,4
838,5.26405,2.348,-1,4
839,5.26640,2.345,-1,4
840,5.26874,2.342,-1,4
841,5.27108,2.343,-1,4
842,5.27342,2.339,-1,4
843,5.27576,2.339,-1,4
844,5.27809,2.335,-1,4
845,5.28043,2.333,-1,4
846,5.28276,2.333,-1,4
847,5.28510,2.338,-1,4
848,5.28743,2.327,-1,4
849,5.28976,2.329,-1,4
850,5.29209,2.333,-1,4
851,5.29442,2.331,-1,4
852,5.29674,2.325,-1,4
853,5.29907,2.327,-1,4
854,5.30141,2.334,-1,4
855,5.30373,2.326,-1,4
856,5.30606,2.327,-1,4
857,5.30839,2.328,-1,4
858,5.31072,2.332,-1,4
859,5.31305,2.328,-1,4
860,5.31771,2.331,-1,4
861,5.32004,2.330,-1,4
862,5.32237,2.334,-1,4
863,5.32470,2.332,-1,4
864,5.32704,2.334,-1,4
865,5.32937,2.335,-1,4
866,5.33171,2.340,-1,4
867,5.33405,2.337,-1,4
868,5.33639,2.340,-1,4
869,5.33873,2.346,-1,4
870,5.34108,2.346,-1,4
871,5.34343,2.346,-1,4
872,5.34578,2.351,-1,4
873,5.34813,2.356,-1,4
