cnt,pos,speed,Dir,Force,
1,2.92239,1.003,-1,0
2,2.92339,1.002,-1,0
3,2.92440,1.008,-1,0
4,2.92541,1.011,-1,0
5,2.92643,1.014,-1,0
6,2.92744,1.016,-1,0
7,2.92846,1.019,-1,0
8,2.92948,1.018,-1,0
9,2.93050,1.020,-1,0
10,2.93153,1.027,-1,0
11,2.93256,1.029,-1,0
12,2.93359,1.031,-1,0
13,2.93462,1.033,-1,0
14,2.93566,1.035,-1,0
15,2.93669,1.035,-1,0
16,2.93773,1.037,-1,0
17,2.93877,1.039,-1,0
18,2.93981,1.042,-1,0
19,2.94085,1.044,-1,0
20,2.94190,1.046,-1,0
21,2.94295,1.046,-1,0
22,2.94399,1.049,-1,0
23,2.94504,1.049,-1,0
24,2.94609,1.049,-1,0
25,2.94714,1.052,-1,0
26,2.94820,1.051,-1,0
27,2.94925,1.056,-1,0
28,2.95031,1.055,-1,0
29,2.95136,1.057,-1,0
30,2.95242,1.055,-1,0
31,2.95348,1.056,-1,0
32,2.95453,1.055,-1,0
33,2.95559,1.059,-1,0
34,2.95665,1.060,-1,0
35,2.95771,1.060,-1,0
36,2.95877,1.061,-1,0
37,2.95983,1.061,-1,0
38,2.96089,1.059,-1,0
39,2.96195,1.062,-1,0
40,2.96301,1.059,-1,0
41,2.96407,1.062,-1,0
42,2.96514,1.061,-1,0
43,2.96620,1.062,-1,0
44,2.96726,1.060,-1,0
45,2.96832,1.062,-1,0
46,2.96938,1.062,-1,0
47,2.97044,1.062,-1,0
48,2.97150,1.059,-1,0
49,2.97256,1.060,-1,0
50,2.97362,1.060,-1,0
51,2.97468,1.057,-1,0
52,2.97574,1.059,-1,0
53,2.97680,1.057,-1,0
54,2.97785,1.054,-1,0
55,2.97890,1.054,-1,0
56,2.97996,1.051,-1,0
57,2.98101,1.052,-1,0
58,2.98206,1.051,-1,0
59,2.98311,1.052,-1,0
60,2.98416,1.053,-1,0
61,2.98522,1.053,-1,0
62,2.98627,1.049,-1,0
63,2.98731,1.048,-1,0
64,2.98836,1.047,-1,0
65,2.98941,1.046,-1,0
66,2.99045,1.048,-1,0
67,2.99150,1.050,-1,0
68,2.99255,1.046,-1,0
69,2.99359,1.041,-1,0
70,2.99463,1.037,-1,0
71,2.99566,1.033,-1,0
72,2.99669,1.034,-1,0
73,2.99773,1.036,-1,0
74,2.99877,1.039,-1,0
75,2.99981,1.036,-1,0
76,3.00084,1.035,-1,0
77,3.00187,1.028,-1,0
78,3.00289,1.025,-1,0
79,3.00392,1.023,-1,0
80,3.00494,1.022,-1,0
81,3.00596,1.022,-1,0
82,3.00698,1.024,-1,0
83,3.00801,1.023,-1,0
84,3.00903,1.019,-1,0
85,3.01004,1.013,-1,0
86,3.01105,1.013,-1,0
87,3.01206,1.010,-1,0
88,3.01307,1.009,-1,0
89,3.01408,1.012,-1,0
90,3.01509,1.008,-1,0
91,3.01609,1.004,-1,0
92,3.01710,1.005,-1,0
93,3.01810,0.996,-1,0
94,3.01909,0.994,-1,0
95,3.02008,0.991,-1,0
96,3.02107,0.990,-1,0
97,3.02206,0.993,-1,0
98,3.02305,0.990,-1,0
99,3.02404,0.986,-1,0
100,3.02502,0.978,-1,0
101,3.02599,0.972,-1,0
102,3.02696,0.969,-1,0
103,3.02793,0.967,-1,1
104,3.02889,0.965,-1,1
105,3.02986,0.965,-1,1
106,3.03082,0.962,-1,1
107,3.03177,0.956,-1,1
108,3.03272,0.946,-1,1
109,3.03366,0.938,-1,1
110,3.03459,0.931,-1,1
111,3.03552,0.932,-1,1
112,3.03645,0.932,-1,1
113,3.03738,0.929,-1,1
114,3.03831,0.924,-1,1
115,3.03922,0.914,-1,1
116,3.04012,0.903,-1,1
117,3.04102,0.896,-1,1
118,3.04191,0.891,-1,1
119,3.04280,0.888,-1,1
120,3.04368,0.885,-1,1
121,3.04457,0.882,-1,1
122,3.04545,0.879,-1,1
123,3.04631,0.867,-1,1
124,3.04717,0.856,-1,1
125,3.04801,0.846,-1,1
126,3.04885,0.840,-1,1
127,3.04969,0.837,-1,1
128,3.05053,0.834,-1,1
129,3.05135,0.828,-1,1
130,3.05217,0.820,-1,2
131,3.05298,0.809,-1,2
132,3.05378,0.801,-1,2
133,3.05458,0.794,-1,2
134,3.05537,0.787,-1,2
135,3.05614,0.779,-1,2
136,3.05691,0.770,-1,2
137,3.05768,0.764,-1,2
138,3.05843,0.755,-1,2
139,3.05918,0.748,-1,2
140,3.05992,0.743,-1,2
141,3.06066,0.730,-1,2
142,3.06137,0.718,-1,2
143,3.06208,0.710,-1,2
144,3.06278,0.701,-1,2
145,3.06348,0.695,-1,2
146,3.06417,0.686,-1,2
147,3.06485,0.681,-1,2
148,3.06617,0.657,-1,2
149,3.06682,0.646,-1,2
150,3.06808,0.629,-1,2
151,3.06870,0.621,-1,2
152,3.06870,0.611,-1,2
153,3.06931,0.600,-1,2
154,3.07050,0.586,-1,2
155,3.07108,0.576,-1,2
156,3.07220,0.556,-1,2
157,3.07274,0.547,-1,2
158,3.07328,0.539,-1,2
159,3.07381,0.530,-1,2
160,3.07433,0.521,-1,2
161,3.07484,0.508,-1,2
162,3.07534,0.495,-1,2
163,3.07582,0.486,-1,2
164,3.07630,0.473,-1,2
165,3.07676,0.465,-1,2
166,3.07721,0.452,-1,3
167,3.07765,0.442,-1,3
168,3.07809,0.432,-1,3
169,3.07851,0.420,-1,3
170,3.07892,0.414,-1,3
171,3.07932,0.402,-1,3
172,3.07972,0.392,-1,3
173,3.08009,0.378,-1,3
174,3.08046,0.365,-1,3
175,3.08081,0.354,-1,3
176,3.08116,0.343,-1,3
177,3.08149,0.334,-1,3
178,3.08182,0.325,-1,3
179,3.08213,0.318,-1,3
180,3.08244,0.308,-1,3
181,3.08274,0.296,-1,3
182,3.08302,0.285,-1,3
183,3.08330,0.275,-1,3
184,3.08356,0.267,-1,3
185,3.08382,0.258,-1,3
186,3.08407,0.247,-1,3
187,3.08430,0.235,-1,3
188,3.08453,0.225,-1,3
189,3.08475,0.217,-1,3
190,3.08495,0.207,-1,3
191,3.08515,0.199,-1,3
192,3.08534,0.192,-1,3
193,3.08553,0.183,-1,3
194,3.08570,0.174,-1,3
195,3.08587,0.168,-1,3
196,3.08603,0.158,-1,3
197,3.08618,0.152,-1,3
198,3.08632,0.146,-1,3
199,3.08646,0.139,-1,3
200,3.08660,0.132,-1,3
201,3.08672,0.125,-1,3
202,3.08684,0.120,-1,3
203,3.08696,0.116,-1,3
204,3.08706,0.108,-1,3
205,3.08717,0.108,-1,3
206,3.08727,0.102,-1,3
207,3.08737,0.098,-1,3
208,3.08747,0.096,-1,3
209,3.08756,0.093,-1,3
210,3.08765,0.090,-1,3
211,3.08774,0.088,-1,3
212,3.08783,0.086,-1,3
213,3.08791,0.084,-1,3
214,3.08799,0.084,-1,3
215,3.08807,0.082,-1,3
216,3.08815,0.078,-1,3
217,3.08823,0.077,-1,3
218,3.08831,0.076,-1,3
219,3.08838,0.073,-1,3
220,3.08845,0.071,-1,3
221,3.08852,0.072,-1,3
222,3.08859,0.070,-1,3
223,3.08866,0.068,-1,3
224,3.08873,0.067,-1,3
225,3.08880,0.070,-1,3
226,3.08887,0.070,-1,3
227,3.08894,0.070,-1,3
228,3.08901,0.072,-1,3
229,3.08909,0.076,-1,3
230,3.08917,0.079,-1,3
231,3.08925,0.081,-1,3
232,3.08933,0.086,-1,3
233,3.08942,0.092,-1,3
234,3.08952,0.096,-1,3
235,3.08962,0.102,-1,3
236,3.08973,0.108,-1,3
237,3.08984,0.112,-1,3
238,3.08996,0.118,-1,3
239,3.09008,0.123,-1,3
240,3.09021,0.129,-1,3
241,3.09035,0.133,-1,3
242,3.09048,0.137,-1,3
243,3.09062,0.143,-1,3
244,3.09077,0.149,-1,3
245,3.09093,0.154,-1,3
246,3.09109,0.162,-1,3
247,3.09126,0.167,-1,3
248,3.09143,0.175,-1,3
249,3.09162,0.183,-1,3
250,3.09181,0.191,-1,3
251,3.09201,0.200,-1,3
252,3.09222,0.209,-1,3
253,3.09243,0.217,-1,3
254,3.09266,0.226,-1,3
255,3.09289,0.234,-1,3
256,3.09313,0.242,-1,3
257,3.09338,0.257,-1,3
258,3.09364,0.264,-1,3
259,3.09391,0.272,-1,3
260,3.09418,0.272,-1,3
261,3.09446,0.278,-1,3
262,3.09474,0.286,-1,3
263,3.09503,0.291,-1,3
264,3.09533,0.298,-1,3
265,3.09564,0.315,-1,3
266,3.09628,0.322,-1,3
267,3.09661,0.331,-1,3
268,3.09695,0.339,-1,3
269,3.09729,0.347,-1,3
270,3.09765,0.357,-1,3
271,3.09801,0.365,-1,3
272,3.09838,0.369,-1,3
273,3.09876,0.379,-1,3
274,3.09915,0.384,-1,3
275,3.09954,0.390,-1,3
276,3.09993,0.398,-1,3
277,3.10034,0.403,-1,3
278,3.10075,0.412,-1,3
279,3.10116,0.415,-1,3
280,3.10159,0.422,-1,3
281,3.10201,0.425,-1,3
282,3.10244,0.432,-1,3
283,3.10288,0.436,-1,3
284,3.10332,0.441,-1,4
285,3.10377,0.445,-1,4
286,3.10422,0.450,-1,4
287,3.10467,0.455,-1,4
288,3.10513,0.460,-1,4
289,3.10560,0.467,-1,4
290,3.10607,0.472,-1,4
291,3.10655,0.477,-1,4
292,3.10703,0.480,-1,4
293,3.10751,0.483,-1,4
294,3.10800,0.487,-1,4
295,3.10849,0.490,-1,4
296,3.10898,0.492,-1,4
297,3.10947,0.496,-1,4
298,3.10997,0.499,-1,4
299,3.11048,0.505,-1,4
300,3.11099,0.508,-1,4
301,3.11150,0.509,-1,4
302,3.11201,0.512,-1,4
303,3.11252,0.516,-1,4
304,3.11304,0.519,-1,4
305,3.11357,0.523,-1,4
306,3.11409,0.528,-1,4
307,3.11463,0.531,-1,4
308,3.11516,0.536,-1,4
309,3.11570,0.540,-1,4
310,3.11625,0.543,-1,4
311,3.11679,0.545,-1,4
312,3.11734,0.548,-1,4
313,3.11844,0.553,-1,4
314,3.11900,0.556,-1,4
315,3.11956,0.560,-1,4
316,3.12012,0.563,-1,4
317,3.12068,0.563,-1,4
318,3.12125,0.563,-1,4
319,3.12181,0.564,-1,4
320,3.12238,0.565,-1,4
321,3.12294,0.567,-1,4
322,3.12351,0.567,-1,4
323,3.12408,0.572,-1,4
324,3.12465,0.572,-1,4
325,3.12523,0.574,-1,4
326,3.12580,0.573,-1,4
327,3.12637,0.573,-1,4
328,3.12695,0.574,-1,4
329,3.12752,0.574,-1,4
330,3.12810,0.576,-1,4
331,3.12867,0.577,-1,4
332,3.12925,0.579,-1,4
333,3.12983,0.581,-1,4
334,3.13041,0.579,-1,4
335,3.13099,0.580,-1,4
336,3.13157,0.578,-1,4
337,3.13215,0.576,-1,4
338,3.13272,0.576,-1,4
339,3.13330,0.576,-1,4
340,3.13387,0.577,-1,4
341,3.13445,0.579,-1,4
342,3.13503,0.577,-1,4
343,3.13561,0.576,-1,4
344,3.13618,0.575,-1,4
345,3.13675,0.574,-1,4
346,3.13733,0.572,-1,4
347,3.13790,0.573,-1,4
348,3.13848,0.575,-1,4
349,3.13905,0.576,-1,4
350,3.13963,0.577,-1,4
351,3.14020,0.576,-1,4
352,3.14078,0.571,-1,4
353,3.14192,0.570,-1,4
354,3.14249,0.571,-1,4
355,3.14306,0.571,-1,4
356,3.14363,0.573,-1,4
357,3.14420,0.571,-1,4
358,3.14477,0.568,-1,4
359,3.14534,0.567,-1,4
360,3.14590,0.562,-1,4
361,3.14646,0.562,-1,4
362,3.14702,0.560,-1,4
363,3.14758,0.559,-1,4
364,3.14814,0.558,-1,4
365,3.14870,0.557,-1,4
366,3.14925,0.555,-1,4
367,3.14981,0.553,-1,4
368,3.15036,0.551,-1,4
369,3.15091,0.550,-1,4
370,3.15145,0.548,-1,4
371,3.15200,0.547,-1,4
372,3.15255,0.547,-1,4
373,3.15309,0.546,-1,4
374,3.15364,0.543,-1,4
375,3.15418,0.541,-1,4
376,3.15471,0.536,-1,4
377,3.15525,0.533,-1,4
378,3.15578,0.530,-1,4
379,3.15631,0.528,-1,4
380,3.15683,0.528,-1,4
381,3.15736,0.526,-1,4
382,3.15841,0.523,-1,4
383,3.15893,0.519,-1,4
384,3.15944,0.515,-1,4
385,3.15996,0.512,-1,4
386,3.16047,0.512,-1,4
387,3.16098,0.510,-1,4
388,3.16149,0.507,-1,4
389,3.16199,0.507,-1,4
390,3.16250,0.504,-1,4
391,3.16300,0.500,-1,4
392,3.16350,0.499,-1,4
393,3.16399,0.496,-1,4
394,3.16448,0.493,-1,4
395,3.16498,0.491,-1,4
396,3.16546,0.489,-1,4
397,3.16595,0.488,-1,4
398,3.16644,0.486,-1,4
399,3.16692,0.484,-1,4
400,3.16740,0.481,-1,4
401,3.16788,0.481,-1,4
402,3.16836,0.477,-1,4
403,3.16883,0.474,-1,4
404,3.16931,0.471,-1,4
405,3.16977,0.467,-1,4
406,3.17024,0.465,-1,4
407,3.17070,0.463,-1,4
408,3.17116,0.462,-1,4
409,3.17162,0.460,-1,4
410,3.17208,0.457,-1,4
411,3.17254,0.451,-1,4
412,3.17299,0.450,-1,4
413,3.17344,0.448,-1,4
414,3.17389,0.448,-1,4
415,3.17433,0.445,-1,4
416,3.17478,0.446,-1,4
417,3.17522,0.442,-1,4
418,3.17566,0.442,-1,4
419,3.17610,0.440,-1,4
420,3.17698,0.438,-1,4
421,3.17742,0.434,-1,4
422,3.17785,0.434,-1,4
423,3.17828,0.433,-1,4
424,3.17872,0.431,-1,4
425,3.17914,0.429,-1,4
426,3.17957,0.426,-1,4
427,3.18000,0.427,-1,4
428,3.18042,0.425,-1,4
429,3.18127,0.423,-1,4
430,3.18212,0.421,-1,4
431,3.18212,0.421,-1,4
432,3.18254,0.420,-1,4
433,3.18296,0.419,-1,4
434,3.18379,0.418,-1,4
435,3.18421,0.417,-1,4
436,3.18463,0.415,-1,4
437,3.18546,0.417,-1,4
438,3.18588,0.417,-1,4
439,3.18629,0.415,-1,4
440,3.18670,0.414,-1,4
441,3.18712,0.414,-1,4
442,3.18753,0.414,-1,4
443,3.18795,0.412,-1,4
444,3.18836,0.412,-1,4
445,3.18877,0.411,-1,4
446,3.18918,0.410,-1,4
447,3.18959,0.411,-1,4
448,3.19000,0.410,-1,4
449,3.19041,0.411,-1,4
450,3.19082,0.410,-1,4
451,3.19123,0.409,-1,4
452,3.19164,0.408,-1,4
453,3.19205,0.409,-1,4
454,3.19246,0.408,-1,4
455,3.19286,0.406,-1,4
456,3.19327,0.407,-1,4
457,3.19367,0.405,-1,4
458,3.19408,0.406,-1,4
459,3.19449,0.405,-1,4
460,3.19489,0.408,-1,4
461,3.19530,0.406,-1,4
462,3.19571,0.408,-1,4
463,3.19611,0.407,-1,4
464,3.19652,0.408,-1,4
465,3.19693,0.408,-1,4
466,3.19734,0.409,-1,4
467,3.19775,0.409,-1,4
468,3.19816,0.409,-1,4
469,3.19857,0.410,-1,4
470,3.19939,0.412,-1,4
471,3.19980,0.413,-1,4
472,3.19980,0.414,-1,4
473,3.20022,0.414,-1,4
474,3.20063,0.414,-1,4
475,3.20105,0.415,-1,4
476,3.20146,0.417,-1,4
477,3.20188,0.418,-1,4
478,3.20271,0.417,-1,4
479,3.20313,0.419,-1,4
480,3.20355,0.420,-1,4
481,3.20398,0.423,-1,4
482,3.20440,0.424,-1,4
483,3.20483,0.427,-1,4
484,3.20526,0.428,-1,4
485,3.20569,0.430,-1,4
486,3.20611,0.429,-1,4
487,3.20655,0.432,-1,4
488,3.20698,0.433,-1,4
489,3.20741,0.434,-1,4
490,3.20785,0.434,-1,4
491,3.20828,0.435,-1,4
492,3.20872,0.440,-1,4
493,3.20916,0.440,-1,4
494,3.20960,0.442,-1,4
495,3.21005,0.442,-1,4
496,3.21049,0.443,-1,4
497,3.21093,0.446,-1,4
498,3.21138,0.444,-1,4
499,3.21182,0.445,-1,4
500,3.21227,0.446,-1,4
501,3.21272,0.446,-1,4
502,3.21317,0.451,-1,4
503,3.21362,0.452,-1,4
504,3.21408,0.455,-1,4
505,3.21453,0.459,-1,4
506,3.21499,0.457,-1,4
507,3.21545,0.457,-1,4
508,3.21591,0.461,-1,4
509,3.21637,0.461,-1,4
510,3.21683,0.461,-1,4
511,3.21729,0.463,-1,4
512,3.21776,0.462,-1,4
513,3.21822,0.465,-1,4
514,3.21869,0.469,-1,4
515,3.21916,0.470,-1,4
516,3.21963,0.471,-1,4
517,3.22010,0.471,-1,4
518,3.22057,0.471,-1,4
519,3.22104,0.469,-1,4
520,3.22151,0.472,-1,4
521,3.22198,0.472,-1,4
522,3.22246,0.472,-1,4
523,3.22293,0.474,-1,4
524,3.22341,0.479,-1,4
525,3.22389,0.481,-1,4
526,3.22437,0.480,-1,4
527,3.22485,0.479,-1,4
528,3.22581,0.481,-1,4
529,3.22629,0.483,-1,4
530,3.22678,0.482,-1,4
531,3.22726,0.485,-1,4
532,3.22775,0.486,-1,4
533,3.22824,0.489,-1,4
534,3.22873,0.490,-1,4
535,3.22922,0.491,-1,4
536,3.22971,0.491,-1,4
537,3.23020,0.491,-1,4
538,3.23069,0.491,-1,4
539,3.23118,0.491,-1,4
540,3.23167,0.492,-1,4
541,3.23217,0.493,-1,4
542,3.23266,0.496,-1,4
543,3.23316,0.497,-1,4
544,3.23366,0.498,-1,4
545,3.23416,0.498,-1,4
546,3.23465,0.496,-1,4
547,3.23515,0.496,-1,4
548,3.23564,0.495,-1,4
549,3.23614,0.497,-1,4
550,3.23664,0.498,-1,4
551,3.23714,0.500,-1,4
552,3.23764,0.503,-1,4
553,3.23814,0.503,-1,4
554,3.23865,0.502,-1,4
555,3.23915,0.502,-1,4
556,3.23965,0.502,-1,4
557,3.24065,0.500,-1,4
558,3.24115,0.498,-1,4
559,3.24165,0.502,-1,4
560,3.24215,0.503,-1,4
561,3.24266,0.503,-1,4
562,3.24316,0.502,-1,4
563,3.24366,0.500,-1,4
564,3.24416,0.502,-1,4
565,3.24466,0.503,-1,4
566,3.24517,0.503,-1,4
567,3.24567,0.502,-1,4
568,3.24617,0.503,-1,4
569,3.24667,0.502,-1,4
570,3.24718,0.506,-1,4
571,3.24768,0.504,-1,4
572,3.24818,0.501,-1,4
573,3.24869,0.501,-1,4
574,3.24919,0.499,-1,4
575,3.24969,0.500,-1,4
576,3.25018,0.499,-1,4
577,3.25068,0.499,-1,4
578,3.25118,0.498,-1,4
579,3.25168,0.500,-1,4
580,3.25218,0.500,-1,4
581,3.25268,0.500,-1,4
582,3.25318,0.500,-1,4
583,3.25368,0.501,-1,4
584,3.25418,0.502,-1,4
585,3.25469,0.501,-1,4
586,3.25519,0.502,-1,4
587,3.25619,0.501,-1,4
588,3.25669,0.502,-1,4
589,3.25719,0.500,-1,4
590,3.25769,0.500,-1,4
591,3.25819,0.501,-1,4
592,3.25869,0.501,-1,4
593,3.25919,0.500,-1,4
594,3.25969,0.500,-1,4
595,3.26019,0.499,-1,4
596,3.26070,0.503,-1,4
597,3.26120,0.504,-1,4
598,3.26170,0.504,-1,4
599,3.26221,0.503,-1,4
600,3.26271,0.503,-1,4
601,3.26321,0.504,-1,4
602,3.26372,0.505,-1,4
603,3.26422,0.504,-1,4
604,3.26473,0.503,-1,4
605,3.26523,0.504,-1,4
606,3.26573,0.504,-1,4
607,3.26624,0.505,-1,4
608,3.26675,0.505,-1,4
609,3.26725,0.506,-1,4
610,3.26776,0.505,-1,4
611,3.26826,0.505,-1,4
612,3.26876,0.504,-1,4
613,3.26927,0.505,-1,4
614,3.26977,0.504,-1,4
615,3.27028,0.505,-1,4
616,3.27078,0.506,-1,4
617,3.27129,0.505,-1,4
618,3.27179,0.503,-1,4
619,3.27230,0.505,-1,4
620,3.27280,0.505,-1,4
621,3.27331,0.504,-1,4
622,3.27381,0.504,-1,4
623,3.27482,0.504,-1,4
624,3.27532,0.503,-1,4
625,3.27582,0.504,-1,4
626,3.27633,0.502,-1,4
627,3.27683,0.503,-1,4
628,3.27733,0.503,-1,4
629,3.27783,0.502,-1,4
630,3.27833,0.501,-1,4
631,3.27883,0.500,-1,4
632,3.27933,0.501,-1,4
633,3.27984,0.501,-1,4
634,3.28034,0.503,-1,4
635,3.28084,0.501,-1,4
636,3.28134,0.500,-1,4
637,3.28184,0.500,-1,4
638,3.28234,0.501,-1,4
639,3.28284,0.500,-1,4
640,3.28334,0.502,-1,4
641,3.28385,0.503,-1,4
642,3.28435,0.502,-1,4
643,3.28485,0.503,-1,4
644,3.28536,0.503,-1,4
645,3.28586,0.503,-1,4
646,3.28636,0.503,-1,4
647,3.28687,0.504,-1,4
648,3.28737,0.504,-1,4
649,3.28787,0.504,-1,4
650,3.28838,0.503,-1,4
651,3.28888,0.504,-1,4
652,3.28939,0.506,-1,4
653,3.28989,0.507,-1,4
654,3.29040,0.505,-1,4
655,3.29090,0.505,-1,4
656,3.29141,0.506,-1,4
657,3.29192,0.509,-1,4
658,3.29243,0.509,-1,4
659,3.29294,0.508,-1,4
660,3.29344,0.507,-1,4
661,3.29395,0.509,-1,4
662,3.29446,0.509,-1,4
663,3.29497,0.509,-1,4
664,3.29548,0.509,-1,4
665,3.29599,0.509,-1,4
666,3.29649,0.507,-1,4
667,3.29700,0.506,-1,4
668,3.29751,0.506,-1,4
669,3.29801,0.507,-1,4
670,3.29852,0.508,-1,4
671,3.29903,0.508,-1,4
672,3.29954,0.507,-1,4
673,3.30005,0.508,-1,4
674,3.30056,0.509,-1,4
675,3.30106,0.507,-1,4
676,3.30157,0.509,-1,4
677,3.30208,0.507,-1,4
678,3.30258,0.507,-1,4
679,3.30309,0.507,-1,4
680,3.30360,0.506,-1,4
681,3.30410,0.504,-1,4
682,3.30461,0.505,-1,4
683,3.30511,0.503,-1,4
684,3.30561,0.503,-1,4
685,3.30612,0.502,-1,4
686,3.30662,0.500,-1,4
687,3.30712,0.501,-1,4
688,3.30762,0.501,-1,4
689,3.30812,0.502,-1,4
690,3.30862,0.500,-1,4
691,3.30912,0.500,-1,4
692,3.30962,0.497,-1,4
693,3.31012,0.501,-1,4
694,3.31062,0.500,-1,4
695,3.31112,0.498,-1,4
696,3.31161,0.495,-1,4
697,3.31211,0.495,-1,4
698,3.31260,0.497,-1,4
699,3.31310,0.496,-1,4
700,3.31359,0.493,-1,4
701,3.31408,0.492,-1,4
702,3.31458,0.491,-1,4
703,3.31507,0.492,-1,4
704,3.31556,0.491,-1,4
705,3.31605,0.488,-1,4
706,3.31653,0.487,-1,4
707,3.31702,0.488,-1,4
708,3.31751,0.487,-1,4
709,3.31799,0.483,-1,4
710,3.31896,0.484,-1,4
711,3.31944,0.481,-1,4
712,3.32040,0.477,-1,4
713,3.32088,0.478,-1,4
714,3.32135,0.477,-1,4
715,3.32183,0.475,-1,4
716,3.32230,0.472,-1,4
717,3.32324,0.469,-1,4
718,3.32371,0.468,-1,4
719,3.32418,0.469,-1,4
720,3.32465,0.466,-1,4
721,3.32511,0.462,-1,4
722,3.32557,0.461,-1,4
723,3.32603,0.457,-1,4
724,3.32648,0.457,-1,4
725,3.32694,0.454,-1,4
726,3.32739,0.454,-1,4
727,3.32784,0.450,-1,4
728,3.32830,0.451,-1,4
729,3.32874,0.447,-1,4
730,3.32919,0.447,-1,4
731,3.32963,0.444,-1,4
732,3.33051,0.439,-1,4
733,3.33095,0.437,-1,4
734,3.33139,0.436,-1,4
735,3.33182,0.433,-1,4
736,3.33225,0.430,-1,4
737,3.33268,0.429,-1,4
738,3.33310,0.426,-1,4
739,3.33353,0.425,-1,4
740,3.33395,0.421,-1,4
741,3.33437,0.419,-1,4
742,3.33478,0.415,-1,4
743,3.33520,0.413,-1,4
744,3.33561,0.410,-1,4
745,3.33602,0.409,-1,4
746,3.33642,0.404,-1,4
747,3.33682,0.404,-1,4
748,3.33722,0.400,-1,4
749,3.33762,0.398,-1,4
750,3.33802,0.396,-1,4
751,3.33841,0.394,-1,4
752,3.33880,0.392,-1,4
753,3.33919,0.387,-1,4
754,3.33958,0.387,-1,4
755,3.33996,0.384,-1,4
756,3.34034,0.381,-1,4
757,3.34072,0.379,-1,4
758,3.34110,0.373,-1,4
759,3.34147,0.374,-1,4
760,3.34184,0.371,-1,4
761,3.34221,0.369,-1,4
762,3.34258,0.363,-1,4
763,3.34294,0.363,-1,4
764,3.34330,0.359,-1,4
765,3.34366,0.358,-1,4
766,3.34401,0.355,-1,4
767,3.34436,0.353,-1,4
768,3.34471,0.349,-1,4
769,3.34506,0.347,-1,4
770,3.34541,0.345,-1,4
771,3.34609,0.340,-1,4
772,3.34643,0.339,-1,4
773,3.34676,0.336,-1,4
774,3.34710,0.334,-1,4
775,3.34743,0.331,-1,4
776,3.34776,0.330,-1,4
777,3.34809,0.329,-1,4
778,3.34841,0.325,-1,4
779,3.34874,0.324,-1,4
780,3.34906,0.319,-1,4
781,3.34937,0.318,-1,4
782,3.34969,0.316,-1,4
783,3.35000,0.313,-1,4
784,3.35031,0.311,-1,4
785,3.35062,0.308,-1,4
786,3.35093,0.307,-1,4
787,3.35123,0.304,-1,4
788,3.35154,0.303,-1,4
789,3.35184,0.300,-1,4
790,3.35213,0.298,-1,4
791,3.35243,0.297,-1,4
792,3.35273,0.295,-1,4
793,3.35302,0.292,-1,4
794,3.35331,0.290,-1,4
795,3.35360,0.288,-1,4
796,3.35388,0.285,-1,4
797,3.35416,0.283,-1,4
798,3.35445,0.280,-1,4
799,3.35472,0.279,-1,4
800,3.35500,0.278,-1,4
801,3.35528,0.275,-1,4
802,3.35555,0.273,-1,4
803,3.35582,0.271,-1,4
804,3.35609,0.270,-1,4
805,3.35636,0.270,-1,4
806,3.35663,0.268,-1,4
807,3.35690,0.267,-1,4
808,3.35716,0.264,-1,4
809,3.35742,0.263,-1,4
810,3.35769,0.262,-1,4
811,3.35795,0.259,-1,4
812,3.35821,0.259,-1,4
813,3.35846,0.257,-1,4
814,3.35872,0.255,-1,4
815,3.35897,0.253,-1,4
816,3.35922,0.252,-1,4
817,3.35947,0.250,-1,4
818,3.35972,0.248,-1,4
819,3.35997,0.246,-1,4
820,3.36046,0.245,-1,4
821,3.36070,0.243,-1,4
822,3.36095,0.244,-1,4
823,3.36119,0.242,-1,4
824,3.36143,0.242,-1,4
825,3.36167,0.240,-1,4
826,3.36191,0.239,-1,4
827,3.36215,0.238,-1,4
828,3.36238,0.236,-1,4
829,3.36262,0.236,-1,4
830,3.36286,0.235,-1,4
831,3.36309,0.234,-1,4
832,3.36332,0.231,-1,4
833,3.36355,0.232,-1,4
834,3.36378,0.231,-1,4
835,3.36401,0.228,-1,4
836,3.36424,0.230,-1,4
837,3.36447,0.229,-1,4
838,3.36470,0.228,-1,4
839,3.36493,0.228,-1,4
840,3.36516,0.229,-1,4
841,3.36538,0.229,-1,4
842,3.36561,0.230,-1,4
843,3.36584,0.231,-1,4
844,3.36607,0.230,-1,4
845,3.36631,0.230,-1,4
846,3.36654,0.231,-1,4
847,3.36677,0.231,-1,4
848,3.36700,0.232,-1,4
849,3.36723,0.232,-1,4
850,3.36746,0.232,-1,4
851,3.36770,0.232,-1,4
852,3.36793,0.232,-1,4
853,3.36816,0.232,-1,4
854,3.36839,0.232,-1,4
855,3.36862,0.233,-1,4
856,3.36886,0.232,-1,4
857,3.36909,0.233,-1,4
858,3.36932,0.233,-1,4
859,3.36955,0.233,-1,4
860,3.36979,0.235,-1,4
861,3.37026,0.237,-1,4
862,3.37050,0.236,-1,4
863,3.37073,0.237,-1,4
864,3.37097,0.239,-1,4
865,3.37121,0.238,-1,4
866,3.37145,0.240,-1,4
867,3.37169,0.239,-1,4
868,3.37193,0.241,-1,4
869,3.37217,0.240,-1,4
870,3.37241,0.240,-1,4
871,3.37265,0.240,-1,4
872,3.37289,0.240,-1,4
873,3.37313,0.239,-1,4
