cnt,pos,speed,Dir,Force,
1,3.81224,1.005,-1,4
2,3.81325,1.013,-1,4
3,3.81427,1.014,-1,4
4,3.81527,1.003,-1,4
5,3.81627,1.005,-1,4
6,3.81730,1.023,-1,4
7,3.81833,1.032,-1,4
8,3.81935,1.026,-1,4
9,3.82037,1.019,-1,4
10,3.82140,1.028,-1,4
11,3.82245,1.046,-1,4
12,3.82349,1.048,-1,4
13,3.82453,1.038,-1,4
14,3.82556,1.032,-1,4
15,3.82661,1.048,-1,4
16,3.82768,1.067,-1,4
17,3.82874,1.064,-1,4
18,3.82979,1.051,-1,4
19,3.83085,1.051,-1,4
20,3.83192,1.073,-1,4
21,3.83300,1.084,-1,4
22,3.83407,1.072,-1,4
23,3.83513,1.060,-1,4
24,3.83621,1.075,-1,4
25,3.83731,1.100,-1,4
26,3.83841,1.100,-1,4
27,3.83949,1.080,-1,4
28,3.84057,1.077,-1,4
29,3.84166,1.098,-1,4
30,3.84278,1.118,-1,4
31,3.84389,1.108,-1,4
32,3.84498,1.093,-1,4
33,3.84608,1.102,-1,4
34,3.84721,1.125,-1,4
35,3.84834,1.127,-1,4
36,3.84945,1.113,-1,4
37,3.85056,1.110,-1,4
38,3.85169,1.134,-1,4
39,3.85284,1.148,-1,4
40,3.85510,1.124,-1,4
41,3.85510,1.137,-1,4
42,3.85624,1.158,-1,4
43,3.85740,1.158,-1,4
44,3.85855,1.159,-1,4
45,3.85970,1.148,-1,4
46,3.86085,1.148,-1,4
47,3.86202,1.166,-1,4
48,3.86319,1.168,-1,4
49,3.86552,1.167,-1,4
50,3.86670,1.177,-1,4
51,3.86789,1.186,-1,4
52,3.86907,1.187,-1,4
53,3.87026,1.186,-1,4
54,3.87145,1.188,-1,4
55,3.87264,1.194,-1,4
56,3.87384,1.202,-1,4
57,3.87505,1.211,-1,4
58,3.87626,1.209,-1,4
59,3.87747,1.207,-1,4
60,3.87868,1.210,-1,4
61,3.87991,1.228,-1,4
62,3.88114,1.229,-1,4
63,3.88236,1.225,-1,4
64,3.88359,1.228,-1,4
65,3.88483,1.243,-1,4
66,3.88608,1.250,-1,4
67,3.88733,1.243,-1,4
68,3.88857,1.241,-1,4
69,3.88982,1.256,-1,4
70,3.89109,1.269,-1,4
71,3.89236,1.269,-1,4
72,3.89363,1.265,-1,4
73,3.89490,1.271,-1,4
74,3.89617,1.275,-1,4
75,3.89746,1.285,-1,4
76,3.89875,1.295,-1,4
77,3.90005,1.294,-1,4
78,3.90134,1.292,-1,4
79,3.90264,1.299,-1,4
80,3.90395,1.312,-1,4
81,3.90527,1.318,-1,4
82,3.90658,1.314,-1,4
83,3.90790,1.320,-1,4
84,3.90923,1.332,-1,4
85,3.91057,1.337,-1,4
86,3.91191,1.340,-1,4
87,3.91326,1.344,-1,4
88,3.91461,1.357,-1,4
89,3.91733,1.365,-1,4
90,3.91870,1.373,-1,4
91,3.92007,1.373,-1,4
92,3.92145,1.379,-1,4
93,3.92284,1.391,-1,4
94,3.92424,1.398,-1,4
95,3.92564,1.398,-1,4
96,3.92704,1.404,-1,4
97,3.92846,1.414,-1,4
98,3.92988,1.422,-1,4
99,3.93131,1.429,-1,4
100,3.93274,1.435,-1,4
101,3.93418,1.438,-1,4
102,3.93562,1.443,-1,4
103,3.93708,1.455,-1,4
104,3.93854,1.463,-1,4
105,3.94001,1.469,-1,4
106,3.94149,1.479,-1,4
107,3.94297,1.480,-1,4
108,3.94445,1.486,-1,4
109,3.94595,1.499,-1,4
110,3.94746,1.509,-1,4
111,3.94898,1.516,-1,4
112,3.95049,1.516,-1,4
113,3.95202,1.528,-1,4
114,3.95356,1.532,-1,4
115,3.95510,1.547,-1,4
116,3.95666,1.555,-1,4
117,3.95821,1.556,-1,4
118,3.95978,1.574,-1,4
119,3.96135,1.574,-1,4
120,3.96293,1.585,-1,4
121,3.96453,1.596,-1,4
122,3.96613,1.599,-1,4
123,3.96773,1.599,-1,4
124,3.96934,1.613,-1,4
125,3.97097,1.630,-1,4
126,3.97261,1.637,-1,4
127,3.97589,1.642,-1,4
128,3.97754,1.652,-1,4
129,3.97921,1.674,-1,4
130,3.98090,1.685,-1,4
131,3.98258,1.681,-1,4
132,3.98426,1.682,-1,4
133,3.98595,1.694,-1,4
134,3.98767,1.715,-1,4
135,3.98940,1.731,-1,4
136,3.99113,1.727,-1,4
137,3.99285,1.726,-1,4
138,3.99459,1.736,-1,4
139,3.99635,1.760,-1,4
140,3.99813,1.777,-1,4
141,3.99990,1.774,-1,4
142,4.00167,1.772,-1,4
143,4.00346,1.783,-1,4
144,4.00526,1.804,-1,4
145,4.00708,1.816,-1,4
146,4.00890,1.824,-1,4
147,4.01072,1.820,-1,4
148,4.01255,1.830,-1,4
149,4.01439,1.843,-1,4
150,4.01625,1.858,-1,4
151,4.01812,1.868,-1,4
152,4.01999,1.871,-1,4
153,4.02186,1.872,-1,4
154,4.02374,1.881,-1,4
155,4.02564,1.897,-1,4
156,4.02756,1.915,-1,4
157,4.02947,1.916,-1,4
158,4.03138,1.913,-1,4
159,4.03330,1.917,-1,4
160,4.03524,1.936,-1,4
161,4.03719,1.954,-1,4
162,4.03915,1.955,-1,4
163,4.04110,1.952,-1,4
164,4.04305,1.956,-1,4
165,4.04503,1.973,-1,4
166,4.04701,1.988,-1,4
167,4.04900,1.988,-1,4
168,4.05099,1.994,-1,4
169,4.05298,1.994,-1,4
170,4.05499,2.005,-1,4
171,4.05701,2.017,-1,4
172,4.05903,2.022,-1,4
173,4.06105,2.023,-1,4
174,4.06307,2.021,-1,4
175,4.06511,2.035,-1,4
176,4.06716,2.050,-1,4
177,4.07126,2.049,-1,4
178,4.07331,2.056,-1,4
179,4.07538,2.069,-1,4
180,4.07745,2.071,-1,4
181,4.07952,2.072,-1,4
182,4.08160,2.076,-1,4
183,4.08369,2.087,-1,4
184,4.08578,2.089,-1,4
185,4.08787,2.093,-1,4
186,4.08997,2.096,-1,4
187,4.09207,2.104,-1,4
188,4.09418,2.106,-1,4
189,4.09628,2.107,-1,4
190,4.09840,2.116,-1,4
191,4.10052,2.117,-1,4
192,4.10263,2.119,-1,4
193,4.10476,2.125,-1,4
194,4.10689,2.132,-1,4
195,4.10902,2.127,-1,4
196,4.11115,2.131,-1,4
197,4.11329,2.141,-1,4
198,4.11544,2.144,-1,4
199,4.11757,2.139,-1,4
200,4.11972,2.142,-1,4
201,4.12187,2.153,-1,4
202,4.12403,2.156,-1,4
203,4.12618,2.152,-1,4
204,4.12833,2.151,-1,4
205,4.13049,2.161,-1,4
206,4.13266,2.166,-1,4
207,4.13482,2.164,-1,4
208,4.13698,2.165,-1,4
209,4.13915,2.168,-1,4
210,4.14133,2.173,-1,4
211,4.14350,2.175,-1,4
212,4.14568,2.179,-1,4
213,4.14786,2.179,-1,4
214,4.15004,2.181,-1,4
215,4.15223,2.188,-1,4
216,4.15660,2.185,-1,4
217,4.15660,2.189,-1,4
218,4.15879,2.198,-1,4
219,4.16099,2.198,-1,4
220,4.16319,2.199,-1,4
221,4.16538,2.195,-1,4
222,4.16758,2.201,-1,4
223,4.16979,2.209,-1,4
224,4.17200,2.207,-1,4
225,4.17642,2.211,-1,4
226,4.17864,2.217,-1,4
227,4.18085,2.219,-1,4
228,4.18307,2.220,-1,4
229,4.18529,2.221,-1,4
230,4.18752,2.225,-1,4
231,4.18975,2.228,-1,4
232,4.19198,2.232,-1,4
233,4.19421,2.232,-1,4
234,4.19645,2.234,-1,4
235,4.19869,2.240,-1,4
236,4.20093,2.241,-1,4
237,4.20317,2.245,-1,4
238,4.20542,2.244,-1,4
239,4.20767,2.252,-1,4
240,4.20992,2.254,-1,4
241,4.21218,2.254,-1,4
242,4.21443,2.255,-1,4
243,4.21670,2.265,-1,4
244,4.21896,2.266,-1,4
245,4.22123,2.265,-1,4
246,4.22349,2.268,-1,4
247,4.22577,2.274,-1,4
248,4.22805,2.278,-1,4
249,4.23032,2.278,-1,4
250,4.23260,2.280,-1,4
251,4.23489,2.282,-1,4
252,4.23717,2.285,-1,4
253,4.23946,2.287,-1,4
254,4.24175,2.288,-1,4
255,4.24404,2.290,-1,4
256,4.24633,2.293,-1,4
257,4.24862,2.296,-1,4
258,4.25092,2.292,-1,4
259,4.25321,2.297,-1,4
260,4.25551,2.299,-1,4
261,4.25781,2.300,-1,4
262,4.26011,2.299,-1,4
263,4.26241,2.300,-1,4
264,4.26471,2.301,-1,4
265,4.26932,2.301,-1,4
266,4.27162,2.305,-1,4
267,4.27393,2.308,-1,4
268,4.27624,2.304,-1,4
269,4.27854,2.305,-1,4
270,4.28085,2.308,-1,4
271,4.28316,2.307,-1,4
272,4.28546,2.309,-1,4
273,4.28777,2.308,-1,4
274,4.29008,2.304,-1,4
275,4.29238,2.308,-1,4
276,4.29469,2.310,-1,4
277,4.29700,2.305,-1,4
278,4.29930,2.303,-1,4
279,4.30161,2.309,-1,4
280,4.30392,2.306,-1,4
281,4.30622,2.306,-1,4
282,4.30852,2.301,-1,4
283,4.31083,2.306,-1,4
284,4.31313,2.304,-1,4
285,4.31543,2.297,-1,4
286,4.31773,2.295,-1,4
287,4.32003,2.303,-1,4
288,4.32233,2.298,-1,4
289,4.32462,2.294,-1,4
290,4.32691,2.292,-1,4
291,4.32920,2.292,-1,4
292,4.33150,2.291,-1,4
293,4.33379,2.290,-1,4
294,4.33607,2.286,-1,4
295,4.34064,2.282,-1,4
296,4.34292,2.284,-1,4
297,4.34292,2.277,-1,4
298,4.34520,2.275,-1,4
299,4.34747,2.275,-1,4
300,4.34975,2.276,-1,4
301,4.35202,2.275,-1,4
302,4.35429,2.269,-1,4
303,4.35656,2.271,-1,4
304,4.36110,2.263,-1,4
305,4.36336,2.259,-1,4
306,4.36562,2.263,-1,4
307,4.36788,2.261,-1,4
308,4.37013,2.254,-1,4
309,4.37239,2.251,-1,4
310,4.37464,2.254,-1,4
311,4.37689,2.249,-1,4
312,4.37914,2.247,-1,4
313,4.38138,2.244,-1,4
314,4.38362,2.240,-1,4
315,4.38586,2.237,-1,4
316,4.38809,2.238,-1,4
317,4.39033,2.234,-1,4
318,4.39256,2.228,-1,4
319,4.39478,2.226,-1,4
320,4.39701,2.228,-1,4
321,4.39923,2.224,-1,4
322,4.40145,2.216,-1,4
323,4.40367,2.217,-1,4
324,4.40588,2.217,-1,4
325,4.40810,2.212,-1,4
326,4.41030,2.205,-1,4
327,4.41251,2.207,-1,4
328,4.41472,2.207,-1,4
329,4.41692,2.200,-1,4
330,4.41911,2.198,-1,4
331,4.42131,2.198,-1,4
332,4.42351,2.197,-1,4
333,4.42570,2.192,-1,4
334,4.43008,2.190,-1,4
335,4.43008,2.186,-1,4
336,4.43227,2.184,-1,4
337,4.43445,2.184,-1,4
338,4.43664,2.187,-1,4
339,4.43882,2.181,-1,4
340,4.44100,2.177,-1,4
341,4.44318,2.181,-1,4
342,4.44536,2.180,-1,4
343,4.44970,2.169,-1,4
344,4.45188,2.179,-1,4
345,4.45405,2.176,-1,4
346,4.45622,2.169,-1,4
347,4.45839,2.164,-1,4
348,4.46056,2.172,-1,4
349,4.46273,2.173,-1,4
350,4.46490,2.164,-1,4
351,4.46706,2.162,-1,4
352,4.46922,2.166,-1,4
353,4.47139,2.167,-1,4
354,4.47355,2.163,-1,4
355,4.47572,2.162,-1,4
356,4.47788,2.160,-1,4
357,4.48004,2.163,-1,4
358,4.48220,2.164,-1,4
359,4.48437,2.162,-1,4
360,4.48652,2.157,-1,4
361,4.48868,2.160,-1,4
362,4.49085,2.164,-1,4
363,4.49301,2.162,-1,4
364,4.49517,2.157,-1,4
365,4.49732,2.158,-1,4
366,4.49949,2.165,-1,4
367,4.50165,2.161,-1,4
368,4.50381,2.158,-1,4
369,4.50596,2.157,-1,4
370,4.50813,2.165,-1,4
371,4.51029,2.162,-1,4
372,4.51245,2.160,-1,4
373,4.51461,2.162,-1,4
374,4.51678,2.162,-1,4
375,4.51894,2.162,-1,4
376,4.52110,2.163,-1,4
377,4.52326,2.163,-1,4
378,4.52542,2.160,-1,4
379,4.52759,2.166,-1,4
380,4.52976,2.166,-1,4
381,4.53192,2.167,-1,4
382,4.53409,2.166,-1,4
383,4.53626,2.171,-1,4
384,4.53843,2.169,-1,4
385,4.54060,2.170,-1,4
386,4.54277,2.169,-1,4
387,4.54494,2.173,-1,4
388,4.54712,2.176,-1,4
389,4.54929,2.177,-1,4
390,4.55147,2.174,-1,4
391,4.55364,2.175,-1,4
392,4.55583,2.184,-1,4
393,4.55801,2.182,-1,4
394,4.56237,2.180,-1,4
395,4.56456,2.189,-1,4
396,4.56676,2.193,-1,4
397,4.56895,2.194,-1,4
398,4.57114,2.190,-1,4
399,4.57333,2.195,-1,4
400,4.57553,2.200,-1,4
401,4.57774,2.204,-1,4
402,4.58214,2.200,-1,4
403,4.58435,2.214,-1,4
404,4.58877,2.211,-1,4
405,4.59098,2.210,-1,4
406,4.59320,2.220,-1,4
407,4.59542,2.221,-1,4
408,4.59764,2.222,-1,4
409,4.59987,2.222,-1,4
410,4.60210,2.229,-1,4
411,4.60433,2.229,-1,4
412,4.60656,2.233,-1,4
413,4.60879,2.234,-1,4
414,4.61104,2.242,-1,4
415,4.61328,2.242,-1,4
416,4.61552,2.241,-1,4
417,4.61776,2.246,-1,4
418,4.62002,2.252,-1,4
419,4.62227,2.252,-1,4
420,4.62452,2.255,-1,4
421,4.62678,2.259,-1,4
422,4.62904,2.267,-1,4
423,4.63131,2.267,-1,4
424,4.63358,2.270,-1,4
425,4.63585,2.271,-1,4
426,4.63812,2.271,-1,4
427,4.64041,2.284,-1,4
428,4.64269,2.286,-1,4
429,4.64498,2.284,-1,4
430,4.64726,2.286,-1,4
431,4.65186,2.302,-1,4
432,4.65416,2.302,-1,4
433,4.65647,2.302,-1,4
434,4.65878,2.311,-1,4
435,4.66110,2.318,-1,4
436,4.66341,2.319,-1,4
437,4.66574,2.324,-1,4
438,4.66807,2.327,-1,4
439,4.67040,2.335,-1,4
440,4.67274,2.342,-1,4
441,4.67509,2.343,-1,4
442,4.67743,2.346,-1,4
443,4.67979,2.356,-1,4
444,4.68215,2.363,-1,4
445,4.68451,2.364,-1,4
446,4.68688,2.368,-1,4
447,4.68926,2.382,-1,4
448,4.69164,2.381,-1,4
449,4.69403,2.386,-1,4
450,4.69643,2.397,-1,4
451,4.69883,2.400,-1,4
452,4.70123,2.406,-1,4
453,4.70365,2.414,-1,4
454,4.70607,2.422,-1,4
455,4.70849,2.426,-1,4
456,4.71093,2.434,-1,4
457,4.71337,2.440,-1,4
458,4.71582,2.449,-1,4
459,4.71827,2.458,-1,4
460,4.72074,2.464,-1,4
461,4.72320,2.479,-1,4
462,4.72568,2.488,-1,4
463,4.72817,2.492,-1,4
464,4.73066,2.492,-1,4
465,4.73316,2.498,-1,4
466,4.73567,2.510,-1,4
467,4.73819,2.516,-1,4
468,4.74071,2.521,-1,4
469,4.74324,2.534,-1,4
470,4.74833,2.548,-1,4
471,4.75089,2.555,-1,4
472,4.75346,2.568,-1,4
473,4.75603,2.576,-1,4
474,4.75862,2.584,-1,4
475,4.76121,2.592,-1,4
476,4.76381,2.605,-1,4
477,4.76643,2.612,-1,4
478,4.76905,2.623,-1,4
479,4.77168,2.631,-1,4
480,4.77433,2.645,-1,4
481,4.77698,2.653,-1,4
482,4.77964,2.663,-1,4
483,4.78232,2.679,-1,4
484,4.78501,2.685,-1,4
485,4.78770,2.697,-1,4
486,4.79041,2.710,-1,4
487,4.79313,2.722,-1,4
488,4.79587,2.734,-1,4
489,4.79861,2.746,-1,4
490,4.80137,2.757,-1,4
491,4.80414,2.769,-1,4
492,4.80692,2.780,-1,4
493,4.80971,2.795,-1,4
494,4.81252,2.807,-1,4
495,4.81535,2.824,-1,4
496,4.81818,2.832,-1,4
497,4.82103,2.848,-1,4
498,4.82389,2.860,-1,4
499,4.82676,2.873,-1,4
500,4.82965,2.901,-1,4
501,4.83255,2.901,-1,4
502,4.83546,2.911,-1,4
503,4.83839,2.930,-1,4
504,4.84133,2.941,-1,4
505,4.84428,2.953,-1,4
506,4.84725,2.973,-1,4
507,4.85024,2.983,-1,4
508,4.85323,2.996,-1,4
509,4.85927,3.026,-1,4
510,4.86231,3.040,-1,4
511,4.86536,3.052,-1,4
512,4.86843,3.065,-1,4
513,4.87151,3.080,-1,4
514,4.87460,3.091,-1,4
515,4.87770,3.105,-1,4
516,4.88082,3.118,-1,4
517,4.88395,3.126,-1,4
518,4.88709,3.139,-1,4
519,4.89024,3.154,-1,4
520,4.89340,3.163,-1,4
521,4.89658,3.175,-1,4
522,4.89976,3.184,-1,4
523,4.90296,3.195,-1,4
524,4.90616,3.204,-1,4
525,4.90938,3.216,-1,4
526,4.91260,3.225,-1,4
527,4.91584,3.233,-1,4
528,4.91908,3.244,-1,4
529,4.92233,3.252,-1,4
530,4.92560,3.264,-1,4
531,4.92887,3.271,-1,4
532,4.93214,3.277,-1,4
533,4.93543,3.284,-1,4
534,4.93872,3.294,-1,4
535,4.94202,3.301,-1,4
536,4.94533,3.307,-1,4
537,4.94864,3.314,-1,4
538,4.95196,3.319,-1,4
539,4.95529,3.328,-1,4
540,4.95862,3.331,-1,4
541,4.96196,3.339,-1,4
542,4.96530,3.341,-1,4
543,4.96865,3.345,-1,4
544,4.97200,3.351,-1,4
545,4.97535,3.355,-1,4
546,4.97871,3.358,-1,4
547,4.98207,3.360,-1,4
548,4.98544,3.370,-1,4
549,4.99217,3.368,-1,4
550,4.99555,3.371,-1,4
551,4.99892,3.373,-1,4
552,5.00230,3.381,-1,4
553,5.00568,3.376,-1,4
554,5.00905,3.374,-1,4
555,5.01243,3.377,-1,4
556,5.01581,3.379,-1,4
557,5.01919,3.383,-1,4
558,5.02256,3.376,-1,4
559,5.02594,3.376,-1,4
560,5.02931,3.374,-1,4
561,5.03269,3.377,-1,4
562,5.03607,3.374,-1,4
563,5.03944,3.371,-1,4
564,5.04280,3.366,-1,4
565,5.04617,3.368,-1,4
566,5.04954,3.366,-1,4
567,5.05290,3.360,-1,4
568,5.05625,3.359,-1,4
569,5.05961,3.357,-1,4
570,5.06296,3.347,-1,4
571,5.06631,3.348,-1,4
572,5.06965,3.346,-1,4
573,5.07299,3.341,-1,4
574,5.07633,3.337,-1,4
575,5.07966,3.329,-1,4
576,5.08299,3.327,-1,4
577,5.08631,3.320,-1,4
578,5.08962,3.316,-1,4
579,5.09293,3.309,-1,4
580,5.09624,3.305,-1,4
581,5.09953,3.298,-1,4
582,5.10282,3.291,-1,4
583,5.10611,3.285,-1,4
584,5.10939,3.277,-1,4
585,5.11266,3.272,-1,4
586,5.11592,3.266,-1,4
587,5.11918,3.258,-1,4
588,5.12568,3.243,-1,4
589,5.12892,3.239,-1,4
590,5.13215,3.232,-1,4
591,5.13537,3.223,-1,4
592,5.13859,3.217,-1,4
593,5.14180,3.209,-1,4
594,5.14500,3.202,-1,4
595,5.14819,3.194,-1,4
596,5.15138,3.190,-1,4
597,5.15456,3.180,-1,4
598,5.15773,3.172,-1,4
599,5.16090,3.168,-1,4
600,5.16406,3.158,-1,4
601,5.16721,3.150,-1,4
602,5.17035,3.140,-1,4
603,5.17349,3.137,-1,4
604,5.17661,3.127,-1,4
605,5.17973,3.119,-1,4
606,5.18284,3.112,-1,4
607,5.18595,3.104,-1,4
608,5.18904,3.096,-1,4
609,5.19213,3.089,-1,4
610,5.19521,3.076,-1,4
611,5.19828,3.074,-1,4
612,5.20135,3.064,-1,4
613,5.20441,3.059,-1,4
614,5.20746,3.053,-1,4
615,5.21050,3.044,-1,4
616,5.21354,3.035,-1,4
617,5.21657,3.027,-1,4
618,5.21959,3.017,-1,4
619,5.22260,3.008,-1,4
620,5.22561,3.000,-1,4
621,5.22861,3.000,-1,4
622,5.23161,2.994,-1,4
623,5.23459,2.987,-1,4
624,5.23758,2.982,-1,4
625,5.24055,2.973,-1,4
626,5.24352,2.967,-1,4
627,5.24943,2.953,-1,4
628,5.25238,2.947,-1,4
629,5.25532,2.946,-1,4
630,5.25826,2.933,-1,4
631,5.26118,2.926,-1,4
632,5.26411,2.925,-1,4
633,5.26703,2.919,-1,4
634,5.26994,2.915,-1,4
635,5.27284,2.904,-1,4
636,5.27575,2.902,-1,4
637,5.27864,2.895,-1,4
638,5.28154,2.894,-1,4
639,5.28442,2.886,-1,4
640,5.28730,2.882,-1,4
641,5.29018,2.873,-1,4
642,5.29305,2.874,-1,4
643,5.29592,2.868,-1,4
644,5.29878,2.860,-1,4
645,5.30164,2.861,-1,4
646,5.30449,2.855,-1,4
647,5.30734,2.847,-1,4
648,5.31019,2.849,-1,4
649,5.31303,2.844,-1,4
650,5.31587,2.837,-1,4
651,5.31871,2.838,-1,4
652,5.32154,2.831,-1,4
653,5.32437,2.830,-1,4
654,5.32719,2.824,-1,4
655,5.33002,2.826,-1,4
656,5.33284,2.822,-1,4
657,5.33566,2.820,-1,4
658,5.33848,2.818,-1,4
659,5.34130,2.816,-1,4
660,5.34411,2.814,-1,4
661,5.34693,2.816,-1,4
662,5.34974,2.816,-1,4
663,5.35255,2.811,-1,4
664,5.35536,2.811,-1,4
665,5.35818,2.812,-1,4
666,5.36099,2.813,-1,4
667,5.36662,2.812,-1,4
668,5.36662,2.810,-1,4
669,5.36943,2.812,-1,4
670,5.37224,2.813,-1,4
671,5.37505,2.813,-1,4
672,5.37787,2.816,-1,4
673,5.38068,2.816,-1,4
674,5.38350,2.815,-1,4
675,5.38631,2.819,-1,4
676,5.39195,2.817,-1,4
677,5.39477,2.822,-1,4
678,5.40041,2.821,-1,4
679,5.40324,2.822,-1,4
680,5.40606,2.827,-1,4
681,5.40889,2.829,-1,4
682,5.41172,2.828,-1,4
683,5.41455,2.831,-1,4
684,5.41738,2.833,-1,4
685,5.42022,2.836,-1,4
686,5.42590,2.842,-1,4
687,5.43159,2.845,-1,4
688,5.43444,2.854,-1,4
689,5.43729,2.855,-1,4
690,5.44015,2.854,-1,4
691,5.44301,2.861,-1,4
692,5.44587,2.862,-1,4
693,5.44874,2.868,-1,4
694,5.45161,2.875,-1,4
695,5.45449,2.873,-1,4
696,5.45737,2.881,-1,4
697,5.46026,2.887,-1,4
698,5.46314,2.889,-1,4
699,5.46604,2.894,-1,4
700,5.46894,2.899,-1,4
701,5.47184,2.900,-1,4
702,5.47475,2.909,-1,4
703,5.47766,2.910,-1,4
704,5.48057,2.916,-1,4
705,5.48349,2.919,-1,4
706,5.48641,2.924,-1,4
707,5.48935,2.930,-1,4
708,5.49228,2.936,-1,4
709,5.49522,2.934,-1,4
710,5.49816,2.941,-1,4
711,5.50110,2.945,-1,4
712,5.50405,2.949,-1,4
713,5.50700,2.956,-1,4
714,5.50996,2.956,-1,4
715,5.51292,2.959,-1,4
716,5.51588,2.963,-1,4
717,5.51885,2.969,-1,4
718,5.52183,2.975,-1,4
719,5.52480,2.972,-1,4
720,5.52777,2.976,-1,4
721,5.53076,2.985,-1,4
722,5.53374,2.984,-1,4
723,5.53674,2.993,-1,4
724,5.53973,2.990,-1,4
725,5.54272,2.994,-1,4
726,5.54873,3.003,-1,4
727,5.54873,3.006,-1,4
728,5.55173,3.006,-1,4
729,5.55474,3.010,-1,4
730,5.55775,3.014,-1,4
731,5.56077,3.019,-1,4
732,5.56380,3.022,-1,4
733,5.56682,3.023,-1,4
734,5.56985,3.027,-1,4
735,5.57288,3.030,-1,4
736,5.57591,3.038,-1,4
737,5.57895,3.036,-1,4
738,5.58199,3.040,-1,4
739,5.58503,3.045,-1,4
740,5.58808,3.049,-1,4
741,5.59113,3.050,-1,4
742,5.59419,3.054,-1,4
743,5.59724,3.054,-1,4
744,5.60030,3.062,-1,4
745,5.60337,3.066,-1,4
746,5.60644,3.070,-1,4
747,5.60951,3.070,-1,4
748,5.61258,3.076,-1,4
749,5.61566,3.079,-1,4
750,5.61874,3.080,-1,4
751,5.62183,3.085,-1,4
752,5.62492,3.090,-1,4
753,5.62801,3.092,-1,4
754,5.63111,3.099,-1,4
755,5.63421,3.103,-1,4
756,5.63731,3.104,-1,4
757,5.64042,3.111,-1,4
758,5.64354,3.113,-1,4
759,5.64665,3.118,-1,4
760,5.64978,3.123,-1,4
761,5.65290,3.126,-1,4
762,5.65603,3.126,-1,4
763,5.65916,3.129,-1,4
764,5.66230,3.140,-1,4
765,5.66544,3.141,-1,4
766,5.66859,3.144,-1,4
767,5.67173,3.144,-1,4
768,5.67488,3.148,-1,4
769,5.67803,3.155,-1,4
770,5.68119,3.156,-1,4
771,5.68435,3.161,-1,4
772,5.68751,3.163,-1,4
773,5.69068,3.165,-1,4
774,5.69385,3.171,-1,4
775,5.69703,3.178,-1,4
776,5.70338,3.177,-1,4
777,5.70656,3.179,-1,4
778,5.70975,3.188,-1,4
779,5.71293,3.188,-1,4
780,5.71613,3.195,-1,4
781,5.71932,3.193,-1,4
782,5.72252,3.199,-1,4
783,5.72572,3.203,-1,4
784,5.72893,3.207,-1,4
785,5.73214,3.209,-1,4
786,5.73535,3.212,-1,4
787,5.73856,3.213,-1,4
788,5.74178,3.219,-1,4
789,5.74501,3.222,-1,4
790,5.74824,3.229,-1,4
791,5.75147,3.230,-1,4
792,5.75470,3.232,-1,4
793,5.75793,3.235,-1,4
794,5.76117,3.241,-1,4
795,5.76442,3.248,-1,4
796,5.76767,3.251,-1,4
797,5.77093,3.253,-1,4
798,5.77419,3.262,-1,4
799,5.77745,3.267,-1,4
800,5.78073,3.272,-1,4
801,5.78400,3.277,-1,4
802,5.78729,3.281,-1,4
803,5.79057,3.288,-1,4
804,5.79387,3.295,-1,4
805,5.79717,3.301,-1,4
806,5.80047,3.305,-1,4
807,5.80379,3.315,-1,4
808,5.80711,3.318,-1,4
809,5.81043,3.327,-1,4
810,5.81376,3.331,-1,4
811,5.81710,3.338,-1,4
812,5.82045,3.348,-1,4
813,5.82380,3.352,-1,4
814,5.82716,3.370,-1,4
815,5.83391,3.374,-1,4
816,5.83729,3.385,-1,4
817,5.84069,3.393,-1,4
818,5.84409,3.399,-1,4
819,5.84750,3.412,-1,4
820,5.85092,3.420,-1,4
821,5.85434,3.425,-1,4
822,5.85778,3.437,-1,4
823,5.86122,3.443,-1,4
824,5.86468,3.457,-1,4
825,5.86814,3.466,-1,4
826,5.87162,3.473,-1,4
827,5.87510,3.481,-1,4
828,5.87859,3.493,-1,4
829,5.88210,3.506,-1,4
830,5.88561,3.513,-1,4
831,5.88913,3.520,-1,4
832,5.89267,3.534,-1,4
833,5.89621,3.544,-1,4
834,5.89977,3.556,-1,4
835,5.90333,3.565,-1,4
836,5.90691,3.577,-1,4
837,5.91049,3.585,-1,4
838,5.91409,3.599,-1,4
839,5.91770,3.608,-1,4
840,5.92132,3.620,-1,4
841,5.92495,3.630,-1,4
842,5.92859,3.640,-1,4
843,5.93224,3.652,-1,4
844,5.93590,3.661,-1,4
845,5.93957,3.671,-1,4
846,5.94326,3.684,-1,4
847,5.94695,3.695,-1,4
848,5.95065,3.701,-1,4
849,5.95437,3.714,-1,4
850,5.95809,3.719,-1,4
851,5.96182,3.733,-1,4
852,5.96556,3.739,-1,4
853,5.97307,3.757,-1,4
854,5.97684,3.768,-1,4
855,5.98061,3.775,-1,4
856,5.98439,3.784,-1,4
857,5.98818,3.790,-1,4
858,5.99199,3.801,-1,4
859,5.99579,3.803,-1,4
860,5.99960,3.812,-1,4
861,6.00342,3.819,-1,4
862,6.00725,3.829,-1,4
863,6.01108,3.831,-1,4
864,6.01491,3.835,-1,4
865,6.01876,3.841,-1,4
866,6.02260,3.846,-1,4
867,6.02645,3.853,-1,4
868,6.03031,3.855,-1,4
869,6.03417,3.859,-1,4
870,6.03803,3.861,-1,4
871,6.04189,3.865,-1,4
872,6.04576,3.868,-1,4
873,6.04963,3.872,-1,4
